# t [s], A [cm^2], U [cm/s], P [cPa], c [cm/s]
1.000000000000000021e-03 1.455819999999999892e-01 2.535419999999999896e-01 9.613009999999999877e+01 1.836795000000000073e+03
2.000000000000000042e-03 1.455560000000000187e-01 1.712956500000000215e+00 9.333074999999999477e+01 1.836509999999999991e+03
3.000000000000000062e-03 1.454604999999999926e-01 3.523758500000000460e+00 8.959229999999999450e+01 1.835490000000000009e+03
4.000000000000000083e-03 1.453174999999999883e-01 5.540123050000000049e+00 8.534749999999999659e+01 1.833994999999999891e+03
5.000000000000000104e-03 1.451524999999999899e-01 7.711285000000000167e+00 8.129030000000000200e+01 1.832284999999999854e+03
6.000000000000000125e-03 1.449834999999999874e-01 9.936939999999999884e+00 7.781034999999999968e+01 1.830559999999999945e+03
7.000000000000000146e-03 1.448220000000000063e-01 1.205978999999999957e+01 7.490170000000000528e+01 1.828914999999999964e+03
8.000000000000000167e-03 1.446695000000000064e-01 1.394887999999999906e+01 7.235875000000000057e+01 1.827394999999999982e+03
9.000000000000001055e-03 1.445285000000000042e-01 1.557290000000000063e+01 7.007195000000000107e+01 1.826014999999999873e+03
1.000000000000000194e-02 1.444030000000000036e-01 1.696079999999999899e+01 6.807859999999999445e+01 1.824800000000000182e+03
1.099999999999999936e-02 1.442944999999999922e-01 1.813715000000000188e+01 6.641804999999999382e+01 1.823755000000000109e+03
1.200000000000000025e-02 1.442025000000000112e-01 1.911489999999999867e+01 6.507510000000000616e+01 1.822880000000000109e+03
1.300000000000000114e-02 1.441264999999999907e-01 1.990625000000000000e+01 6.401089999999999236e+01 1.822170000000000073e+03
1.400000000000000203e-02 1.440655000000000130e-01 2.051910000000000167e+01 6.317104999999999393e+01 1.821599999999999909e+03
1.499999999999999944e-02 1.440144999999999897e-01 2.095810000000000173e+01 6.248190000000000310e+01 1.821144999999999982e+03
1.600000000000000033e-02 1.439734999999999765e-01 2.124494999999999933e+01 6.189185000000000514e+01 1.820769999999999982e+03
1.700000000000000122e-02 1.439400000000000124e-01 2.143934999999999746e+01 6.143814999999999316e+01 1.820480000000000018e+03
1.800000000000000211e-02 1.439174999999999760e-01 2.163485000000000014e+01 6.126914999999999623e+01 1.820299999999999955e+03
1.900000000000000300e-02 1.439119999999999844e-01 2.192595000000000027e+01 6.158520000000000039e+01 1.820259999999999991e+03
2.000000000000000042e-02 1.439269999999999994e-01 2.236874999999999858e+01 6.253170000000000073e+01 1.820414999999999964e+03
2.100000000000000130e-02 1.439640000000000086e-01 2.295595000000000141e+01 6.410869999999999891e+01 1.820775000000000091e+03
2.200000000000000219e-02 1.440204999999999957e-01 2.361869999999999692e+01 6.614385000000000048e+01 1.821325000000000045e+03
2.299999999999999961e-02 1.440899999999999959e-01 2.425094999999999956e+01 6.833490000000000464e+01 1.821994999999999891e+03
2.400000000000000050e-02 1.441620000000000124e-01 2.474360000000000070e+01 7.033785000000000309e+01 1.822704999999999927e+03
2.500000000000000139e-02 1.442275000000000085e-01 2.501630000000000109e+01 7.186320000000000618e+01 1.823349999999999909e+03
2.600000000000000228e-02 1.442789999999999906e-01 2.503614999999999924e+01 7.274725000000000819e+01 1.823869999999999891e+03
2.700000000000000316e-02 1.443119999999999958e-01 2.482085000000000008e+01 7.298035000000000139e+01 1.824215000000000146e+03
2.800000000000000058e-02 1.443269999999999831e-01 2.442670000000000030e+01 7.268799999999998818e+01 1.824389999999999873e+03
2.900000000000000147e-02 1.443280000000000118e-01 2.392764999999999986e+01 7.207704999999999984e+01 1.824414999999999964e+03
3.000000000000000236e-02 1.443194999999999895e-01 2.339284999999999926e+01 7.136724999999999852e+01 1.824349999999999909e+03
3.099999999999999978e-02 1.443079999999999918e-01 2.286909999999999954e+01 7.073069999999999879e+01 1.824240000000000009e+03
3.200000000000000067e-02 1.442960000000000076e-01 2.237375000000000114e+01 7.025495000000000800e+01 1.824130000000000109e+03
3.300000000000000155e-02 1.442855000000000110e-01 2.189624999999999844e+01 6.993649999999999523e+01 1.824029999999999973e+03
3.400000000000000244e-02 1.442769999999999886e-01 2.140814999999999912e+01 6.970074999999999932e+01 1.823950000000000045e+03
3.500000000000000333e-02 1.442684999999999940e-01 2.087639999999999674e+01 6.943930000000000291e+01 1.823865000000000009e+03
3.600000000000000422e-02 1.442570000000000241e-01 2.027709999999999724e+01 6.905180000000000007e+01 1.823759999999999991e+03
3.700000000000000511e-02 1.442400000000000071e-01 1.960565000000000069e+01 6.848179999999999268e+01 1.823605000000000018e+03
3.799999999999999906e-02 1.442180000000000129e-01 1.888119999999999976e+01 6.773859999999999104e+01 1.823400000000000091e+03
3.899999999999999994e-02 1.441915000000000002e-01 1.814489999999999981e+01 6.689974999999999739e+01 1.823154999999999973e+03
4.000000000000000083e-02 1.441640000000000144e-01 1.745210000000000150e+01 6.609539999999999793e+01 1.822884999999999991e+03
4.100000000000000172e-02 1.441385000000000027e-01 1.686090000000000089e+01 6.547830000000000439e+01 1.822640000000000100e+03
4.200000000000000261e-02 1.441199999999999981e-01 1.641979999999999862e+01 6.518864999999999554e+01 1.822460000000000036e+03
4.300000000000000350e-02 1.441129999999999911e-01 1.615769999999999840e+01 6.532110000000000127e+01 1.822384999999999991e+03
4.400000000000000439e-02 1.441195000000000115e-01 1.607795000000000130e+01 6.590359999999999729e+01 1.822429999999999836e+03
4.499999999999999833e-02 1.441399999999999904e-01 1.615804999999999936e+01 6.689055000000000462e+01 1.822615000000000009e+03
4.599999999999999922e-02 1.441725000000000090e-01 1.635354999999999848e+01 6.817045000000000243e+01 1.822920000000000073e+03
4.700000000000000011e-02 1.442144999999999955e-01 1.660544999999999760e+01 6.958580000000000609e+01 1.823304999999999836e+03
4.800000000000000100e-02 1.442599999999999993e-01 1.684945000000000093e+01 7.095869999999999322e+01 1.823744999999999891e+03
4.900000000000000189e-02 1.443045000000000022e-01 1.702439999999999998e+01 7.211744999999999095e+01 1.824170000000000073e+03
5.000000000000000278e-02 1.443415000000000115e-01 1.707929999999999993e+01 7.291939999999999600e+01 1.824529999999999973e+03
5.100000000000000366e-02 1.443685000000000107e-01 1.697804999999999964e+01 7.326574999999999704e+01 1.824789999999999964e+03
5.200000000000000455e-02 1.443800000000000083e-01 1.670084999999999908e+01 7.310819999999999652e+01 1.824909999999999854e+03
5.300000000000000544e-02 1.443760000000000043e-01 1.624390000000000001e+01 7.244774999999999920e+01 1.824884999999999991e+03
5.399999999999999939e-02 1.443550000000000111e-01 1.561640000000000050e+01 7.132609999999999673e+01 1.824690000000000055e+03
5.500000000000000028e-02 1.443185000000000162e-01 1.483774999999999977e+01 6.981405000000000882e+01 1.824349999999999909e+03
5.600000000000000117e-02 1.442680000000000073e-01 1.393329999999999913e+01 6.799875000000000114e+01 1.823875000000000000e+03
5.700000000000000205e-02 1.442065000000000152e-01 1.293176000000000059e+01 6.597204999999999586e+01 1.823284999999999854e+03
5.800000000000000294e-02 1.441365000000000007e-01 1.186263500000000093e+01 6.382245000000000346e+01 1.822615000000000009e+03
5.900000000000000383e-02 1.440605000000000080e-01 1.075540999999999947e+01 6.163044999999999618e+01 1.821880000000000109e+03
6.000000000000000472e-02 1.439814999999999845e-01 9.638989999999999725e+00 5.946719999999999828e+01 1.821119999999999891e+03
6.099999999999999867e-02 1.439020000000000021e-01 8.541904999999999859e+00 5.739580000000000126e+01 1.820349999999999909e+03
6.199999999999999956e-02 1.438240000000000074e-01 7.493089999999999584e+00 5.547395000000000209e+01 1.819599999999999909e+03
6.300000000000000044e-02 1.437505000000000033e-01 6.521690000000000431e+00 5.375674999999999670e+01 1.818889999999999873e+03
6.400000000000000133e-02 1.436839999999999784e-01 5.657574999999999577e+00 5.229874999999999829e+01 1.818244999999999891e+03
6.500000000000000222e-02 1.436259999999999759e-01 4.930619999999999337e+00 5.115449999999999875e+01 1.817680000000000064e+03
6.600000000000000311e-02 1.435794999999999988e-01 4.369909999999999961e+00 5.037800000000000011e+01 1.817219999999999800e+03
6.700000000000000400e-02 1.435454999999999925e-01 4.002544999999999575e+00 5.002025000000000432e+01 1.816884999999999991e+03
6.800000000000000488e-02 1.435270000000000157e-01 3.852170000000000094e+00 5.012664999999999793e+01 1.816690000000000055e+03
6.900000000000000577e-02 1.435255000000000003e-01 3.937590000000000146e+00 5.073310000000000031e+01 1.816654999999999973e+03
7.000000000000000666e-02 1.435425000000000173e-01 4.271514999999999951e+00 5.186325000000000074e+01 1.816800000000000182e+03
7.100000000000000755e-02 1.435790000000000122e-01 4.859704999999999941e+00 5.352559999999999718e+01 1.817130000000000109e+03
7.200000000000000844e-02 1.436344999999999983e-01 5.700474999999999959e+00 5.571274999999999977e+01 1.817650000000000091e+03
7.300000000000000933e-02 1.437100000000000044e-01 6.784724999999999895e+00 5.840075000000000216e+01 1.818360000000000127e+03
7.399999999999999634e-02 1.438045000000000018e-01 8.096395000000001119e+00 6.155035000000000167e+01 1.819250000000000000e+03
7.499999999999999722e-02 1.439165000000000028e-01 9.613369999999999749e+00 6.510925000000000296e+01 1.820315000000000055e+03
7.599999999999999811e-02 1.440449999999999786e-01 1.130849500000000063e+01 6.901494999999999891e+01 1.821539999999999964e+03
7.699999999999999900e-02 1.441870000000000096e-01 1.315089500000000022e+01 7.319814999999999827e+01 1.822900000000000091e+03
7.799999999999999989e-02 1.443404999999999827e-01 1.510754999999999981e+01 7.758629999999999427e+01 1.824380000000000109e+03
7.900000000000000078e-02 1.445035000000000069e-01 1.714440000000000097e+01 8.210685000000000855e+01 1.825950000000000045e+03
8.000000000000000167e-02 1.446729999999999960e-01 1.922804999999999964e+01 8.669100000000000250e+01 1.827595000000000027e+03
8.100000000000000255e-02 1.448460000000000025e-01 2.132654999999999745e+01 9.127590000000000714e+01 1.829279999999999973e+03
8.200000000000000344e-02 1.450214999999999976e-01 2.341100000000000136e+01 9.580740000000000123e+01 1.830990000000000009e+03
8.300000000000000433e-02 1.451955000000000051e-01 2.545609999999999928e+01 1.002417999999999978e+02 1.832704999999999927e+03
8.400000000000000522e-02 1.453685000000000116e-01 2.744095000000000084e+01 1.045458500000000015e+02 1.834404999999999973e+03
8.500000000000000611e-02 1.455380000000000007e-01 2.934929999999999950e+01 1.086995000000000005e+02 1.836069999999999936e+03
8.600000000000000699e-02 1.457029999999999992e-01 3.116975000000000051e+01 1.126924999999999955e+02 1.837704999999999927e+03
8.700000000000000788e-02 1.458630000000000204e-01 3.289555000000000007e+01 1.165260000000000105e+02 1.839295000000000073e+03
8.800000000000000877e-02 1.460184999999999955e-01 3.452405000000000257e+01 1.202085000000000008e+02 1.840840000000000146e+03
8.899999999999999578e-02 1.461680000000000201e-01 3.605615000000000236e+01 1.237549999999999955e+02 1.842340000000000146e+03
8.999999999999999667e-02 1.463139999999999996e-01 3.749549999999999983e+01 1.271869999999999976e+02 1.843795000000000073e+03
9.099999999999999756e-02 1.464555000000000162e-01 3.884745000000000203e+01 1.305235000000000127e+02 1.845220000000000027e+03
9.199999999999999845e-02 1.465940000000000021e-01 4.011834999999999951e+01 1.337864999999999895e+02 1.846605000000000018e+03
9.299999999999999933e-02 1.467295000000000127e-01 4.131470000000000198e+01 1.369934999999999832e+02 1.847965000000000146e+03
9.400000000000000022e-02 1.468625000000000069e-01 4.244225000000000136e+01 1.401580000000000155e+02 1.849305000000000064e+03
9.500000000000000111e-02 1.469934999999999992e-01 4.350570000000000448e+01 1.432884999999999991e+02 1.850625000000000000e+03
9.600000000000000200e-02 1.471230000000000038e-01 4.450795000000000101e+01 1.463870000000000005e+02 1.851929999999999836e+03
9.700000000000000289e-02 1.472510000000000208e-01 4.545035000000000025e+01 1.494495000000000005e+02 1.853224999999999909e+03
9.800000000000000377e-02 1.473769999999999802e-01 4.633209999999999695e+01 1.524675000000000011e+02 1.854500000000000000e+03
9.900000000000000466e-02 1.475015000000000076e-01 4.715085000000000548e+01 1.554250000000000114e+02 1.855755000000000109e+03
1.000000000000000056e-01 1.476230000000000042e-01 4.790245000000000175e+01 1.583040000000000020e+02 1.856990000000000009e+03
1.010000000000000064e-01 1.477414999999999978e-01 4.858174999999999955e+01 1.610844999999999914e+02 1.858195000000000164e+03
1.020000000000000073e-01 1.478559999999999874e-01 4.918260000000000076e+01 1.637425000000000068e+02 1.859360000000000127e+03
1.030000000000000082e-01 1.479659999999999864e-01 4.969819999999999993e+01 1.662554999999999836e+02 1.860474999999999909e+03
1.040000000000000091e-01 1.480704999999999938e-01 5.012205000000000155e+01 1.686005000000000109e+02 1.861545000000000073e+03
1.050000000000000100e-01 1.481685000000000085e-01 5.044754999999999967e+01 1.707574999999999932e+02 1.862545000000000073e+03
1.059999999999999970e-01 1.482594999999999885e-01 5.066920000000000357e+01 1.727074999999999818e+02 1.863474999999999909e+03
1.069999999999999979e-01 1.483424999999999883e-01 5.078204999999999814e+01 1.744365000000000236e+02 1.864329999999999927e+03
1.079999999999999988e-01 1.484174999999999800e-01 5.078275000000000006e+01 1.759329999999999927e+02 1.865105000000000018e+03
1.089999999999999997e-01 1.484840000000000049e-01 5.066925000000000523e+01 1.771889999999999930e+02 1.865789999999999964e+03
1.100000000000000006e-01 1.485410000000000064e-01 5.044120000000000203e+01 1.782019999999999982e+02 1.866380000000000109e+03
1.110000000000000014e-01 1.485885000000000122e-01 5.010000000000000142e+01 1.789730000000000132e+02 1.866880000000000109e+03
1.120000000000000023e-01 1.486275000000000235e-01 4.964874999999999972e+01 1.795074999999999932e+02 1.867280000000000200e+03
1.130000000000000032e-01 1.486564999999999970e-01 4.909265000000000612e+01 1.798149999999999977e+02 1.867590000000000146e+03
1.140000000000000041e-01 1.486770000000000036e-01 4.843834999999999980e+01 1.799074999999999989e+02 1.867815000000000055e+03
1.150000000000000050e-01 1.486895000000000022e-01 4.769415000000000049e+01 1.798034999999999854e+02 1.867944999999999936e+03
1.160000000000000059e-01 1.486934999999999785e-01 4.686979999999999791e+01 1.795210000000000150e+02 1.868005000000000109e+03
1.170000000000000068e-01 1.486905000000000032e-01 4.597625000000000028e+01 1.790829999999999984e+02 1.867984999999999900e+03
1.180000000000000077e-01 1.486814999999999942e-01 4.502510000000000190e+01 1.785115000000000123e+02 1.867894999999999982e+03
1.190000000000000085e-01 1.486659999999999926e-01 4.402859999999999729e+01 1.778310000000000173e+02 1.867750000000000000e+03
1.200000000000000094e-01 1.486465000000000147e-01 4.299909999999999854e+01 1.770665000000000191e+02 1.867559999999999945e+03
1.209999999999999964e-01 1.486224999999999907e-01 4.194870000000000232e+01 1.762404999999999973e+02 1.867324999999999818e+03
1.219999999999999973e-01 1.485960000000000059e-01 4.088899999999999579e+01 1.753750000000000000e+02 1.867059999999999945e+03
1.229999999999999982e-01 1.485670000000000046e-01 3.983079999999999643e+01 1.744904999999999973e+02 1.866764999999999873e+03
1.239999999999999991e-01 1.485365000000000157e-01 3.878354999999999819e+01 1.736030000000000086e+02 1.866460000000000036e+03
1.250000000000000000e-01 1.485049999999999981e-01 3.775570000000000448e+01 1.727284999999999968e+02 1.866144999999999982e+03
1.260000000000000009e-01 1.484739999999999949e-01 3.675379999999999825e+01 1.718764999999999930e+02 1.865825000000000045e+03
1.270000000000000018e-01 1.484425000000000050e-01 3.578310000000000457e+01 1.710559999999999832e+02 1.865505000000000109e+03
1.280000000000000027e-01 1.484119999999999884e-01 3.484700000000000131e+01 1.702694999999999936e+02 1.865190000000000055e+03
1.290000000000000036e-01 1.483814999999999995e-01 3.394720000000000226e+01 1.695194999999999936e+02 1.864884999999999991e+03
1.300000000000000044e-01 1.483524999999999983e-01 3.308384999999999820e+01 1.688014999999999759e+02 1.864585000000000036e+03
1.310000000000000053e-01 1.483244999999999980e-01 3.225544999999999618e+01 1.681119999999999948e+02 1.864295000000000073e+03
1.320000000000000062e-01 1.482970000000000121e-01 3.145925000000000082e+01 1.674420000000000073e+02 1.864009999999999991e+03
1.330000000000000071e-01 1.482700000000000129e-01 3.069119999999999848e+01 1.667824999999999989e+02 1.863730000000000018e+03
1.340000000000000080e-01 1.482424999999999993e-01 2.994650000000000034e+01 1.661204999999999927e+02 1.863454999999999927e+03
1.350000000000000089e-01 1.482155000000000000e-01 2.921934999999999860e+01 1.654449999999999932e+02 1.863180000000000064e+03
1.360000000000000098e-01 1.481879999999999864e-01 2.850359999999999872e+01 1.647425000000000068e+02 1.862889999999999873e+03
1.370000000000000107e-01 1.481600000000000139e-01 2.779315000000000069e+01 1.639990000000000236e+02 1.862605000000000018e+03
1.380000000000000115e-01 1.481294999999999973e-01 2.708174999999999955e+01 1.632044999999999959e+02 1.862295000000000073e+03
1.390000000000000124e-01 1.480974999999999930e-01 2.636364999999999981e+01 1.623464999999999918e+02 1.861970000000000027e+03
1.400000000000000133e-01 1.480630000000000002e-01 2.563370000000000104e+01 1.614164999999999850e+02 1.861619999999999891e+03
1.410000000000000142e-01 1.480265000000000053e-01 2.488775000000000048e+01 1.604075000000000273e+02 1.861250000000000000e+03
1.420000000000000151e-01 1.479870000000000074e-01 2.412255000000000038e+01 1.593154999999999859e+02 1.860844999999999800e+03
1.430000000000000160e-01 1.479444999999999788e-01 2.333619999999999806e+01 1.581380000000000052e+02 1.860414999999999964e+03
1.440000000000000169e-01 1.478984999999999883e-01 2.252814999999999657e+01 1.568779999999999859e+02 1.859954999999999927e+03
1.450000000000000178e-01 1.478494999999999948e-01 2.169910000000000139e+01 1.555384999999999991e+02 1.859460000000000036e+03
1.459999999999999909e-01 1.477974999999999983e-01 2.085139999999999816e+01 1.541284999999999741e+02 1.858940000000000055e+03
1.469999999999999918e-01 1.477430000000000132e-01 1.998855000000000004e+01 1.526574999999999989e+02 1.858394999999999982e+03
1.479999999999999927e-01 1.476864999999999983e-01 1.911524999999999963e+01 1.511385000000000218e+02 1.857815000000000055e+03
1.489999999999999936e-01 1.476274999999999948e-01 1.823744999999999905e+01 1.495865000000000009e+02 1.857230000000000018e+03
1.499999999999999944e-01 1.475674999999999903e-01 1.736169999999999902e+01 1.480169999999999959e+02 1.856625000000000000e+03
1.509999999999999953e-01 1.475064999999999849e-01 1.649535000000000196e+01 1.464479999999999791e+02 1.856009999999999991e+03
1.519999999999999962e-01 1.474449999999999927e-01 1.564594999999999914e+01 1.448975000000000080e+02 1.855394999999999982e+03
1.529999999999999971e-01 1.473845000000000016e-01 1.482094999999999985e+01 1.433815000000000168e+02 1.854779999999999973e+03
1.539999999999999980e-01 1.473245000000000249e-01 1.402785000000000082e+01 1.419170000000000016e+02 1.854180000000000064e+03
1.549999999999999989e-01 1.472665000000000224e-01 1.327339999999999876e+01 1.405180000000000007e+02 1.853594999999999800e+03
1.559999999999999998e-01 1.472105000000000219e-01 1.256354999999999933e+01 1.391974999999999909e+02 1.853029999999999973e+03
1.570000000000000007e-01 1.471570000000000100e-01 1.190345500000000101e+01 1.379650000000000034e+02 1.852489999999999782e+03
1.580000000000000016e-01 1.471069999999999878e-01 1.129701999999999984e+01 1.368284999999999911e+02 1.851980000000000018e+03
1.590000000000000024e-01 1.470599999999999963e-01 1.074697000000000102e+01 1.357930000000000064e+02 1.851509999999999991e+03
