# t [s], A [cm^2], U [cm/s], P [cPa], c [cm/s]
1.000000000000000021e-03 1.429325000000000179e-01 3.829737000000000280e-01 9.181950000000000500e+01 2.030315000000000055e+03
2.000000000000000042e-03 1.428955000000000086e-01 1.924611500000000142e+00 8.844350000000000023e+01 2.029934999999999945e+03
3.000000000000000062e-03 1.427930000000000033e-01 3.786769500000000122e+00 8.394065000000000509e+01 2.028929999999999836e+03
4.000000000000000083e-03 1.426540000000000030e-01 5.865169999999999995e+00 7.921770000000000778e+01 2.027579999999999927e+03
5.000000000000000104e-03 1.425049999999999928e-01 8.085255000000000081e+00 7.512080000000000268e+01 2.026144999999999982e+03
6.000000000000000125e-03 1.423610000000000153e-01 1.025996999999999915e+01 7.182724999999999227e+01 2.024775000000000091e+03
7.000000000000000146e-03 1.422255000000000047e-01 1.218598500000000051e+01 6.901060000000001082e+01 2.023509999999999991e+03
8.000000000000000167e-03 1.421010000000000051e-01 1.380871000000000137e+01 6.645529999999999404e+01 2.022365000000000009e+03
9.000000000000001055e-03 1.419904999999999917e-01 1.517680000000000007e+01 6.423890000000000100e+01 2.021360000000000127e+03
1.000000000000000194e-02 1.418965000000000087e-01 1.632010000000000005e+01 6.242325000000000301e+01 2.020514999999999873e+03
1.099999999999999936e-02 1.418179999999999996e-01 1.724840000000000018e+01 6.096379999999999910e+01 2.019824999999999818e+03
1.200000000000000025e-02 1.417545000000000055e-01 1.797275000000000134e+01 5.979070000000000107e+01 2.019264999999999873e+03
1.300000000000000114e-02 1.417025000000000090e-01 1.849759999999999849e+01 5.881029999999999802e+01 2.018809999999999945e+03
1.400000000000000203e-02 1.416580000000000061e-01 1.883964999999999890e+01 5.793075000000000330e+01 2.018434999999999945e+03
1.499999999999999944e-02 1.416215000000000113e-01 1.907115000000000293e+01 5.718989999999999441e+01 2.018130000000000109e+03
1.600000000000000033e-02 1.415954999999999853e-01 1.932685000000000031e+01 5.683615000000000350e+01 2.017920000000000073e+03
1.700000000000000122e-02 1.415885000000000060e-01 1.974844999999999828e+01 5.722435000000000116e+01 2.017865000000000009e+03
1.800000000000000211e-02 1.416060000000000096e-01 2.040634999999999977e+01 5.858545000000000158e+01 2.018029999999999973e+03
1.900000000000000300e-02 1.416494999999999838e-01 2.125665000000000049e+01 6.084144999999999470e+01 2.018425000000000182e+03
2.000000000000000042e-02 1.417134999999999923e-01 2.215605000000000047e+01 6.358440000000000225e+01 2.018994999999999891e+03
2.100000000000000130e-02 1.417849999999999944e-01 2.292034999999999911e+01 6.621649999999999636e+01 2.019650000000000091e+03
2.200000000000000219e-02 1.418499999999999761e-01 2.339329999999999998e+01 6.816630000000000678e+01 2.020250000000000000e+03
2.299999999999999961e-02 1.418975000000000097e-01 2.349745000000000061e+01 6.907894999999999186e+01 2.020704999999999927e+03
2.400000000000000050e-02 1.419209999999999916e-01 2.325025000000000119e+01 6.890954999999999586e+01 2.020940000000000055e+03
2.500000000000000139e-02 1.419205000000000050e-01 2.274380000000000024e+01 6.789589999999999748e+01 2.020954999999999927e+03
2.600000000000000228e-02 1.419020000000000004e-01 2.210215000000000174e+01 6.643520000000000891e+01 2.020809999999999945e+03
2.700000000000000316e-02 1.418740000000000001e-01 2.143455000000000155e+01 6.492555000000000121e+01 2.020565000000000055e+03
2.800000000000000058e-02 1.418435000000000112e-01 2.080359999999999943e+01 6.363554999999999495e+01 2.020295000000000073e+03
2.900000000000000147e-02 1.418154999999999832e-01 2.021630000000000038e+01 6.264494999999999436e+01 2.020034999999999854e+03
3.000000000000000236e-02 1.417899999999999994e-01 1.963729999999999976e+01 6.186305000000000121e+01 2.019809999999999945e+03
3.099999999999999978e-02 1.417660000000000031e-01 1.901469999999999771e+01 6.110479999999999734e+01 2.019590000000000146e+03
3.200000000000000067e-02 1.417394999999999905e-01 1.830949999999999989e+01 6.018795000000000073e+01 2.019349999999999909e+03
3.300000000000000155e-02 1.417080000000000006e-01 1.751675000000000182e+01 5.901854999999999762e+01 2.019074999999999818e+03
3.400000000000000244e-02 1.416700000000000181e-01 1.667504999999999882e+01 5.763835000000000264e+01 2.018739999999999782e+03
3.500000000000000333e-02 1.416295000000000193e-01 1.586015000000000086e+01 5.622294999999999732e+01 2.018375000000000000e+03
3.600000000000000422e-02 1.415905000000000080e-01 1.516610000000000014e+01 5.503329999999999700e+01 2.018025000000000091e+03
3.700000000000000511e-02 1.415599999999999914e-01 1.467950000000000088e+01 5.433809999999999718e+01 2.017744999999999891e+03
3.799999999999999906e-02 1.415440000000000031e-01 1.445615000000000094e+01 5.433289999999999509e+01 2.017590000000000146e+03
3.899999999999999994e-02 1.415465000000000195e-01 1.450515000000000043e+01 5.508074999999999477e+01 2.017595000000000027e+03
4.000000000000000083e-02 1.415675000000000128e-01 1.478599999999999959e+01 5.649029999999999774e+01 2.017769999999999982e+03
4.100000000000000172e-02 1.416045000000000220e-01 1.521705000000000041e+01 5.833324999999999960e+01 2.018090000000000146e+03
4.200000000000000261e-02 1.416509999999999991e-01 1.569174999999999898e+01 6.029285000000000139e+01 2.018500000000000000e+03
4.300000000000000350e-02 1.416999999999999926e-01 1.609795000000000087e+01 6.202694999999999936e+01 2.018934999999999945e+03
4.400000000000000439e-02 1.417420000000000069e-01 1.633614999999999995e+01 6.322929999999999495e+01 2.019315000000000055e+03
4.499999999999999833e-02 1.417709999999999804e-01 1.633210000000000051e+01 6.367549999999999955e+01 2.019579999999999927e+03
4.599999999999999922e-02 1.417795000000000027e-01 1.604344999999999999e+01 6.324769999999999470e+01 2.019664999999999964e+03
4.700000000000000011e-02 1.417660000000000031e-01 1.545974999999999966e+01 6.193614999999999782e+01 2.019555000000000064e+03
4.800000000000000100e-02 1.417289999999999939e-01 1.459799999999999898e+01 5.982205000000000439e+01 2.019230000000000018e+03
4.900000000000000189e-02 1.416699999999999904e-01 1.349484999999999957e+01 5.704984999999999928e+01 2.018715000000000146e+03
5.000000000000000278e-02 1.415929999999999966e-01 1.219914999999999949e+01 5.379610000000000269e+01 2.018025000000000091e+03
5.100000000000000366e-02 1.415015000000000023e-01 1.076475499999999919e+01 5.024309999999999832e+01 2.017210000000000036e+03
5.200000000000000455e-02 1.414004999999999845e-01 9.246185000000000542e+00 4.656024999999999636e+01 2.016295000000000073e+03
5.300000000000000544e-02 1.412935000000000163e-01 7.696415000000000006e+00 4.289609999999999701e+01 2.015335000000000036e+03
5.399999999999999939e-02 1.411854999999999916e-01 6.166034999999999933e+00 3.937740000000000151e+01 2.014360000000000127e+03
5.500000000000000028e-02 1.410794999999999966e-01 4.704183500000000073e+00 3.611384999999999934e+01 2.013404999999999973e+03
5.600000000000000117e-02 1.409799999999999942e-01 3.358906450000000099e+00 3.320470000000000255e+01 2.012500000000000000e+03
5.700000000000000205e-02 1.408900000000000152e-01 2.177436999999999845e+00 3.074330000000000140e+01 2.011674999999999955e+03
5.800000000000000294e-02 1.408115000000000061e-01 1.205419999999999936e+00 2.881964999999999932e+01 2.010964999999999918e+03
5.900000000000000383e-02 1.407490000000000130e-01 4.852999999999999536e-01 2.751839999999999975e+01 2.010389999999999873e+03
6.000000000000000472e-02 1.407045000000000101e-01 5.400499999999996970e-02 2.691460000000000008e+01 2.009974999999999909e+03
6.099999999999999867e-02 1.406799999999999995e-01 -5.959449999999996694e-02 2.706680000000000064e+01 2.009734999999999900e+03
6.199999999999999956e-02 1.406779999999999975e-01 1.629859999999999920e-01 2.801084999999999781e+01 2.009704999999999927e+03
6.300000000000000044e-02 1.406994999999999774e-01 7.281790000000000207e-01 2.975440000000000040e+01 2.009875000000000000e+03
6.400000000000000133e-02 1.407450000000000090e-01 1.629616500000000023e+00 3.227429999999999666e+01 2.010264999999999873e+03
6.500000000000000222e-02 1.408139999999999947e-01 2.848440000000000083e+00 3.551695000000000135e+01 2.010860000000000127e+03
6.600000000000000311e-02 1.409044999999999881e-01 4.354524999999999757e+00 3.940125000000000455e+01 2.011659999999999854e+03
6.700000000000000400e-02 1.410144999999999871e-01 6.108480000000000132e+00 4.382439999999999714e+01 2.012639999999999873e+03
6.800000000000000488e-02 1.411425000000000041e-01 8.064085000000000392e+00 4.866884999999999906e+01 2.013775000000000091e+03
6.900000000000000577e-02 1.412829999999999919e-01 1.017100999999999900e+01 5.380980000000000274e+01 2.015039999999999964e+03
7.000000000000000666e-02 1.414349999999999774e-01 1.237736499999999928e+01 5.912259999999999849e+01 2.016404999999999973e+03
7.100000000000000755e-02 1.415929999999999966e-01 1.463255000000000017e+01 6.448950000000000671e+01 2.017835000000000036e+03
7.200000000000000844e-02 1.417555000000000065e-01 1.688935000000000031e+01 6.980539999999999168e+01 2.019305000000000064e+03
7.300000000000000933e-02 1.419175000000000020e-01 1.910620000000000118e+01 7.498304999999999154e+01 2.020784999999999854e+03
7.399999999999999634e-02 1.420780000000000098e-01 2.124859999999999971e+01 7.995584999999999809e+01 2.022244999999999891e+03
7.499999999999999722e-02 1.422339999999999993e-01 2.329074999999999918e+01 8.468059999999999832e+01 2.023674999999999955e+03
7.599999999999999811e-02 1.423840000000000106e-01 2.521574999999999989e+01 8.913774999999999693e+01 2.025050000000000182e+03
7.699999999999999900e-02 1.425275000000000014e-01 2.701595000000000013e+01 9.333070000000000732e+01 2.026375000000000000e+03
7.799999999999999989e-02 1.426649999999999863e-01 2.869214999999999804e+01 9.728245000000001141e+01 2.027639999999999873e+03
7.900000000000000078e-02 1.427954999999999919e-01 3.025244999999999962e+01 1.010331500000000062e+02 2.028849999999999909e+03
8.000000000000000167e-02 1.429205000000000059e-01 3.171085000000000065e+01 1.046330499999999972e+02 2.030014999999999873e+03
8.100000000000000255e-02 1.430425000000000169e-01 3.308474999999999966e+01 1.081380000000000052e+02 2.031139999999999873e+03
8.200000000000000344e-02 1.431609999999999827e-01 3.439365000000000094e+01 1.116045000000000016e+02 2.032240000000000009e+03
8.300000000000000433e-02 1.432775000000000021e-01 3.565654999999999575e+01 1.150825000000000102e+02 2.033329999999999927e+03
8.400000000000000522e-02 1.433949999999999947e-01 3.689055000000000462e+01 1.186119999999999948e+02 2.034414999999999964e+03
8.500000000000000611e-02 1.435135000000000161e-01 3.810930000000000462e+01 1.222224999999999966e+02 2.035519999999999982e+03
8.600000000000000699e-02 1.436334999999999973e-01 3.932209999999999894e+01 1.259265000000000043e+02 2.036630000000000109e+03
8.700000000000000788e-02 1.437559999999999949e-01 4.053320000000000078e+01 1.297224999999999966e+02 2.037769999999999982e+03
8.800000000000000877e-02 1.438800000000000079e-01 4.174184999999999945e+01 1.335955000000000155e+02 2.038925000000000182e+03
8.899999999999999578e-02 1.440065000000000095e-01 4.294250000000000256e+01 1.375165000000000077e+02 2.040099999999999909e+03
8.999999999999999667e-02 1.441339999999999844e-01 4.412505000000000166e+01 1.414465000000000146e+02 2.041284999999999854e+03
9.099999999999999756e-02 1.442614999999999870e-01 4.527615000000000123e+01 1.453400000000000034e+02 2.042464999999999918e+03
9.199999999999999845e-02 1.443880000000000163e-01 4.637964999999999804e+01 1.491454999999999984e+02 2.043640000000000100e+03
9.299999999999999933e-02 1.445110000000000006e-01 4.741795000000000471e+01 1.528109999999999786e+02 2.044794999999999845e+03
9.400000000000000022e-02 1.446299999999999808e-01 4.837300000000000466e+01 1.562849999999999966e+02 2.045909999999999854e+03
9.500000000000000111e-02 1.447439999999999838e-01 4.922719999999999629e+01 1.595199999999999818e+02 2.046970000000000255e+03
9.600000000000000200e-02 1.448499999999999788e-01 4.996450000000000102e+01 1.624739999999999895e+02 2.047974999999999909e+03
9.700000000000000289e-02 1.449489999999999945e-01 5.057110000000000127e+01 1.651129999999999995e+02 2.048894999999999982e+03
9.800000000000000377e-02 1.450374999999999859e-01 5.103640000000000043e+01 1.674114999999999895e+02 2.049730000000000018e+03
9.900000000000000466e-02 1.451164999999999816e-01 5.135320000000000107e+01 1.693545000000000016e+02 2.050480000000000018e+03
1.000000000000000056e-01 1.451844999999999941e-01 5.151845000000000141e+01 1.709365000000000236e+02 2.051125000000000000e+03
1.010000000000000064e-01 1.452419999999999822e-01 5.153305000000000291e+01 1.721620000000000061e+02 2.051670000000000073e+03
1.020000000000000073e-01 1.452884999999999871e-01 5.140214999999999890e+01 1.730475000000000136e+02 2.052114999999999782e+03
1.030000000000000082e-01 1.453240000000000087e-01 5.113455000000000439e+01 1.736150000000000091e+02 2.052460000000000036e+03
1.040000000000000091e-01 1.453504999999999936e-01 5.074269999999999925e+01 1.738980000000000246e+02 2.052719999999999800e+03
1.050000000000000100e-01 1.453675000000000106e-01 5.024174999999999613e+01 1.739314999999999998e+02 2.052889999999999873e+03
1.059999999999999970e-01 1.453765000000000196e-01 4.964894999999999925e+01 1.737590000000000146e+02 2.052985000000000127e+03
1.069999999999999979e-01 1.453789999999999805e-01 4.898284999999999911e+01 1.734225000000000136e+02 2.053014999999999873e+03
1.079999999999999988e-01 1.453754999999999908e-01 4.826255000000000450e+01 1.729660000000000082e+02 2.052989999999999782e+03
1.089999999999999997e-01 1.453674999999999828e-01 4.750679999999999836e+01 1.724304999999999950e+02 2.052929999999999836e+03
1.100000000000000006e-01 1.453564999999999996e-01 4.673329999999999984e+01 1.718549999999999898e+02 2.052824999999999818e+03
1.110000000000000014e-01 1.453435000000000143e-01 4.595799999999999841e+01 1.712719999999999914e+02 2.052710000000000036e+03
1.120000000000000023e-01 1.453295000000000003e-01 4.519450000000000500e+01 1.707079999999999984e+02 2.052585000000000036e+03
1.130000000000000032e-01 1.453149999999999997e-01 4.445380000000000109e+01 1.701845000000000141e+02 2.052449999999999818e+03
1.140000000000000041e-01 1.453010000000000135e-01 4.374385000000000190e+01 1.697139999999999986e+02 2.052320000000000164e+03
1.150000000000000050e-01 1.452880000000000005e-01 4.306950000000000500e+01 1.693015000000000043e+02 2.052195000000000164e+03
1.160000000000000059e-01 1.452759999999999885e-01 4.243240000000000123e+01 1.689465000000000146e+02 2.052085000000000036e+03
1.170000000000000068e-01 1.452654999999999919e-01 4.183140000000000214e+01 1.686409999999999911e+02 2.051980000000000018e+03
1.180000000000000077e-01 1.452559999999999962e-01 4.126245000000000118e+01 1.683709999999999809e+02 2.051889999999999873e+03
1.190000000000000085e-01 1.452470000000000150e-01 4.071940000000000026e+01 1.681189999999999998e+02 2.051800000000000182e+03
1.200000000000000094e-01 1.452379999999999782e-01 4.019420000000000215e+01 1.678629999999999995e+02 2.051715000000000146e+03
1.209999999999999964e-01 1.452289999999999970e-01 3.967754999999999654e+01 1.675799999999999841e+02 2.051630000000000109e+03
1.219999999999999973e-01 1.452189999999999870e-01 3.915940000000000509e+01 1.672450000000000045e+02 2.051534999999999854e+03
1.229999999999999982e-01 1.452080000000000037e-01 3.862964999999999804e+01 1.668349999999999795e+02 2.051430000000000291e+03
1.239999999999999991e-01 1.451939999999999897e-01 3.807869999999999777e+01 1.663290000000000077e+02 2.051295000000000073e+03
1.250000000000000000e-01 1.451775000000000149e-01 3.749810000000000088e+01 1.657079999999999984e+02 2.051144999999999982e+03
1.260000000000000009e-01 1.451580000000000092e-01 3.688080000000000069e+01 1.649585000000000150e+02 2.050960000000000036e+03
1.270000000000000018e-01 1.451344999999999996e-01 3.622164999999999679e+01 1.640724999999999909e+02 2.050739999999999782e+03
1.280000000000000027e-01 1.451064999999999994e-01 3.551794999999999902e+01 1.630459999999999923e+02 2.050480000000000018e+03
1.290000000000000036e-01 1.450750000000000095e-01 3.476930000000000121e+01 1.618824999999999932e+02 2.050184999999999945e+03
1.300000000000000044e-01 1.450390000000000013e-01 3.397765000000000413e+01 1.605919999999999845e+02 2.049855000000000018e+03
1.310000000000000053e-01 1.449995000000000034e-01 3.314775000000000205e+01 1.591885000000000048e+02 2.049490000000000236e+03
1.320000000000000062e-01 1.449564999999999881e-01 3.228634999999999877e+01 1.576920000000000073e+02 2.049090000000000146e+03
1.330000000000000071e-01 1.449104999999999976e-01 3.140225000000000222e+01 1.561270000000000095e+02 2.048664999999999964e+03
1.340000000000000080e-01 1.448625000000000052e-01 3.050574999999999903e+01 1.545204999999999984e+02 2.048220000000000255e+03
1.350000000000000089e-01 1.448129999999999973e-01 2.960845000000000127e+01 1.529025000000000034e+02 2.047759999999999991e+03
1.360000000000000098e-01 1.447629999999999750e-01 2.872229999999999706e+01 1.513034999999999854e+02 2.047295000000000073e+03
1.370000000000000107e-01 1.447129999999999805e-01 2.785950000000000060e+01 1.497520000000000095e+02 2.046824999999999818e+03
1.380000000000000115e-01 1.446645000000000014e-01 2.703164999999999907e+01 1.482764999999999986e+02 2.046375000000000000e+03
1.390000000000000124e-01 1.446179999999999966e-01 2.624945000000000306e+01 1.469014999999999986e+02 2.045940000000000055e+03
1.400000000000000133e-01 1.445734999999999937e-01 2.552210000000000178e+01 1.456479999999999961e+02 2.045530000000000200e+03
1.410000000000000142e-01 1.445329999999999948e-01 2.485709999999999908e+01 1.445314999999999941e+02 2.045150000000000091e+03
1.420000000000000151e-01 1.444964999999999999e-01 2.426004999999999967e+01 1.435635000000000048e+02 2.044799999999999955e+03
1.430000000000000160e-01 1.444639999999999813e-01 2.373424999999999940e+01 1.427495000000000118e+02 2.044494999999999891e+03
1.440000000000000169e-01 1.444354999999999944e-01 2.328099999999999881e+01 1.420894999999999868e+02 2.044230000000000018e+03
1.450000000000000178e-01 1.444119999999999848e-01 2.289939999999999998e+01 1.415810000000000173e+02 2.044000000000000000e+03
1.459999999999999909e-01 1.443929999999999936e-01 2.258680000000000021e+01 1.412139999999999986e+02 2.043820000000000164e+03
1.469999999999999918e-01 1.443784999999999930e-01 2.233874999999999744e+01 1.409770000000000039e+02 2.043680000000000064e+03
1.479999999999999927e-01 1.443675000000000097e-01 2.214945000000000164e+01 1.408555000000000064e+02 2.043569999999999936e+03
1.489999999999999936e-01 1.443605000000000027e-01 2.201200000000000045e+01 1.408324999999999818e+02 2.043500000000000000e+03
1.499999999999999944e-01 1.443564999999999987e-01 2.191890000000000072e+01 1.408905000000000030e+02 2.043460000000000036e+03
1.509999999999999953e-01 1.443550000000000111e-01 2.186220000000000141e+01 1.410115000000000123e+02 2.043440000000000055e+03
1.519999999999999962e-01 1.443559999999999843e-01 2.183380000000000010e+01 1.411779999999999973e+02 2.043445000000000164e+03
1.529999999999999971e-01 1.443585000000000007e-01 2.182590000000000074e+01 1.413739999999999952e+02 2.043465000000000146e+03
1.539999999999999980e-01 1.443625000000000047e-01 2.183115000000000094e+01 1.415840000000000032e+02 2.043500000000000000e+03
1.549999999999999989e-01 1.443669999999999953e-01 2.184299999999999997e+01 1.417950000000000159e+02 2.043539999999999964e+03
1.559999999999999998e-01 1.443720000000000003e-01 2.185539999999999949e+01 1.419964999999999975e+02 2.043579999999999927e+03
1.570000000000000007e-01 1.443770000000000053e-01 2.186359999999999815e+01 1.421800000000000068e+02 2.043625000000000000e+03
1.580000000000000016e-01 1.443810000000000093e-01 2.186380000000000123e+01 1.423389999999999986e+02 2.043670000000000073e+03
1.590000000000000024e-01 1.443855000000000000e-01 2.185310000000000130e+01 1.424705000000000155e+02 2.043704999999999927e+03
