# t [s], A [cm^2], U [cm/s], P [cPa], c [cm/s]
1.000000000000000021e-03 5.381004999999999816e-01 3.961350000000002369e-03 9.667160000000001219e+01 1.612724999999999909e+03
2.000000000000000042e-03 5.380944999999999201e-01 2.928084999999999976e-03 9.664785000000000537e+01 1.612720000000000027e+03
3.000000000000000062e-03 5.381475000000000009e-01 1.158081499999999986e-01 9.676765000000000327e+01 1.612740000000000009e+03
4.000000000000000083e-03 5.381835000000000369e-01 2.022970000000000046e-01 9.687510000000000332e+01 1.612769999999999982e+03
5.000000000000000104e-03 5.381519999999999637e-01 1.547979000000000160e-01 9.678309999999999036e+01 1.612750000000000000e+03
6.000000000000000125e-03 5.380940000000000722e-01 4.689850000000000962e-02 9.653524999999999068e+01 1.612700000000000045e+03
7.000000000000000146e-03 5.380380000000000162e-01 -6.879049999999997667e-02 9.620574999999999477e+01 1.612634999999999991e+03
8.000000000000000167e-03 5.379414999999999614e-01 -2.805149999999999588e-01 9.569655000000000200e+01 1.612529999999999973e+03
9.000000000000001055e-03 5.377865000000000562e-01 -6.305899999999998728e-01 9.492074999999999818e+01 1.612369999999999891e+03
1.000000000000000194e-02 5.375674999999999759e-01 -1.119830000000000103e+00 9.383320000000000505e+01 1.612139999999999873e+03
1.099999999999999936e-02 5.372699999999999143e-01 -1.767425000000000024e+00 9.236750000000000682e+01 1.611825000000000045e+03
1.200000000000000025e-02 5.368910000000000071e-01 -2.558625000000000149e+00 9.049465000000000714e+01 1.611420000000000073e+03
1.300000000000000114e-02 5.364664999999999573e-01 -3.388565000000000271e+00 8.831180000000000518e+01 1.610929999999999836e+03
1.400000000000000203e-02 5.360589999999999522e-01 -4.091870000000000118e+00 8.603509999999999991e+01 1.610400000000000091e+03
1.499999999999999944e-02 5.357190000000000563e-01 -4.523820500000000244e+00 8.390215000000000600e+01 1.609880000000000109e+03
1.600000000000000033e-02 5.354649999999999688e-01 -4.619757499999999517e+00 8.207275000000001342e+01 1.609409999999999854e+03
1.700000000000000122e-02 5.352799999999999780e-01 -4.404770000000000074e+00 8.058324999999999250e+01 1.608990000000000009e+03
1.800000000000000211e-02 5.351280000000000481e-01 -3.966619999999999813e+00 7.935824999999999818e+01 1.608625000000000000e+03
1.900000000000000300e-02 5.349679999999999991e-01 -3.413991499999999846e+00 7.825735000000000241e+01 1.608280000000000200e+03
2.000000000000000042e-02 5.347690000000000499e-01 -2.836618000000000084e+00 7.713569999999999993e+01 1.607940000000000055e+03
2.100000000000000130e-02 5.345219999999999416e-01 -2.279438999999999993e+00 7.589480000000000359e+01 1.607579999999999927e+03
2.200000000000000219e-02 5.342365000000000030e-01 -1.738874999999999948e+00 7.450759999999999650e+01 1.607194999999999936e+03
2.299999999999999961e-02 5.339324999999999211e-01 -1.180655000000000010e+00 7.301009999999999422e+01 1.606784999999999854e+03
2.400000000000000050e-02 5.336290000000000200e-01 -5.687850000000000961e-01 7.146684999999999377e+01 1.606359999999999900e+03
2.500000000000000139e-02 5.333364999999999911e-01 1.085999999999995858e-01 6.993049999999999500e+01 1.605934999999999945e+03
2.600000000000000228e-02 5.330500000000000238e-01 8.259699999999998710e-01 6.841194999999999027e+01 1.605509999999999991e+03
2.700000000000000316e-02 5.327505000000000157e-01 1.521914999999999907e+00 6.686820000000000164e+01 1.605085000000000036e+03
2.800000000000000058e-02 5.324124999999999552e-01 2.112535000000000274e+00 6.521134999999999593e+01 1.604630000000000109e+03
2.900000000000000147e-02 5.320110000000000117e-01 2.511565000000000492e+00 6.333110000000000639e+01 1.604130000000000109e+03
3.000000000000000236e-02 5.315265000000000128e-01 2.651819999999999844e+00 6.112659999999999627e+01 1.603565000000000055e+03
3.099999999999999978e-02 5.309540000000000370e-01 2.502449999999999619e+00 5.853764999999999930e+01 1.602920000000000073e+03
3.200000000000000067e-02 5.303044999999999565e-01 2.077230000000000576e+00 5.556669999999999732e+01 1.602195000000000164e+03
3.300000000000000155e-02 5.296035000000000048e-01 1.431820000000000093e+00 5.228600000000000136e+01 1.601400000000000091e+03
3.400000000000000244e-02 5.288855000000000084e-01 6.513850000000003249e-01 4.882755000000000223e+01 1.600559999999999945e+03
3.500000000000000333e-02 5.281890000000000196e-01 -1.665399999999994662e-01 4.536114999999999498e+01 1.599700000000000045e+03
3.600000000000000422e-02 5.275480000000000169e-01 -9.286799999999999500e-01 4.206775000000000375e+01 1.598875000000000000e+03
3.700000000000000511e-02 5.269920000000000160e-01 -1.558075000000000099e+00 3.911459999999999582e+01 1.598109999999999900e+03
3.799999999999999906e-02 5.265404999999999669e-01 -2.000054999999999694e+00 3.663719999999999999e+01 1.597440000000000055e+03
3.899999999999999994e-02 5.262034999999999352e-01 -2.222595000000000098e+00 3.473020000000000351e+01 1.596904999999999973e+03
4.000000000000000083e-02 5.259859999999999536e-01 -2.212559999999999860e+00 3.344579999999999842e+01 1.596500000000000000e+03
4.100000000000000172e-02 5.258855000000000057e-01 -1.969748500000000124e+00 3.279930000000000234e+01 1.596244999999999891e+03
4.200000000000000261e-02 5.258979999999999766e-01 -1.500655000000000072e+00 3.277854999999999563e+01 1.596144999999999982e+03
4.300000000000000350e-02 5.260169999999999568e-01 -8.136200000000000099e-01 3.335379999999999967e+01 1.596194999999999936e+03
4.400000000000000439e-02 5.262360000000000371e-01 8.377499999999993285e-02 3.448629999999999995e+01 1.596384999999999991e+03
4.499999999999999833e-02 5.265490000000000448e-01 1.184820000000000206e+00 3.613425000000000153e+01 1.596704999999999927e+03
4.599999999999999922e-02 5.269500000000000295e-01 2.481830000000000425e+00 3.825430000000000064e+01 1.597154999999999973e+03
4.700000000000000011e-02 5.274294999999999956e-01 3.963494999999999990e+00 4.080105000000000359e+01 1.597715000000000146e+03
4.800000000000000100e-02 5.279804999999999637e-01 5.612435000000000507e+00 4.372475000000000023e+01 1.598380000000000109e+03
4.900000000000000189e-02 5.285904999999999632e-01 7.403981499999999549e+00 4.696934999999999860e+01 1.599130000000000109e+03
5.000000000000000278e-02 5.292474999999999818e-01 9.306314499999999157e+00 5.047175000000000011e+01 1.599954999999999927e+03
5.100000000000000366e-02 5.299359999999999626e-01 1.128218500000000013e+01 5.416325000000000500e+01 1.600835000000000036e+03
5.200000000000000455e-02 5.306429999999999758e-01 1.329151500000000041e+01 5.797164999999999679e+01 1.601764999999999873e+03
5.300000000000000544e-02 5.313550000000000217e-01 1.529459999999999908e+01 6.182600000000000051e+01 1.602715000000000146e+03
5.399999999999999939e-02 5.320584999999999898e-01 1.725499500000000097e+01 6.566030000000000655e+01 1.603675000000000182e+03
5.500000000000000028e-02 5.327450000000000241e-01 1.914184999999999803e+01 6.941819999999999879e+01 1.604634999999999991e+03
5.600000000000000117e-02 5.334075000000000344e-01 2.093155000000000143e+01 7.305589999999999407e+01 1.605574999999999818e+03
5.700000000000000205e-02 5.340415000000000578e-01 2.260835000000000150e+01 7.654394999999999527e+01 1.606485000000000127e+03
5.800000000000000294e-02 5.346465000000000245e-01 2.416409999999999769e+01 7.986789999999999168e+01 1.607365000000000009e+03
5.900000000000000383e-02 5.352244999999999919e-01 2.559765000000000157e+01 8.302729999999999677e+01 1.608210000000000036e+03
6.000000000000000472e-02 5.357784999999999354e-01 2.691355000000000075e+01 8.603414999999999679e+01 1.609025000000000091e+03
6.099999999999999867e-02 5.363120000000000109e-01 2.812089999999999890e+01 8.890989999999999327e+01 1.609809999999999945e+03
6.199999999999999956e-02 5.368319999999999759e-01 2.923194999999999766e+01 9.168309999999999604e+01 1.610565000000000055e+03
6.300000000000000044e-02 5.373440000000000438e-01 3.026089999999999947e+01 9.438624999999998977e+01 1.611304999999999836e+03
6.400000000000000133e-02 5.378545000000000131e-01 3.122279999999999944e+01 9.705344999999999800e+01 1.612034999999999854e+03
6.500000000000000222e-02 5.383685000000000276e-01 3.213224999999999909e+01 9.971665000000000134e+01 1.612760000000000218e+03
6.600000000000000311e-02 5.388910000000000089e-01 3.300254999999999939e+01 1.024036000000000115e+02 1.613485000000000127e+03
6.700000000000000400e-02 5.394255000000000022e-01 3.384454999999999814e+01 1.051372000000000071e+02 1.614220000000000027e+03
6.800000000000000488e-02 5.399730000000000363e-01 3.466615000000000180e+01 1.079309999999999974e+02 1.614974999999999909e+03
6.900000000000000577e-02 5.405349999999999877e-01 3.547119999999999607e+01 1.107905000000000086e+02 1.615735000000000127e+03
7.000000000000000666e-02 5.411080000000000334e-01 3.625969999999999516e+01 1.137104999999999961e+02 1.616509999999999991e+03
7.100000000000000755e-02 5.416894999999999349e-01 3.702769999999999584e+01 1.166769999999999925e+02 1.617299999999999955e+03
7.200000000000000844e-02 5.422744999999999926e-01 3.776765000000000327e+01 1.196680000000000064e+02 1.618094999999999800e+03
7.300000000000000933e-02 5.428564999999999641e-01 3.846914999999999907e+01 1.226539999999999964e+02 1.618889999999999873e+03
7.399999999999999634e-02 5.434284999999999810e-01 3.912004999999999910e+01 1.256004999999999967e+02 1.619679999999999836e+03
7.499999999999999722e-02 5.439849999999999408e-01 3.970714999999999861e+01 1.284710000000000036e+02 1.620454999999999927e+03
7.599999999999999811e-02 5.445170000000000288e-01 4.021724999999999994e+01 1.312280000000000086e+02 1.621204999999999927e+03
7.699999999999999900e-02 5.450200000000000600e-01 4.063830000000000098e+01 1.338369999999999891e+02 1.621920000000000073e+03
7.799999999999999989e-02 5.454864999999999853e-01 4.095959999999999468e+01 1.362665000000000077e+02 1.622590000000000146e+03
7.900000000000000078e-02 5.459140000000000104e-01 4.117295000000000016e+01 1.384900000000000091e+02 1.623220000000000027e+03
8.000000000000000167e-02 5.462985000000000202e-01 4.127264999999999873e+01 1.404889999999999759e+02 1.623789999999999964e+03
8.100000000000000255e-02 5.466374999999999984e-01 4.125605000000000189e+01 1.422504999999999882e+02 1.624299999999999955e+03
8.200000000000000344e-02 5.469319999999999737e-01 4.112330000000000041e+01 1.437690000000000055e+02 1.624755000000000109e+03
8.300000000000000433e-02 5.471810000000000285e-01 4.087785000000000224e+01 1.450470000000000255e+02 1.625144999999999982e+03
8.400000000000000522e-02 5.473874999999999158e-01 4.052570000000000050e+01 1.460925000000000011e+02 1.625474999999999909e+03
8.500000000000000611e-02 5.475539999999999852e-01 4.007560000000000144e+01 1.469194999999999993e+02 1.625750000000000000e+03
8.600000000000000699e-02 5.476839999999999486e-01 3.953865000000000407e+01 1.475484999999999900e+02 1.625965000000000146e+03
8.700000000000000788e-02 5.477830000000000199e-01 3.892764999999999986e+01 1.480029999999999859e+02 1.626134999999999991e+03
8.800000000000000877e-02 5.478555000000000508e-01 3.825665000000000049e+01 1.483095000000000141e+02 1.626269999999999982e+03
8.899999999999999578e-02 5.479065000000000740e-01 3.754070000000000107e+01 1.484965000000000259e+02 1.626360000000000127e+03
8.999999999999999667e-02 5.479414999999999702e-01 3.679475000000000051e+01 1.485925000000000011e+02 1.626424999999999955e+03
9.099999999999999756e-02 5.479654999999999943e-01 3.603345000000000198e+01 1.486264999999999930e+02 1.626465000000000146e+03
9.199999999999999845e-02 5.479840000000000266e-01 3.527029999999999887e+01 1.486225000000000023e+02 1.626494999999999891e+03
9.299999999999999933e-02 5.479994999999999727e-01 3.451709999999999923e+01 1.486045000000000016e+02 1.626509999999999991e+03
9.400000000000000022e-02 5.480160000000000586e-01 3.378379999999999939e+01 1.485910000000000082e+02 1.626519999999999982e+03
9.500000000000000111e-02 5.480355000000000087e-01 3.307775000000000176e+01 1.485964999999999918e+02 1.626539999999999964e+03
9.600000000000000200e-02 5.480599999999999916e-01 3.240375000000000227e+01 1.486299999999999955e+02 1.626554999999999836e+03
9.700000000000000289e-02 5.480889999999999374e-01 3.176395000000000124e+01 1.486949999999999932e+02 1.626570000000000164e+03
9.800000000000000377e-02 5.481219999999999981e-01 3.115804999999999936e+01 1.487909999999999968e+02 1.626599999999999909e+03
9.900000000000000466e-02 5.481584999999999930e-01 3.058319999999999794e+01 1.489114999999999895e+02 1.626625000000000000e+03
1.000000000000000056e-01 5.481954999999999467e-01 3.003460000000000107e+01 1.490475000000000136e+02 1.626659999999999854e+03
1.010000000000000064e-01 5.482309999999999128e-01 2.950600000000000023e+01 1.491854999999999905e+02 1.626695000000000164e+03
1.020000000000000073e-01 5.482620000000000271e-01 2.898990000000000222e+01 1.493110000000000070e+02 1.626724999999999909e+03
1.030000000000000082e-01 5.482850000000000223e-01 2.847804999999999964e+01 1.494074999999999989e+02 1.626750000000000000e+03
1.040000000000000091e-01 5.482979999999999521e-01 2.796235000000000070e+01 1.494594999999999914e+02 1.626764999999999873e+03
1.050000000000000100e-01 5.482974999999999932e-01 2.743469999999999942e+01 1.494504999999999768e+02 1.626764999999999873e+03
1.059999999999999970e-01 5.482815000000000882e-01 2.688804999999999978e+01 1.493679999999999950e+02 1.626750000000000000e+03
1.069999999999999979e-01 5.482479999999999576e-01 2.631634999999999991e+01 1.491995000000000005e+02 1.626710000000000036e+03
1.079999999999999988e-01 5.481960000000000166e-01 2.571515000000000128e+01 1.489375000000000000e+02 1.626654999999999973e+03
1.089999999999999997e-01 5.481240000000000556e-01 2.508180000000000121e+01 1.485765000000000100e+02 1.626575000000000045e+03
1.100000000000000006e-01 5.480340000000000211e-01 2.441539999999999822e+01 1.481175000000000068e+02 1.626470000000000027e+03
1.110000000000000014e-01 5.479254999999999542e-01 2.371730000000000160e+01 1.475625000000000000e+02 1.626340000000000146e+03
1.120000000000000023e-01 5.478009999999999824e-01 2.299060000000000059e+01 1.469194999999999993e+02 1.626184999999999945e+03
1.130000000000000032e-01 5.476625000000000520e-01 2.224040000000000106e+01 1.461995000000000005e+02 1.626009999999999991e+03
1.140000000000000041e-01 5.475130000000000274e-01 2.147350000000000136e+01 1.454159999999999968e+02 1.625819999999999936e+03
1.150000000000000050e-01 5.473554999999999948e-01 2.069800000000000040e+01 1.445865000000000009e+02 1.625615000000000009e+03
1.160000000000000059e-01 5.471939999999999582e-01 1.992304999999999993e+01 1.437289999999999850e+02 1.625404999999999973e+03
1.170000000000000068e-01 5.470325000000000326e-01 1.915844999999999843e+01 1.428634999999999877e+02 1.625184999999999945e+03
1.180000000000000077e-01 5.468739999999999712e-01 1.841414999999999935e+01 1.420110000000000241e+02 1.624960000000000036e+03
1.190000000000000085e-01 5.467234999999999179e-01 1.770004999999999740e+01 1.411895000000000095e+02 1.624750000000000000e+03
1.200000000000000094e-01 5.465824999999999712e-01 1.702519999999999811e+01 1.404184999999999945e+02 1.624545000000000073e+03
1.209999999999999964e-01 5.464554999999999829e-01 1.639789999999999992e+01 1.397144999999999868e+02 1.624355000000000018e+03
1.219999999999999973e-01 5.463439999999999408e-01 1.582484999999999786e+01 1.390894999999999868e+02 1.624180000000000064e+03
1.229999999999999982e-01 5.462500000000000133e-01 1.531135000000000090e+01 1.385554999999999950e+02 1.624025000000000091e+03
1.239999999999999991e-01 5.461739999999999373e-01 1.486074999999999946e+01 1.381175000000000068e+02 1.623894999999999982e+03
1.250000000000000000e-01 5.461175000000000335e-01 1.447470000000000034e+01 1.377800000000000011e+02 1.623789999999999964e+03
1.260000000000000009e-01 5.460785000000000222e-01 1.415295000000000059e+01 1.375414999999999850e+02 1.623704999999999927e+03
1.270000000000000018e-01 5.460570000000000146e-01 1.389349999999999952e+01 1.373990000000000009e+02 1.623650000000000091e+03
1.280000000000000027e-01 5.460515000000000230e-01 1.369269999999999854e+01 1.373444999999999823e+02 1.623615000000000009e+03
1.290000000000000036e-01 5.460599999999999898e-01 1.354574999999999996e+01 1.373689999999999998e+02 1.623599999999999909e+03
1.300000000000000044e-01 5.460800000000000098e-01 1.344655000000000022e+01 1.374615000000000009e+02 1.623599999999999909e+03
1.310000000000000053e-01 5.461095000000000255e-01 1.338860000000000028e+01 1.376094999999999970e+02 1.623619999999999891e+03
1.320000000000000062e-01 5.461454999999999504e-01 1.336454999999999949e+01 1.377989999999999782e+02 1.623654999999999973e+03
1.330000000000000071e-01 5.461854999999999905e-01 1.336730000000000018e+01 1.380174999999999841e+02 1.623694999999999936e+03
1.340000000000000080e-01 5.462285000000000057e-01 1.338969999999999949e+01 1.382524999999999977e+02 1.623744999999999891e+03
1.350000000000000089e-01 5.462715000000000209e-01 1.342500000000000071e+01 1.384920000000000186e+02 1.623795000000000073e+03
1.360000000000000098e-01 5.463120000000000198e-01 1.346715000000000018e+01 1.387274999999999920e+02 1.623849999999999909e+03
1.370000000000000107e-01 5.463510000000000311e-01 1.351079999999999970e+01 1.389490000000000123e+02 1.623900000000000091e+03
1.380000000000000115e-01 5.463850000000000096e-01 1.355134999999999934e+01 1.391510000000000105e+02 1.623950000000000045e+03
1.390000000000000124e-01 5.464149999999999840e-01 1.358525000000000027e+01 1.393300000000000125e+02 1.623990000000000009e+03
1.400000000000000133e-01 5.464400000000000368e-01 1.360975000000000001e+01 1.394809999999999945e+02 1.624029999999999973e+03
1.410000000000000142e-01 5.464594999999999869e-01 1.362304999999999922e+01 1.396059999999999945e+02 1.624065000000000055e+03
1.420000000000000151e-01 5.464744999999999742e-01 1.362429999999999986e+01 1.397044999999999959e+02 1.624090000000000146e+03
1.430000000000000160e-01 5.464860000000000273e-01 1.361329999999999885e+01 1.397785000000000082e+02 1.624115000000000009e+03
1.440000000000000169e-01 5.464934999999999654e-01 1.359060000000000024e+01 1.398315000000000055e+02 1.624130000000000109e+03
1.450000000000000178e-01 5.464980000000000393e-01 1.355729999999999968e+01 1.398669999999999902e+02 1.624144999999999982e+03
1.459999999999999909e-01 5.465014999999999734e-01 1.351494999999999891e+01 1.398910000000000196e+02 1.624155000000000200e+03
1.469999999999999918e-01 5.465035000000000309e-01 1.346560000000000024e+01 1.399069999999999823e+02 1.624159999999999854e+03
1.479999999999999927e-01 5.465054999999999774e-01 1.341125000000000078e+01 1.399205000000000041e+02 1.624170000000000073e+03
1.489999999999999936e-01 5.465084999999999527e-01 1.335419999999999874e+01 1.399354999999999905e+02 1.624179999999999836e+03
1.499999999999999944e-01 5.465130000000000265e-01 1.329664999999999964e+01 1.399569999999999936e+02 1.624184999999999945e+03
1.509999999999999953e-01 5.465200000000000058e-01 1.324060000000000059e+01 1.399889999999999759e+02 1.624190000000000055e+03
1.519999999999999962e-01 5.465299999999999603e-01 1.318789999999999907e+01 1.400335000000000036e+02 1.624204999999999927e+03
1.529999999999999971e-01 5.465424999999999311e-01 1.314004999999999868e+01 1.400925000000000011e+02 1.624220000000000027e+03
1.539999999999999980e-01 5.465590000000000170e-01 1.309805000000000064e+01 1.401680000000000064e+02 1.624244999999999891e+03
1.549999999999999989e-01 5.465780000000000083e-01 1.306269999999999953e+01 1.402599999999999909e+02 1.624264999999999873e+03
1.559999999999999998e-01 5.465999999999999748e-01 1.303425000000000011e+01 1.403684999999999832e+02 1.624295000000000073e+03
1.570000000000000007e-01 5.466254999999999864e-01 1.301255000000000095e+01 1.404904999999999973e+02 1.624319999999999936e+03
1.580000000000000016e-01 5.466520000000000268e-01 1.299719999999999942e+01 1.406259999999999764e+02 1.624355000000000018e+03
1.590000000000000024e-01 5.466809999999999725e-01 1.298744999999999905e+01 1.407710000000000150e+02 1.624389999999999873e+03
