# t [s], A [cm^2], U [cm/s], P [cPa], c [cm/s]
1.000000000000000021e-03 8.137010000000000076e-01 5.942500000000003335e-03 1.012300000000000040e+02 1.663985000000000127e+03
2.000000000000000042e-03 8.136889999999999956e-01 2.516299999999999960e-03 1.011965000000000003e+02 1.663980000000000018e+03
3.000000000000000062e-03 8.137834999999999930e-01 1.432775500000000035e-01 1.013499999999999943e+02 1.664014999999999873e+03
4.000000000000000083e-03 8.138270000000000781e-01 2.321139999999999870e-01 1.014474999999999909e+02 1.664034999999999854e+03
5.000000000000000104e-03 8.137385000000000312e-01 1.414239999999999942e-01 1.012530000000000001e+02 1.663994999999999891e+03
6.000000000000000125e-03 8.136255000000000015e-01 5.315499999999973024e-03 1.008934999999999889e+02 1.663914999999999964e+03
7.000000000000000146e-03 8.135049999999999226e-01 -1.571200000000000374e-01 1.004268500000000017e+02 1.663809999999999945e+03
8.000000000000000167e-03 8.132840000000000069e-01 -4.862350000000000838e-01 9.967515000000000214e+01 1.663650000000000091e+03
9.000000000000001055e-03 8.129619999999999624e-01 -9.837299999999999933e-01 9.857840000000000202e+01 1.663410000000000082e+03
1.000000000000000194e-02 8.125320000000000320e-01 -1.642924999999999969e+00 9.709399999999999409e+01 1.663079999999999927e+03
1.099999999999999936e-02 8.119514999999999372e-01 -2.501434999999999853e+00 9.511920000000000641e+01 1.662635000000000218e+03
1.200000000000000025e-02 8.112379999999999036e-01 -3.504195000000000171e+00 9.265954999999999586e+01 1.662075000000000045e+03
1.300000000000000114e-02 8.105084999999999651e-01 -4.441292999999999935e+00 8.995824999999999250e+01 1.661434999999999945e+03
1.400000000000000203e-02 8.099045000000000272e-01 -5.057611650000000125e+00 8.739690000000000225e+01 1.660800000000000182e+03
1.499999999999999944e-02 8.094995000000000385e-01 -5.198170000000000179e+00 8.528440000000000509e+01 1.660240000000000009e+03
1.600000000000000033e-02 8.092729999999999091e-01 -4.867164999999999964e+00 8.372280000000000655e+01 1.659784999999999854e+03
1.700000000000000122e-02 8.091340000000000199e-01 -4.199360000000000426e+00 8.259579999999999700e+01 1.659424999999999955e+03
1.800000000000000211e-02 8.089709999999999956e-01 -3.387950000000000017e+00 8.164589999999999748e+01 1.659099999999999909e+03
1.900000000000000300e-02 8.086969999999999992e-01 -2.604162999999999784e+00 8.059264999999999191e+01 1.658764999999999873e+03
2.000000000000000042e-02 8.082804999999999573e-01 -1.935709999999999820e+00 7.924660000000000082e+01 1.658375000000000000e+03
2.100000000000000130e-02 8.077509999999999968e-01 -1.369054999999999911e+00 7.757205000000000439e+01 1.657920000000000073e+03
2.200000000000000219e-02 8.071755000000000457e-01 -8.227899999999999103e-01 7.567064999999999486e+01 1.657409999999999854e+03
2.299999999999999961e-02 8.066180000000000572e-01 -2.091650000000000453e-01 7.370449999999999591e+01 1.656880000000000109e+03
2.400000000000000050e-02 8.061119999999999397e-01 5.114600000000000257e-01 7.180580000000000496e+01 1.656360000000000127e+03
2.500000000000000139e-02 8.056464999999999321e-01 1.304699999999999971e+00 7.001384999999999081e+01 1.655855000000000018e+03
2.600000000000000228e-02 8.051729999999999166e-01 2.066885000000000083e+00 6.825520000000000209e+01 1.655360000000000127e+03
2.700000000000000316e-02 8.046204999999999607e-01 2.652334999999999887e+00 6.636360000000000525e+01 1.654835000000000036e+03
2.800000000000000058e-02 8.039214999999999556e-01 2.913110000000000088e+00 6.413049999999999784e+01 1.654244999999999891e+03
2.900000000000000147e-02 8.030289999999999928e-01 2.741169999999999884e+00 6.137109999999999843e+01 1.653550000000000182e+03
3.000000000000000236e-02 8.019370000000000109e-01 2.101189999999999891e+00 5.798819999999999908e+01 1.652715000000000146e+03
3.099999999999999978e-02 8.006830000000000336e-01 1.042745000000000033e+00 5.401175000000000637e+01 1.651750000000000000e+03
3.200000000000000067e-02 7.993410000000000792e-01 -3.125000000000000000e-01 4.960190000000000055e+01 1.650679999999999836e+03
3.300000000000000155e-02 7.980030000000000179e-01 -1.801744999999999486e+00 4.501530000000000342e+01 1.649555000000000064e+03
3.400000000000000244e-02 7.967585000000000361e-01 -3.257000000000000117e+00 4.055295000000000272e+01 1.648434999999999945e+03
3.500000000000000333e-02 7.956829999999999181e-01 -4.533989999999999299e+00 3.650645000000000095e+01 1.647394999999999982e+03
3.600000000000000422e-02 7.948275000000000201e-01 -5.528635000000000410e+00 3.311684999999999945e+01 1.646484999999999900e+03
3.700000000000000511e-02 7.942184999999999384e-01 -6.181443999999999939e+00 3.055004999999999882e+01 1.645765000000000100e+03
3.799999999999999906e-02 7.938600000000000101e-01 -6.472125000000000128e+00 2.889065000000000083e+01 1.645244999999999891e+03
3.899999999999999994e-02 7.937414999999999887e-01 -6.408649999999999736e+00 2.815055000000000263e+01 1.644945000000000164e+03
4.000000000000000083e-02 7.938439999999999941e-01 -6.014334999999999987e+00 2.828685000000000116e+01 1.644865000000000009e+03
4.100000000000000172e-02 7.941445000000000309e-01 -5.316394999999999982e+00 2.922455000000000069e+01 1.644994999999999891e+03
4.200000000000000261e-02 7.946210000000000218e-01 -4.338884999999999437e+00 3.087615000000000265e+01 1.645304999999999836e+03
4.300000000000000350e-02 7.952559999999999629e-01 -3.101189999999999891e+00 3.315474999999999994e+01 1.645789999999999964e+03
4.400000000000000439e-02 7.960310000000000441e-01 -1.621300000000000185e+00 3.597860000000000014e+01 1.646420000000000073e+03
4.499999999999999833e-02 7.969279999999999697e-01 7.847500000000007248e-02 3.926814999999999856e+01 1.647184999999999945e+03
4.599999999999999922e-02 7.979244999999999255e-01 1.966294999999999682e+00 4.294035000000000224e+01 1.648049999999999955e+03
4.700000000000000011e-02 7.989949999999998997e-01 3.998004999999999587e+00 4.690344999999999942e+01 1.649005000000000109e+03
4.800000000000000100e-02 8.001080000000000414e-01 6.118145000000001055e+00 5.105505000000000138e+01 1.650025000000000091e+03
4.900000000000000189e-02 8.012314999999999854e-01 8.263729999999998910e+00 5.528495000000000203e+01 1.651079999999999927e+03
5.000000000000000278e-02 8.023335000000000328e-01 1.036986500000000078e+01 5.948099999999999454e+01 1.652139999999999873e+03
5.100000000000000366e-02 8.033859999999999335e-01 1.237625500000000045e+01 6.353804999999999836e+01 1.653179999999999836e+03
5.200000000000000455e-02 8.043659999999999144e-01 1.423240999999999978e+01 6.736609999999998877e+01 1.654180000000000064e+03
5.300000000000000544e-02 8.052610000000000046e-01 1.590128999999999948e+01 7.089744999999999209e+01 1.655125000000000000e+03
5.399999999999999939e-02 8.060625000000000151e-01 1.736084999999999923e+01 7.409090000000000487e+01 1.655990000000000009e+03
5.500000000000000028e-02 8.067735000000000323e-01 1.860330000000000084e+01 7.693219999999999459e+01 1.656784999999999854e+03
5.600000000000000117e-02 8.073989999999999778e-01 1.963354999999999961e+01 7.943215000000000714e+01 1.657494999999999891e+03
5.700000000000000205e-02 8.079510000000000858e-01 2.046620000000000061e+01 8.162205000000000155e+01 1.658125000000000000e+03
5.800000000000000294e-02 8.084435000000000926e-01 2.112284999999999968e+01 8.354865000000000919e+01 1.658695000000000164e+03
5.900000000000000383e-02 8.088930000000000842e-01 2.162995000000000090e+01 8.526874999999999716e+01 1.659204999999999927e+03
6.000000000000000472e-02 8.093139999999999779e-01 2.201689999999999969e+01 8.684465000000000146e+01 1.659670000000000073e+03
6.099999999999999867e-02 8.097250000000000281e-01 2.231479999999999819e+01 8.834029999999999916e+01 1.660115000000000009e+03
6.199999999999999956e-02 8.101404999999999301e-01 2.255505000000000138e+01 8.981749999999999545e+01 1.660539999999999964e+03
6.300000000000000044e-02 8.105744999999999756e-01 2.276784999999999926e+01 9.133324999999999250e+01 1.660974999999999909e+03
6.400000000000000133e-02 8.110395000000000243e-01 2.298064999999999714e+01 9.293619999999999948e+01 1.661420000000000073e+03
6.500000000000000222e-02 8.115434999999999732e-01 2.321609999999999729e+01 9.466329999999999245e+01 1.661889999999999873e+03
6.600000000000000311e-02 8.120899999999999785e-01 2.349000000000000199e+01 9.653700000000000614e+01 1.662394999999999982e+03
6.700000000000000400e-02 8.126794999999999991e-01 2.381005000000000038e+01 9.856274999999999409e+01 1.662929999999999836e+03
6.800000000000000488e-02 8.133055000000000145e-01 2.417515000000000214e+01 1.007281499999999994e+02 1.663494999999999891e+03
6.900000000000000577e-02 8.139564999999999717e-01 2.457549999999999812e+01 1.030024999999999977e+02 1.664095000000000027e+03
7.000000000000000666e-02 8.146199999999998997e-01 2.499380000000000024e+01 1.053405000000000058e+02 1.664710000000000036e+03
7.100000000000000755e-02 8.152774999999999883e-01 2.540715000000000146e+01 1.076844999999999999e+02 1.665329999999999927e+03
7.200000000000000844e-02 8.159110000000000529e-01 2.578909999999999769e+01 1.099694999999999965e+02 1.665940000000000055e+03
7.300000000000000933e-02 8.165029999999999788e-01 2.611220000000000141e+01 1.121274999999999977e+02 1.666519999999999982e+03
7.399999999999999634e-02 8.170349999999999557e-01 2.635025000000000261e+01 1.140955000000000013e+02 1.667059999999999945e+03
7.499999999999999722e-02 8.174939999999999429e-01 2.648019999999999996e+01 1.158149999999999977e+02 1.667539999999999964e+03
7.599999999999999811e-02 8.178689999999999571e-01 2.648369999999999891e+01 1.172384999999999877e+02 1.667949999999999818e+03
7.699999999999999900e-02 8.181519999999999904e-01 2.634814999999999685e+01 1.183350000000000080e+02 1.668284999999999854e+03
7.799999999999999989e-02 8.183409999999999851e-01 2.606700000000000017e+01 1.190840000000000032e+02 1.668534999999999854e+03
7.900000000000000078e-02 8.184355000000000935e-01 2.564025000000000176e+01 1.194830000000000041e+02 1.668690000000000055e+03
8.000000000000000167e-02 8.184405000000000152e-01 2.507385000000000019e+01 1.195420000000000016e+02 1.668759999999999991e+03
8.100000000000000255e-02 8.183635000000000215e-01 2.437940000000000040e+01 1.192860000000000014e+02 1.668744999999999891e+03
8.200000000000000344e-02 8.182154999999999845e-01 2.357354999999999734e+01 1.187505000000000024e+02 1.668659999999999854e+03
8.300000000000000433e-02 8.180079999999999574e-01 2.267649999999999721e+01 1.179795000000000016e+02 1.668505000000000109e+03
8.400000000000000522e-02 8.177559999999999274e-01 2.171160000000000068e+01 1.170225000000000080e+02 1.668295000000000073e+03
8.500000000000000611e-02 8.174725000000000463e-01 2.070369999999999777e+01 1.159355000000000047e+02 1.668050000000000182e+03
8.600000000000000699e-02 8.171734999999999971e-01 1.967820000000000036e+01 1.147710000000000008e+02 1.667769999999999982e+03
8.700000000000000788e-02 8.168720000000000425e-01 1.865980000000000061e+01 1.135835000000000008e+02 1.667474999999999909e+03
8.800000000000000877e-02 8.165800000000000836e-01 1.767115000000000080e+01 1.124209999999999923e+02 1.667190000000000055e+03
8.899999999999999578e-02 8.163089999999999513e-01 1.673209999999999908e+01 1.113269999999999982e+02 1.666904999999999973e+03
8.999999999999999667e-02 8.160665000000000280e-01 1.585870000000000068e+01 1.103349999999999937e+02 1.666634999999999991e+03
9.099999999999999756e-02 8.158585000000000420e-01 1.506274999999999942e+01 1.094710000000000036e+02 1.666404999999999973e+03
9.199999999999999845e-02 8.156885000000000385e-01 1.435125000000000028e+01 1.087500000000000000e+02 1.666199999999999818e+03
9.299999999999999933e-02 8.155569999999999764e-01 1.372644999999999982e+01 1.081784999999999997e+02 1.666029999999999973e+03
9.400000000000000022e-02 8.154615000000000613e-01 1.318599999999999994e+01 1.077530000000000001e+02 1.665894999999999982e+03
9.500000000000000111e-02 8.153989999999999849e-01 1.272322499999999934e+01 1.074600000000000080e+02 1.665789999999999964e+03
9.600000000000000200e-02 8.153624999999999901e-01 1.232794499999999971e+01 1.072814999999999941e+02 1.665720000000000027e+03
9.700000000000000289e-02 8.153455000000000563e-01 1.198672499999999985e+01 1.071910000000000025e+02 1.665674999999999955e+03
9.800000000000000377e-02 8.153394999999999948e-01 1.168407999999999980e+01 1.071580000000000013e+02 1.665644999999999982e+03
9.900000000000000466e-02 8.153349999999999209e-01 1.140304000000000073e+01 1.071504999999999939e+02 1.665625000000000000e+03
1.000000000000000056e-01 8.153239999999999377e-01 1.112623500000000121e+01 1.071349999999999909e+02 1.665605000000000018e+03
1.010000000000000064e-01 8.152979999999999672e-01 1.083686499999999953e+01 1.070790000000000077e+02 1.665585000000000036e+03
1.020000000000000073e-01 8.152494999999999603e-01 1.051953999999999922e+01 1.069530000000000030e+02 1.665545000000000073e+03
1.030000000000000082e-01 8.151724999999999666e-01 1.016123999999999938e+01 1.067330000000000041e+02 1.665490000000000009e+03
1.040000000000000091e-01 8.150629999999999820e-01 9.751989999999999270e+00 1.063995000000000033e+02 1.665409999999999854e+03
1.050000000000000100e-01 8.149189999999999490e-01 9.285425000000000040e+00 1.059420000000000073e+02 1.665300000000000182e+03
1.059999999999999970e-01 8.147400000000000198e-01 8.759235000000000326e+00 1.053549999999999898e+02 1.665160000000000082e+03
1.069999999999999979e-01 8.145290000000000585e-01 8.175304999999999822e+00 1.046440000000000055e+02 1.664984999999999900e+03
1.079999999999999988e-01 8.142899999999999583e-01 7.539490000000000691e+00 1.038213499999999954e+02 1.664779999999999973e+03
1.089999999999999997e-01 8.140290000000000026e-01 6.861394999999999911e+00 1.029063999999999908e+02 1.664559999999999945e+03
1.100000000000000006e-01 8.137535000000000185e-01 6.153929999999999900e+00 1.019252999999999929e+02 1.664315000000000055e+03
1.110000000000000014e-01 8.134734999999999605e-01 5.432479999999999976e+00 1.009082999999999970e+02 1.664059999999999945e+03
1.120000000000000023e-01 8.131964999999999888e-01 4.714095000000000368e+00 9.988939999999999486e+01 1.663800000000000182e+03
1.130000000000000032e-01 8.129334999999999756e-01 4.016587000000000351e+00 9.890389999999999304e+01 1.663545000000000073e+03
1.140000000000000041e-01 8.126929999999999987e-01 3.357545000000000002e+00 9.798640000000000327e+01 1.663304999999999836e+03
1.150000000000000050e-01 8.124834999999999141e-01 2.753375999999999824e+00 9.716884999999999195e+01 1.663085000000000036e+03
1.160000000000000059e-01 8.123120000000000340e-01 2.218462000000000156e+00 9.647944999999999993e+01 1.662894999999999982e+03
1.170000000000000068e-01 8.121825000000000294e-01 1.764396500000000145e+00 9.593940000000000623e+01 1.662734999999999900e+03
1.180000000000000077e-01 8.120994999999999742e-01 1.399445999999999968e+00 9.556470000000000198e+01 1.662615000000000009e+03
1.190000000000000085e-01 8.120640000000000081e-01 1.128190500000000096e+00 9.536289999999999623e+01 1.662539999999999964e+03
1.200000000000000094e-01 8.120745000000000324e-01 9.514255000000000351e-01 9.533410000000000650e+01 1.662509999999999991e+03
1.209999999999999964e-01 8.121279999999999610e-01 8.662455000000000016e-01 9.547095000000000198e+01 1.662514999999999873e+03
1.219999999999999973e-01 8.122209999999999708e-01 8.663499999999999535e-01 9.575935000000001196e+01 1.662565000000000055e+03
1.229999999999999982e-01 8.123465000000000824e-01 9.424740999999999813e-01 9.617945000000000277e+01 1.662650000000000091e+03
1.239999999999999991e-01 8.124979999999999425e-01 1.082988999999999979e+00 9.670689999999999031e+01 1.662764999999999873e+03
1.250000000000000000e-01 8.126674999999999871e-01 1.274502500000000094e+00 9.731425000000000125e+01 1.662900000000000091e+03
1.260000000000000009e-01 8.128474999999999451e-01 1.502569150000000020e+00 9.797249999999999659e+01 1.663054999999999836e+03
1.270000000000000018e-01 8.130295000000000716e-01 1.752345499999999889e+00 9.865184999999999604e+01 1.663215000000000146e+03
1.280000000000000027e-01 8.132070000000000132e-01 2.009218999999999866e+00 9.932460000000000377e+01 1.663384999999999991e+03
1.290000000000000036e-01 8.133730000000000127e-01 2.259396500000000252e+00 9.996420000000000528e+01 1.663545000000000073e+03
1.300000000000000044e-01 8.135215000000000085e-01 2.490394999999999914e+00 1.005478500000000111e+02 1.663695000000000164e+03
1.310000000000000053e-01 8.136484999999999967e-01 2.691444999999999865e+00 1.010564499999999981e+02 1.663829999999999927e+03
1.320000000000000062e-01 8.137499999999999734e-01 2.853824999999999612e+00 1.014757999999999925e+02 1.663944999999999936e+03
1.330000000000000071e-01 8.138244999999999507e-01 2.971045000000000158e+00 1.017955000000000041e+02 1.664039999999999964e+03
1.340000000000000080e-01 8.138710000000000111e-01 3.038969999999999949e+00 1.020099999999999909e+02 1.664110000000000127e+03
1.350000000000000089e-01 8.138889999999999736e-01 3.055825000000000014e+00 1.021195000000000022e+02 1.664150000000000091e+03
1.360000000000000098e-01 8.138810000000000766e-01 3.022104999999999819e+00 1.021270000000000095e+02 1.664164999999999964e+03
1.370000000000000107e-01 8.138490000000000446e-01 2.940425000000000288e+00 1.020399999999999920e+02 1.664160000000000082e+03
1.380000000000000115e-01 8.137965000000000337e-01 2.815259999999999874e+00 1.018679999999999950e+02 1.664130000000000109e+03
1.390000000000000124e-01 8.137259999999999494e-01 2.652670000000000083e+00 1.016250000000000000e+02 1.664085000000000036e+03
1.400000000000000133e-01 8.136430000000000051e-01 2.459909999999999819e+00 1.013251500000000078e+02 1.664014999999999873e+03
1.410000000000000142e-01 8.135505000000000653e-01 2.245055999999999941e+00 1.009850500000000011e+02 1.663944999999999936e+03
1.420000000000000151e-01 8.134539999999998994e-01 2.016572500000000101e+00 1.006201499999999953e+02 1.663855000000000018e+03
1.430000000000000160e-01 8.133570000000001077e-01 1.782907999999999937e+00 1.002455499999999944e+02 1.663769999999999982e+03
1.440000000000000169e-01 8.132630000000000692e-01 1.552089999999999970e+00 9.987590000000000146e+01 1.663674999999999955e+03
1.450000000000000178e-01 8.131749999999999812e-01 1.331340500000000038e+00 9.952370000000000516e+01 1.663585000000000036e+03
1.459999999999999909e-01 8.130950000000000122e-01 1.126777000000000140e+00 9.919759999999999422e+01 1.663505000000000109e+03
1.469999999999999918e-01 8.130249999999999977e-01 9.431779999999999609e-01 9.890590000000000259e+01 1.663430000000000064e+03
1.479999999999999927e-01 8.129655000000000076e-01 7.838550000000000795e-01 9.865209999999999013e+01 1.663355000000000018e+03
1.489999999999999936e-01 8.129165000000000418e-01 6.505547499999999594e-01 9.843715000000000259e+01 1.663300000000000182e+03
1.499999999999999944e-01 8.128765000000000018e-01 5.435489499999999197e-01 9.825945000000000107e+01 1.663240000000000009e+03
1.509999999999999953e-01 8.128450000000000397e-01 4.617125000000000257e-01 9.811455000000000837e+01 1.663200000000000045e+03
1.519999999999999962e-01 8.128189999999999582e-01 4.027493500000000060e-01 9.799600000000000932e+01 1.663164999999999964e+03
1.529999999999999971e-01 8.127969999999999917e-01 3.634089999999999820e-01 9.789594999999999914e+01 1.663130000000000109e+03
1.539999999999999980e-01 8.127759999999999430e-01 3.397645000000000248e-01 9.780539999999999168e+01 1.663105000000000018e+03
1.549999999999999989e-01 8.127535000000000176e-01 3.274888000000000243e-01 9.771510000000000673e+01 1.663075000000000045e+03
1.559999999999999998e-01 8.127275000000000471e-01 3.221287999999999929e-01 9.761610000000000298e+01 1.663045000000000073e+03
1.570000000000000007e-01 8.126955000000000151e-01 3.193501400000000046e-01 9.750000000000000000e+01 1.663009999999999991e+03
1.580000000000000016e-01 8.126554999999999751e-01 3.151580999999999966e-01 9.735975000000000534e+01 1.662974999999999909e+03
1.590000000000000024e-01 8.126070000000000793e-01 3.060820000000000207e-01 9.718970000000000198e+01 1.662925000000000182e+03
