# t [s], A [cm^2], U [cm/s], P [cPa], c [cm/s]
1.000000000000000021e-03 7.126630000000000464e-01 5.449499999999996014e-03 1.022694999999999936e+02 1.731289999999999964e+03
2.000000000000000042e-03 7.126574999999999438e-01 1.104705000000000097e-02 1.022434999999999974e+02 1.731289999999999964e+03
3.000000000000000062e-03 7.127445000000000030e-01 1.666003000000000067e-01 1.024240000000000066e+02 1.731319999999999936e+03
4.000000000000000083e-03 7.127669999999999284e-01 2.340820000000000123e-01 1.024950000000000045e+02 1.731335000000000036e+03
5.000000000000000104e-03 7.126810000000000089e-01 1.194409999999999916e-01 1.022460000000000093e+02 1.731289999999999964e+03
6.000000000000000125e-03 7.125889999999999169e-01 -1.852550000000002806e-02 1.018470000000000084e+02 1.731215000000000146e+03
7.000000000000000146e-03 7.124675000000000313e-01 -2.226250000000000728e-01 1.012814999999999941e+02 1.731110000000000127e+03
8.000000000000000167e-03 7.122500000000000497e-01 -6.160499999999999865e-01 1.003644000000000034e+02 1.730934999999999945e+03
9.000000000000001055e-03 7.119375000000000009e-01 -1.189989999999999881e+00 9.903799999999999670e+01 1.730684999999999945e+03
1.000000000000000194e-02 7.115095000000000169e-01 -1.962620000000000031e+00 9.722159999999999513e+01 1.730335000000000036e+03
1.099999999999999936e-02 7.109429999999999916e-01 -2.945049999999999724e+00 9.483070000000000732e+01 1.729865000000000009e+03
1.200000000000000025e-02 7.102954999999999686e-01 -4.001754999999999285e+00 9.198830000000000950e+01 1.729299999999999955e+03
1.300000000000000114e-02 7.096899999999999320e-01 -4.871611500000000206e+00 8.905660000000000309e+01 1.728690000000000055e+03
1.400000000000000203e-02 7.092285000000000394e-01 -5.324685499999999294e+00 8.644225000000000136e+01 1.728115000000000009e+03
1.499999999999999944e-02 7.089354999999999407e-01 -5.280610000000000248e+00 8.438349999999999795e+01 1.727619999999999891e+03
1.600000000000000033e-02 7.087579999999999991e-01 -4.818970000000000198e+00 8.287014999999999532e+01 1.727220000000000027e+03
1.700000000000000122e-02 7.086060000000000692e-01 -4.116430000000000256e+00 8.168999999999999773e+01 1.726889999999999873e+03
1.800000000000000211e-02 7.083949999999999969e-01 -3.359885000000000232e+00 8.054855000000000587e+01 1.726565000000000055e+03
1.900000000000000300e-02 7.080800000000000427e-01 -2.670316750000000017e+00 7.920284999999999798e+01 1.726210000000000036e+03
2.000000000000000042e-02 7.076694999999999514e-01 -2.066919999999999646e+00 7.755500000000000682e+01 1.725815000000000055e+03
2.100000000000000130e-02 7.072080000000000588e-01 -1.487250000000000183e+00 7.566249999999999432e+01 1.725365000000000009e+03
2.200000000000000219e-02 7.067495000000000305e-01 -8.472200000000000841e-01 7.366939999999999600e+01 1.724900000000000091e+03
2.299999999999999961e-02 7.063239999999999519e-01 -1.030150000000000787e-01 7.170759999999999934e+01 1.724430000000000064e+03
2.400000000000000050e-02 7.059239999999999959e-01 7.147050000000003678e-01 6.981870000000000687e+01 1.723965000000000146e+03
2.500000000000000139e-02 7.055089999999999417e-01 1.501735000000000042e+00 6.792504999999999882e+01 1.723505000000000109e+03
2.600000000000000228e-02 7.050190000000000623e-01 2.108744999999999870e+00 6.584884999999999877e+01 1.723005000000000109e+03
2.700000000000000316e-02 7.043964999999999810e-01 2.384945000000000093e+00 6.336894999999999811e+01 1.722434999999999945e+03
2.800000000000000058e-02 7.036024999999999086e-01 2.224035000000000206e+00 6.029574999999999818e+01 1.721759999999999991e+03
2.900000000000000147e-02 7.026379999999999848e-01 1.598679999999999879e+00 5.654205000000000325e+01 1.720960000000000036e+03
3.000000000000000236e-02 7.015394999999999825e-01 5.709499999999998465e-01 5.216455000000000553e+01 1.720034999999999854e+03
3.099999999999999978e-02 7.003764999999999574e-01 -7.242999999999994998e-01 4.736145000000000493e+01 1.719014999999999873e+03
3.200000000000000067e-02 6.992309999999999359e-01 -2.114929999999999310e+00 4.243054999999999666e+01 1.717954999999999927e+03
3.300000000000000155e-02 6.981804999999999817e-01 -3.429699999999999527e+00 3.770754999999999768e+01 1.716920000000000073e+03
3.400000000000000244e-02 6.972880000000000189e-01 -4.527770000000000294e+00 3.350634999999999764e+01 1.715969999999999800e+03
3.500000000000000333e-02 6.965930000000000177e-01 -5.313209999999999766e+00 3.007469999999999999e+01 1.715159999999999854e+03
3.600000000000000422e-02 6.961150000000000393e-01 -5.736195500000000003e+00 2.757304999999999851e+01 1.714530000000000200e+03
3.700000000000000511e-02 6.958545000000000424e-01 -5.784525000000000361e+00 2.607285000000000252e+01 1.714095000000000027e+03
3.799999999999999906e-02 6.958020000000000316e-01 -5.469794999999999519e+00 2.557164999999999822e+01 1.713875000000000000e+03
3.899999999999999994e-02 6.959410000000000318e-01 -4.813975000000000115e+00 2.601644999999999897e+01 1.713865000000000009e+03
4.000000000000000083e-02 6.962550000000000683e-01 -3.839207500000000106e+00 2.732840000000000202e+01 1.714045000000000073e+03
4.100000000000000172e-02 6.967280000000000140e-01 -2.563639999999999475e+00 2.942099999999999937e+01 1.714409999999999854e+03
4.200000000000000261e-02 6.973464999999999803e-01 -1.003199999999999648e+00 3.220935000000000059e+01 1.714930000000000064e+03
4.300000000000000350e-02 6.980949999999999100e-01 8.228949999999999321e-01 3.561025000000000063e+01 1.715599999999999909e+03
4.400000000000000439e-02 6.989549999999999930e-01 2.885950000000000237e+00 3.953645000000000209e+01 1.716389999999999873e+03
4.499999999999999833e-02 6.999049999999999994e-01 5.143995000000000317e+00 4.389050000000000296e+01 1.717289999999999964e+03
4.599999999999999922e-02 7.009179999999999300e-01 7.541269999999999918e+00 4.856190000000000140e+01 1.718269999999999982e+03
4.700000000000000011e-02 7.019655000000000200e-01 1.001212250000000026e+01 5.342849999999999966e+01 1.719309999999999945e+03
4.800000000000000100e-02 7.030175000000000729e-01 1.248641999999999896e+01 5.836309999999999576e+01 1.720384999999999991e+03
4.900000000000000189e-02 7.040469999999999784e-01 1.489688999999999908e+01 6.324264999999999759e+01 1.721460000000000036e+03
5.000000000000000278e-02 7.050324999999999509e-01 1.718495000000000061e+01 6.795830000000000837e+01 1.722519999999999982e+03
5.100000000000000366e-02 7.059580000000000854e-01 1.930525000000000091e+01 7.242400000000000659e+01 1.723539999999999964e+03
5.200000000000000455e-02 7.068149999999999711e-01 2.122785000000000011e+01 7.658214999999999861e+01 1.724505000000000109e+03
5.300000000000000544e-02 7.076014999999999944e-01 2.293829999999999814e+01 8.040529999999999688e+01 1.725414999999999964e+03
5.399999999999999939e-02 7.083205000000000195e-01 2.443570000000000064e+01 8.389449999999999363e+01 1.726250000000000000e+03
5.500000000000000028e-02 7.089814999999999312e-01 2.573055000000000092e+01 8.707550000000000523e+01 1.727029999999999973e+03
5.600000000000000117e-02 7.095940000000000580e-01 2.684190000000000254e+01 8.999304999999999666e+01 1.727744999999999891e+03
5.700000000000000205e-02 7.101729999999999432e-01 2.779485000000000028e+01 9.270535000000000991e+01 1.728414999999999964e+03
5.800000000000000294e-02 7.107310000000000016e-01 2.861860000000000070e+01 9.527835000000000321e+01 1.729059999999999945e+03
5.900000000000000383e-02 7.112834999999999575e-01 2.934454999999999814e+01 9.778059999999999263e+01 1.729670000000000073e+03
6.000000000000000472e-02 7.118440000000000323e-01 3.000424999999999898e+01 1.002785000000000082e+02 1.730284999999999854e+03
6.099999999999999867e-02 7.124235000000000984e-01 3.062749999999999773e+01 1.028324499999999944e+02 1.730894999999999982e+03
6.199999999999999956e-02 7.130319999999999991e-01 3.123979999999999890e+01 1.054904999999999973e+02 1.731529999999999973e+03
6.300000000000000044e-02 7.136744999999999894e-01 3.186045000000000016e+01 1.082854999999999990e+02 1.732184999999999945e+03
6.400000000000000133e-02 7.143524999999999459e-01 3.250059999999999860e+01 1.112315000000000111e+02 1.732875000000000000e+03
6.500000000000000222e-02 7.150619999999999754e-01 3.316225000000000023e+01 1.143239999999999981e+02 1.733590000000000146e+03
6.600000000000000311e-02 7.157959999999999878e-01 3.383825000000000216e+01 1.175339999999999918e+02 1.734329999999999927e+03
6.700000000000000400e-02 7.165409999999999835e-01 3.451350000000000051e+01 1.208179999999999978e+02 1.735085000000000036e+03
6.800000000000000488e-02 7.172844999999999915e-01 3.516639999999999588e+01 1.241159999999999854e+02 1.735849999999999909e+03
6.900000000000000577e-02 7.180100000000000371e-01 3.577134999999999820e+01 1.273584999999999923e+02 1.736605000000000018e+03
7.000000000000000666e-02 7.187014999999999931e-01 3.630150000000000432e+01 1.304739999999999895e+02 1.737340000000000146e+03
7.100000000000000755e-02 7.193439999999999834e-01 3.673049999999999926e+01 1.333909999999999911e+02 1.738034999999999854e+03
7.200000000000000844e-02 7.199250000000000371e-01 3.703509999999999991e+01 1.360450000000000159e+02 1.738674999999999955e+03
7.300000000000000933e-02 7.204330000000001011e-01 3.719630000000000081e+01 1.383840000000000146e+02 1.739250000000000000e+03
7.399999999999999634e-02 7.208620000000000028e-01 3.720074999999999932e+01 1.403675000000000068e+02 1.739755000000000109e+03
7.499999999999999722e-02 7.212080000000000712e-01 3.704115000000000180e+01 1.419730000000000132e+02 1.740174999999999955e+03
7.599999999999999811e-02 7.214694999999999858e-01 3.671684999999999377e+01 1.431915000000000191e+02 1.740509999999999991e+03
7.699999999999999900e-02 7.216510000000000424e-01 3.623335000000000150e+01 1.440314999999999941e+02 1.740765000000000100e+03
7.799999999999999989e-02 7.217565000000000230e-01 3.560215000000000174e+01 1.445149999999999864e+02 1.740934999999999945e+03
7.900000000000000078e-02 7.217955000000000343e-01 3.484015000000000128e+01 1.446769999999999925e+02 1.741029999999999973e+03
8.000000000000000167e-02 7.217765000000000430e-01 3.396840000000000259e+01 1.445609999999999786e+02 1.741054999999999836e+03
8.100000000000000255e-02 7.217130000000000489e-01 3.301135000000000019e+01 1.442194999999999823e+02 1.741025000000000091e+03
8.200000000000000344e-02 7.216164999999999941e-01 3.199520000000000408e+01 1.437080000000000268e+02 1.740950000000000045e+03
8.300000000000000433e-02 7.214985000000000426e-01 3.094695000000000107e+01 1.430840000000000032e+02 1.740845000000000027e+03
8.400000000000000522e-02 7.213709999999999845e-01 2.989280000000000115e+01 1.424030000000000200e+02 1.740719999999999800e+03
8.500000000000000611e-02 7.212439999999999962e-01 2.885670000000000357e+01 1.417150000000000034e+02 1.740579999999999927e+03
8.600000000000000699e-02 7.211269999999999625e-01 2.785950000000000060e+01 1.410639999999999930e+02 1.740445000000000164e+03
8.700000000000000788e-02 7.210265000000000146e-01 2.691785000000000139e+01 1.404844999999999970e+02 1.740320000000000164e+03
8.800000000000000877e-02 7.209460000000000868e-01 2.604354999999999976e+01 1.400004999999999882e+02 1.740204999999999927e+03
8.899999999999999578e-02 7.208889999999998910e-01 2.524329999999999785e+01 1.396265000000000214e+02 1.740115000000000009e+03
8.999999999999999667e-02 7.208540000000001058e-01 2.451865000000000094e+01 1.393645000000000209e+02 1.740045000000000073e+03
9.099999999999999756e-02 7.208390000000000075e-01 2.386635000000000062e+01 1.392069999999999936e+02 1.739994999999999891e+03
9.199999999999999845e-02 7.208399999999999253e-01 2.327874999999999872e+01 1.391379999999999768e+02 1.739965000000000146e+03
9.299999999999999933e-02 7.208509999999999085e-01 2.274450000000000216e+01 1.391334999999999980e+02 1.739944999999999936e+03
9.400000000000000022e-02 7.208660000000000068e-01 2.224954999999999927e+01 1.391630000000000109e+02 1.739940000000000055e+03
9.500000000000000111e-02 7.208774999999999489e-01 2.177789999999999893e+01 1.391945000000000050e+02 1.739940000000000055e+03
9.600000000000000200e-02 7.208775000000000599e-01 2.131295000000000073e+01 1.391940000000000168e+02 1.739930000000000064e+03
9.700000000000000289e-02 7.208594999999999864e-01 2.083830000000000027e+01 1.391274999999999977e+02 1.739909999999999854e+03
9.800000000000000377e-02 7.208174999999999999e-01 2.033855000000000146e+01 1.389644999999999868e+02 1.739875000000000000e+03
9.900000000000000466e-02 7.207459999999999978e-01 1.980079999999999885e+01 1.386794999999999902e+02 1.739815000000000055e+03
1.000000000000000056e-01 7.206420000000000048e-01 1.921505000000000152e+01 1.382529999999999859e+02 1.739724999999999909e+03
1.010000000000000064e-01 7.205034999999999634e-01 1.857495000000000118e+01 1.376745000000000232e+02 1.739605000000000018e+03
1.020000000000000073e-01 7.203310000000000546e-01 1.787825000000000131e+01 1.369395000000000095e+02 1.739449999999999818e+03
1.030000000000000082e-01 7.201260000000000439e-01 1.712689999999999912e+01 1.360554999999999950e+02 1.739264999999999873e+03
1.040000000000000091e-01 7.198930000000000051e-01 1.632714999999999961e+01 1.350344999999999800e+02 1.739050000000000182e+03
1.050000000000000100e-01 7.196374999999999300e-01 1.548894999999999911e+01 1.339010000000000105e+02 1.738799999999999955e+03
1.059999999999999970e-01 7.193659999999999499e-01 1.462545500000000054e+01 1.326825000000000045e+02 1.738539999999999964e+03
1.069999999999999979e-01 7.190864999999999618e-01 1.375247999999999848e+01 1.314140000000000157e+02 1.738255000000000109e+03
1.079999999999999988e-01 7.188075000000000436e-01 1.288735000000000142e+01 1.301315000000000168e+02 1.737974999999999909e+03
1.089999999999999997e-01 7.185365000000000224e-01 1.204815499999999950e+01 1.288739999999999952e+02 1.737690000000000055e+03
1.100000000000000006e-01 7.182830000000000048e-01 1.125243000000000038e+01 1.276779999999999973e+02 1.737414999999999964e+03
1.110000000000000014e-01 7.180520000000000236e-01 1.051655500000000032e+01 1.265780000000000030e+02 1.737154999999999973e+03
1.120000000000000023e-01 7.178510000000000169e-01 9.854639999999999844e+00 1.256045000000000016e+02 1.736925000000000182e+03
1.130000000000000032e-01 7.176839999999999886e-01 9.277820000000000178e+00 1.247789999999999964e+02 1.736719999999999800e+03
1.140000000000000041e-01 7.175529999999999964e-01 8.793879999999999697e+00 1.241184999999999974e+02 1.736549999999999955e+03
1.150000000000000050e-01 7.174605000000000565e-01 8.406829999999999359e+00 1.236299999999999955e+02 1.736414999999999964e+03
1.160000000000000059e-01 7.174045000000000005e-01 8.116865000000000663e+00 1.233149999999999977e+02 1.736315000000000055e+03
1.170000000000000068e-01 7.173834999999999518e-01 7.920575000000000365e+00 1.231645000000000039e+02 1.736259999999999991e+03
1.180000000000000077e-01 7.173924999999999885e-01 7.811199999999999477e+00 1.231645000000000039e+02 1.736235000000000127e+03
1.190000000000000085e-01 7.174285000000000245e-01 7.779225000000000279e+00 1.232955000000000041e+02 1.736240000000000009e+03
1.200000000000000094e-01 7.174849999999999284e-01 7.812974999999999781e+00 1.235330000000000013e+02 1.736264999999999873e+03
1.209999999999999964e-01 7.175564999999999305e-01 7.899300000000000210e+00 1.238505000000000109e+02 1.736319999999999936e+03
1.219999999999999973e-01 7.176365000000000105e-01 8.024259999999999948e+00 1.242210000000000036e+02 1.736384999999999991e+03
1.229999999999999982e-01 7.177195000000000658e-01 8.173814999999999387e+00 1.246159999999999997e+02 1.736460000000000036e+03
1.239999999999999991e-01 7.178005000000000635e-01 8.334430000000001115e+00 1.250105000000000075e+02 1.736534999999999854e+03
1.250000000000000000e-01 7.178744999999999710e-01 8.493600000000000705e+00 1.253824999999999932e+02 1.736615000000000009e+03
1.260000000000000009e-01 7.179375000000000062e-01 8.640335000000000321e+00 1.257115000000000009e+02 1.736684999999999945e+03
1.270000000000000018e-01 7.179880000000000706e-01 8.765435000000000088e+00 1.259830000000000041e+02 1.736744999999999891e+03
1.280000000000000027e-01 7.180225000000000080e-01 8.861769999999999925e+00 1.261864999999999952e+02 1.736795000000000073e+03
1.290000000000000036e-01 7.180409999999999293e-01 8.924389999999998935e+00 1.263155000000000001e+02 1.736829999999999927e+03
1.300000000000000044e-01 7.180440000000000156e-01 8.950525000000000730e+00 1.263689999999999998e+02 1.736845000000000027e+03
1.310000000000000053e-01 7.180310000000000858e-01 8.939529999999999532e+00 1.263489999999999895e+02 1.736849999999999909e+03
1.320000000000000062e-01 7.180044999999999344e-01 8.892784999999999940e+00 1.262620000000000005e+02 1.736840000000000146e+03
1.330000000000000071e-01 7.179664999999999520e-01 8.813464999999998994e+00 1.261169999999999902e+02 1.736815000000000055e+03
1.340000000000000080e-01 7.179200000000000026e-01 8.706170000000000186e+00 1.259250000000000114e+02 1.736784999999999854e+03
1.350000000000000089e-01 7.178675000000001027e-01 8.576575000000000060e+00 1.257000000000000028e+02 1.736740000000000009e+03
1.360000000000000098e-01 7.178130000000000344e-01 8.431224999999999525e+00 1.254549999999999983e+02 1.736690000000000055e+03
1.370000000000000107e-01 7.177579999999998961e-01 8.276965000000000572e+00 1.252044999999999959e+02 1.736634999999999991e+03
1.380000000000000115e-01 7.177059999999999551e-01 8.120630000000000237e+00 1.249609999999999985e+02 1.736585000000000036e+03
1.390000000000000124e-01 7.176599999999999646e-01 7.968574999999999520e+00 1.247369999999999948e+02 1.736534999999999854e+03
1.400000000000000133e-01 7.176210000000000644e-01 7.826435000000000031e+00 1.245430000000000064e+02 1.736494999999999891e+03
1.410000000000000142e-01 7.175909999999999789e-01 7.698770000000000557e+00 1.243849999999999909e+02 1.736454999999999927e+03
1.420000000000000151e-01 7.175700000000000411e-01 7.588889999999999247e+00 1.242680000000000007e+02 1.736430000000000064e+03
1.430000000000000160e-01 7.175590000000000579e-01 7.498734999999999928e+00 1.241940000000000026e+02 1.736404999999999973e+03
1.440000000000000169e-01 7.175559999999999716e-01 7.428869999999999862e+00 1.241614999999999895e+02 1.736400000000000091e+03
1.450000000000000178e-01 7.175614999999999633e-01 7.378524999999999778e+00 1.241664999999999992e+02 1.736394999999999982e+03
1.459999999999999909e-01 7.175730000000000164e-01 7.345795000000000741e+00 1.242034999999999911e+02 1.736394999999999982e+03
1.469999999999999918e-01 7.175884999999999625e-01 7.327814999999999301e+00 1.242634999999999934e+02 1.736405000000000200e+03
1.479999999999999927e-01 7.176069999999999949e-01 7.321059999999999235e+00 1.243384999999999962e+02 1.736420000000000073e+03
1.489999999999999936e-01 7.176255000000000273e-01 7.321594999999999409e+00 1.244189999999999969e+02 1.736434999999999945e+03
1.499999999999999944e-01 7.176420000000000021e-01 7.325375000000000192e+00 1.244950000000000045e+02 1.736445000000000164e+03
1.509999999999999953e-01 7.176545000000000840e-01 7.328520000000001033e+00 1.245579999999999927e+02 1.736460000000000036e+03
1.519999999999999962e-01 7.176629999999999399e-01 7.327539999999999942e+00 1.246015000000000015e+02 1.736470000000000027e+03
1.529999999999999971e-01 7.176645000000000385e-01 7.319529999999999426e+00 1.246195000000000022e+02 1.736474999999999909e+03
1.539999999999999980e-01 7.176595000000000057e-01 7.302304999999999602e+00 1.246075000000000017e+02 1.736474999999999909e+03
1.549999999999999989e-01 7.176474999999999937e-01 7.274515000000000953e+00 1.245645000000000095e+02 1.736465000000000146e+03
1.559999999999999998e-01 7.176285000000000025e-01 7.235674999999999635e+00 1.244904999999999973e+02 1.736450000000000045e+03
1.570000000000000007e-01 7.176035000000000608e-01 7.186189999999999856e+00 1.243884999999999934e+02 1.736434999999999945e+03
1.580000000000000016e-01 7.175739999999999341e-01 7.127250000000000085e+00 1.242614999999999981e+02 1.736404999999999973e+03
1.590000000000000024e-01 7.175405000000000255e-01 7.060825000000000351e+00 1.241165000000000020e+02 1.736369999999999891e+03
