# t [s], A [cm^2], U [cm/s], P [cPa], c [cm/s]
1.000000000000000021e-03 1.307494999999999907e-01 4.307333500000000148e-01 8.591660000000000252e+01 1.896295000000000073e+03
2.000000000000000042e-03 1.307145000000000112e-01 1.997199500000000016e+00 8.265649999999999409e+01 1.895889999999999873e+03
3.000000000000000062e-03 1.306170000000000109e-01 3.851259499999999836e+00 7.842175000000000296e+01 1.894805000000000064e+03
4.000000000000000083e-03 1.304839999999999889e-01 5.897804999999999964e+00 7.407839999999998781e+01 1.893345000000000027e+03
5.000000000000000104e-03 1.303420000000000134e-01 8.067689999999998918e+00 7.039719999999999800e+01 1.891789999999999964e+03
6.000000000000000125e-03 1.302049999999999874e-01 1.018227500000000063e+01 6.750905000000000200e+01 1.890305000000000064e+03
7.000000000000000146e-03 1.300769999999999982e-01 1.204900499999999930e+01 6.508714999999999407e+01 1.888945000000000164e+03
8.000000000000000167e-03 1.299589999999999912e-01 1.361428000000000083e+01 6.290469999999999828e+01 1.887714999999999918e+03
9.000000000000001055e-03 1.298545000000000116e-01 1.492774999999999963e+01 6.101944999999999908e+01 1.886634999999999991e+03
1.000000000000000194e-02 1.297650000000000192e-01 1.602159999999999940e+01 5.948945000000000505e+01 1.885730000000000018e+03
1.099999999999999936e-02 1.296910000000000007e-01 1.690510000000000090e+01 5.826989999999999981e+01 1.884974999999999909e+03
1.200000000000000025e-02 1.296299999999999952e-01 1.759409999999999741e+01 5.730465000000000231e+01 1.884369999999999891e+03
1.300000000000000114e-02 1.295810000000000017e-01 1.810125000000000028e+01 5.653584999999999638e+01 1.883889999999999873e+03
1.400000000000000203e-02 1.295410000000000172e-01 1.843625000000000114e+01 5.588464999999999350e+01 1.883509999999999991e+03
1.499999999999999944e-02 1.295084999999999986e-01 1.864339999999999975e+01 5.533294999999999675e+01 1.883195000000000164e+03
1.600000000000000033e-02 1.294835000000000014e-01 1.882844999999999658e+01 5.503164999999999907e+01 1.882974999999999909e+03
1.700000000000000122e-02 1.294735000000000191e-01 1.912920000000000087e+01 5.527944999999999709e+01 1.882884999999999991e+03
1.800000000000000211e-02 1.294845000000000024e-01 1.964565000000000339e+01 5.635054999999999836e+01 1.883014999999999873e+03
1.900000000000000300e-02 1.295204999999999829e-01 2.038054999999999950e+01 5.829659999999999798e+01 1.883380000000000109e+03
2.000000000000000042e-02 1.295785000000000131e-01 2.122894999999999754e+01 6.085859999999999559e+01 1.883974999999999909e+03
2.100000000000000130e-02 1.296495000000000009e-01 2.201634999999999920e+01 6.353249999999999886e+01 1.884699999999999818e+03
2.200000000000000219e-02 1.297205000000000163e-01 2.256344999999999956e+01 6.574325000000000330e+01 1.885440000000000055e+03
2.299999999999999961e-02 1.297784999999999911e-01 2.274620000000000175e+01 6.703870000000000573e+01 1.886054999999999836e+03
2.400000000000000050e-02 1.298139999999999850e-01 2.253125000000000000e+01 6.722710000000000719e+01 1.886440000000000055e+03
2.500000000000000139e-02 1.298229999999999940e-01 2.197644999999999982e+01 6.641294999999999504e+01 1.886565000000000055e+03
2.600000000000000228e-02 1.298094999999999943e-01 2.120105000000000217e+01 6.493004999999999427e+01 1.886450000000000045e+03
2.700000000000000316e-02 1.297804999999999931e-01 2.034040000000000248e+01 6.320669999999999789e+01 1.886170000000000073e+03
2.800000000000000058e-02 1.297444999999999848e-01 1.950350000000000250e+01 6.162109999999999843e+01 1.885809999999999945e+03
2.900000000000000147e-02 1.297099999999999920e-01 1.874705000000000155e+01 6.039860000000000184e+01 1.885460000000000036e+03
3.000000000000000236e-02 1.296809999999999907e-01 1.807244999999999990e+01 5.957710000000000150e+01 1.885159999999999854e+03
3.099999999999999978e-02 1.296579999999999955e-01 1.744055000000000177e+01 5.903964999999999463e+01 1.884925000000000182e+03
3.200000000000000067e-02 1.296384999999999899e-01 1.679710000000000036e+01 5.858944999999999936e+01 1.884724999999999909e+03
3.300000000000000155e-02 1.296194999999999986e-01 1.609900000000000020e+01 5.803764999999999930e+01 1.884529999999999973e+03
3.400000000000000244e-02 1.295975000000000044e-01 1.533399999999999963e+01 5.727599999999999625e+01 1.884309999999999945e+03
3.500000000000000333e-02 1.295705000000000051e-01 1.452874999999999872e+01 5.631669999999999732e+01 1.884034999999999854e+03
3.600000000000000422e-02 1.295410000000000172e-01 1.374479999999999968e+01 5.529120000000000346e+01 1.883735000000000127e+03
3.700000000000000511e-02 1.295115000000000016e-01 1.306275000000000119e+01 5.441159999999999997e+01 1.883434999999999945e+03
3.799999999999999906e-02 1.294879999999999920e-01 1.256115000000000137e+01 5.390755000000000052e+01 1.883190000000000055e+03
3.899999999999999994e-02 1.294754999999999934e-01 1.229479999999999862e+01 5.395870000000000033e+01 1.883054999999999836e+03
4.000000000000000083e-02 1.294784999999999964e-01 1.227974999999999994e+01 5.464085000000000036e+01 1.883069999999999936e+03
4.100000000000000172e-02 1.294980000000000020e-01 1.248760000000000048e+01 5.590109999999999957e+01 1.883255000000000109e+03
4.200000000000000261e-02 1.295320000000000082e-01 1.284994999999999976e+01 5.756405000000000172e+01 1.883590000000000146e+03
4.300000000000000350e-02 1.295755000000000101e-01 1.327064999999999984e+01 5.936570000000000391e+01 1.884025000000000091e+03
4.400000000000000439e-02 1.296229999999999882e-01 1.364225000000000065e+01 6.100329999999999586e+01 1.884505000000000109e+03
4.499999999999999833e-02 1.296660000000000035e-01 1.386275000000000013e+01 6.218789999999999907e+01 1.884934999999999945e+03
4.599999999999999922e-02 1.296964999999999923e-01 1.384924999999999962e+01 6.268860000000000099e+01 1.885255000000000109e+03
4.700000000000000011e-02 1.297090000000000187e-01 1.354670000000000130e+01 6.236149999999999949e+01 1.885389999999999873e+03
4.800000000000000100e-02 1.296994999999999953e-01 1.293100000000000094e+01 6.115970000000000084e+01 1.885305000000000064e+03
4.900000000000000189e-02 1.296660000000000035e-01 1.200763500000000050e+01 5.912695000000000078e+01 1.884974999999999909e+03
5.000000000000000278e-02 1.296094999999999886e-01 1.080644000000000027e+01 5.637869999999999493e+01 1.884400000000000091e+03
5.100000000000000366e-02 1.295314999999999939e-01 9.374900000000000233e+00 5.307694999999999652e+01 1.883615000000000009e+03
5.200000000000000455e-02 1.294365000000000099e-01 7.771240000000000592e+00 4.940545000000000186e+01 1.882654999999999973e+03
5.300000000000000544e-02 1.293289999999999995e-01 6.058749999999999858e+00 4.554899999999999949e+01 1.881565000000000055e+03
5.399999999999999939e-02 1.292139999999999955e-01 4.301809354999999613e+00 4.167985000000000184e+01 1.880389999999999873e+03
5.500000000000000028e-02 1.290959999999999885e-01 2.563344999999999985e+00 3.795165000000000077e+01 1.879184999999999945e+03
5.600000000000000117e-02 1.289800000000000113e-01 9.040150000000002350e-01 3.449835000000000207e+01 1.878000000000000000e+03
5.700000000000000205e-02 1.288699999999999846e-01 -6.182350000000003121e-01 3.143724999999999881e+01 1.876875000000000000e+03
5.800000000000000294e-02 1.287705000000000100e-01 -1.948409999999999975e+00 2.887235000000000085e+01 1.875849999999999909e+03
5.900000000000000383e-02 1.286839999999999928e-01 -3.035058999999999951e+00 2.689705000000000013e+01 1.874954999999999927e+03
6.000000000000000472e-02 1.286144999999999927e-01 -3.831520000000000259e+00 2.559434999999999860e+01 1.874235000000000127e+03
6.099999999999999867e-02 1.285644999999999982e-01 -4.297704999999999664e+00 2.503475000000000250e+01 1.873715000000000146e+03
6.199999999999999956e-02 1.285374999999999990e-01 -4.402250000000000441e+00 2.527185000000000059e+01 1.873420000000000073e+03
6.300000000000000044e-02 1.285344999999999960e-01 -4.124729999999999563e+00 2.633790000000000120e+01 1.873365000000000009e+03
6.400000000000000133e-02 1.285570000000000046e-01 -3.457409999999999872e+00 2.823850000000000193e+01 1.873574999999999818e+03
6.500000000000000222e-02 1.286049999999999971e-01 -2.406251000000000140e+00 3.094979999999999976e+01 1.874039999999999964e+03
6.600000000000000311e-02 1.286795000000000022e-01 -9.909950000000000703e-01 3.441790000000000305e+01 1.874769999999999982e+03
6.700000000000000400e-02 1.287770000000000026e-01 7.558649999999997871e-01 3.856090000000000373e+01 1.875744999999999891e+03
6.800000000000000488e-02 1.288974999999999982e-01 2.790989999999999860e+00 4.327389999999999759e+01 1.876949999999999818e+03
6.900000000000000577e-02 1.290370000000000128e-01 5.062810999999999950e+00 4.843534999999999968e+01 1.878355000000000018e+03
7.000000000000000666e-02 1.291915000000000147e-01 7.514445000000000263e+00 5.391514999999999702e+01 1.879924999999999955e+03
7.100000000000000755e-02 1.293590000000000018e-01 1.008661500000000011e+01 5.958205000000000240e+01 1.881630000000000109e+03
7.200000000000000844e-02 1.295340000000000102e-01 1.272054499999999955e+01 6.531069999999999709e+01 1.883420000000000073e+03
7.300000000000000933e-02 1.297134999999999816e-01 1.536033499999999918e+01 7.098734999999999218e+01 1.885264999999999873e+03
7.399999999999999634e-02 1.298940000000000095e-01 1.795485000000000042e+01 7.651394999999999413e+01 1.887125000000000000e+03
7.499999999999999722e-02 1.300719999999999932e-01 2.045955000000000013e+01 8.181125000000000114e+01 1.888970000000000027e+03
7.599999999999999811e-02 1.302460000000000007e-01 2.283769999999999811e+01 8.682030000000000314e+01 1.890769999999999982e+03
7.699999999999999900e-02 1.304120000000000001e-01 2.506125000000000114e+01 9.150334999999999752e+01 1.892505000000000109e+03
7.799999999999999989e-02 1.305705000000000060e-01 2.711135000000000161e+01 9.584299999999998931e+01 1.894159999999999854e+03
7.900000000000000078e-02 1.307190000000000019e-01 2.897865000000000180e+01 9.984375000000000000e+01 1.895724999999999909e+03
8.000000000000000167e-02 1.308590000000000031e-01 3.066300000000000026e+01 1.035277000000000100e+02 1.897190000000000055e+03
8.100000000000000255e-02 1.309894999999999810e-01 3.217264999999999731e+01 1.069329999999999927e+02 1.898570000000000164e+03
8.200000000000000344e-02 1.311120000000000063e-01 3.352295000000000158e+01 1.101099999999999994e+02 1.899865000000000009e+03
8.300000000000000433e-02 1.312269999999999825e-01 3.473489999999999611e+01 1.131194999999999879e+02 1.901094999999999800e+03
8.400000000000000522e-02 1.313370000000000093e-01 3.583330000000000126e+01 1.160240000000000009e+02 1.902259999999999991e+03
8.500000000000000611e-02 1.314430000000000043e-01 3.684475000000000477e+01 1.188864999999999981e+02 1.903389999999999873e+03
8.600000000000000699e-02 1.315475000000000116e-01 3.779514999999999958e+01 1.217650000000000006e+02 1.904500000000000000e+03
8.700000000000000788e-02 1.316515000000000046e-01 3.870860000000000412e+01 1.247065000000000055e+02 1.905610000000000127e+03
8.800000000000000877e-02 1.317564999999999986e-01 3.960495000000000232e+01 1.277464999999999975e+02 1.906724999999999909e+03
8.899999999999999578e-02 1.318640000000000090e-01 4.049915000000000020e+01 1.309050000000000011e+02 1.907865000000000009e+03
8.999999999999999667e-02 1.319740000000000080e-01 4.140019999999999811e+01 1.341864999999999952e+02 1.909029999999999973e+03
9.099999999999999756e-02 1.320864999999999956e-01 4.231050000000000466e+01 1.375794999999999959e+02 1.910234999999999900e+03
9.199999999999999845e-02 1.322025000000000006e-01 4.322664999999999935e+01 1.410575000000000045e+02 1.911465000000000146e+03
9.299999999999999933e-02 1.323209999999999942e-01 4.413935000000000031e+01 1.445835000000000150e+02 1.912715000000000146e+03
9.400000000000000022e-02 1.324404999999999888e-01 4.503430000000000177e+01 1.481069999999999993e+02 1.913985000000000127e+03
9.500000000000000111e-02 1.325590000000000102e-01 4.589379999999999882e+01 1.515745000000000005e+02 1.915250000000000000e+03
9.600000000000000200e-02 1.326759999999999884e-01 4.669749999999999801e+01 1.549275000000000091e+02 1.916500000000000000e+03
9.700000000000000289e-02 1.327899999999999914e-01 4.742379999999999995e+01 1.581080000000000041e+02 1.917714999999999918e+03
9.800000000000000377e-02 1.328989999999999894e-01 4.805124999999999602e+01 1.610620000000000118e+02 1.918875000000000000e+03
9.900000000000000466e-02 1.330010000000000081e-01 4.855995000000000061e+01 1.637394999999999925e+02 1.919970000000000027e+03
1.000000000000000056e-01 1.330945000000000045e-01 4.893215000000000003e+01 1.661009999999999991e+02 1.920980000000000018e+03
1.010000000000000064e-01 1.331789999999999918e-01 4.915340000000000487e+01 1.681134999999999877e+02 1.921884999999999991e+03
1.020000000000000073e-01 1.332524999999999959e-01 4.921335000000000548e+01 1.697565000000000168e+02 1.922679999999999836e+03
1.030000000000000082e-01 1.333145000000000024e-01 4.910599999999999454e+01 1.710204999999999984e+02 1.923355000000000018e+03
1.040000000000000091e-01 1.333650000000000113e-01 4.882980000000000587e+01 1.719054999999999893e+02 1.923909999999999854e+03
1.050000000000000100e-01 1.334035000000000082e-01 4.838824999999999932e+01 1.724225000000000136e+02 1.924335000000000036e+03
1.059999999999999970e-01 1.334305000000000074e-01 4.778900000000000148e+01 1.725939999999999941e+02 1.924634999999999991e+03
1.069999999999999979e-01 1.334464999999999957e-01 4.704395000000000238e+01 1.724470000000000027e+02 1.924819999999999936e+03
1.079999999999999988e-01 1.334515000000000007e-01 4.616859999999999786e+01 1.720194999999999936e+02 1.924889999999999873e+03
1.089999999999999997e-01 1.334474999999999967e-01 4.518139999999999645e+01 1.713514999999999873e+02 1.924860000000000127e+03
1.100000000000000006e-01 1.334354999999999847e-01 4.410285000000000366e+01 1.704890000000000043e+02 1.924740000000000009e+03
1.110000000000000014e-01 1.334159999999999791e-01 4.295494999999999663e+01 1.694769999999999754e+02 1.924539999999999964e+03
1.120000000000000023e-01 1.333905000000000229e-01 4.176030000000000086e+01 1.683629999999999995e+02 1.924284999999999854e+03
1.130000000000000032e-01 1.333619999999999806e-01 4.054104999999999848e+01 1.671915000000000191e+02 1.923980000000000018e+03
1.140000000000000041e-01 1.333294999999999897e-01 3.931855000000000189e+01 1.660045000000000073e+02 1.923639999999999873e+03
1.150000000000000050e-01 1.332959999999999978e-01 3.811225000000000307e+01 1.648389999999999986e+02 1.923285000000000082e+03
1.160000000000000059e-01 1.332619999999999916e-01 3.693939999999999912e+01 1.637259999999999991e+02 1.922920000000000073e+03
1.170000000000000068e-01 1.332284999999999997e-01 3.581439999999999912e+01 1.626915000000000191e+02 1.922570000000000164e+03
1.180000000000000077e-01 1.331964999999999955e-01 3.474835000000000207e+01 1.617520000000000095e+02 1.922224999999999909e+03
1.190000000000000085e-01 1.331665000000000210e-01 3.374895000000000067e+01 1.609194999999999993e+02 1.921904999999999973e+03
1.200000000000000094e-01 1.331395000000000217e-01 3.282050000000000267e+01 1.601970000000000027e+02 1.921610000000000127e+03
1.209999999999999964e-01 1.331150000000000111e-01 3.196359999999999957e+01 1.595799999999999841e+02 1.921344999999999800e+03
1.219999999999999973e-01 1.330935000000000035e-01 3.117555000000000121e+01 1.590584999999999809e+02 1.921110000000000127e+03
1.229999999999999982e-01 1.330744999999999845e-01 3.045080000000000098e+01 1.586165000000000020e+02 1.920900000000000091e+03
1.239999999999999991e-01 1.330580000000000096e-01 2.978105000000000047e+01 1.582319999999999993e+02 1.920715000000000146e+03
1.250000000000000000e-01 1.330429999999999946e-01 2.915599999999999881e+01 1.578820000000000050e+02 1.920545000000000073e+03
1.260000000000000009e-01 1.330284999999999940e-01 2.856380000000000052e+01 1.575384999999999991e+02 1.920394999999999982e+03
1.270000000000000018e-01 1.330155000000000087e-01 2.799174999999999969e+01 1.571740000000000066e+02 1.920244999999999891e+03
1.280000000000000027e-01 1.330009999999999803e-01 2.742674999999999841e+01 1.567610000000000241e+02 1.920085000000000036e+03
1.290000000000000036e-01 1.329855000000000065e-01 2.685624999999999929e+01 1.562740000000000009e+02 1.919920000000000073e+03
1.300000000000000044e-01 1.329679999999999751e-01 2.626854999999999762e+01 1.556910000000000025e+02 1.919724999999999909e+03
1.310000000000000053e-01 1.329480000000000106e-01 2.565350000000000108e+01 1.549925000000000068e+02 1.919509999999999991e+03
1.320000000000000062e-01 1.329245000000000010e-01 2.500280000000000058e+01 1.541659999999999968e+02 1.919259999999999991e+03
1.330000000000000071e-01 1.328969999999999874e-01 2.431060000000000088e+01 1.532019999999999982e+02 1.918969999999999800e+03
1.340000000000000080e-01 1.328659999999999841e-01 2.357359999999999900e+01 1.520989999999999895e+02 1.918634999999999991e+03
1.350000000000000089e-01 1.328305000000000180e-01 2.279129999999999967e+01 1.508605000000000018e+02 1.918260000000000218e+03
1.360000000000000098e-01 1.327909999999999924e-01 2.196590000000000131e+01 1.494975000000000023e+02 1.917845000000000027e+03
1.370000000000000107e-01 1.327475000000000183e-01 2.110229999999999961e+01 1.480255000000000223e+02 1.917380000000000109e+03
1.380000000000000115e-01 1.327004999999999990e-01 2.020789999999999864e+01 1.464639999999999986e+02 1.916889999999999873e+03
1.390000000000000124e-01 1.326509999999999911e-01 1.929204999999999970e+01 1.448385000000000105e+02 1.916359999999999900e+03
1.400000000000000133e-01 1.325989999999999946e-01 1.836594999999999800e+01 1.431759999999999877e+02 1.915809999999999945e+03
1.410000000000000142e-01 1.325449999999999962e-01 1.744184999999999874e+01 1.415065000000000168e+02 1.915244999999999891e+03
1.420000000000000151e-01 1.324909999999999977e-01 1.653269999999999840e+01 1.398589999999999804e+02 1.914675000000000182e+03
1.430000000000000160e-01 1.324380000000000002e-01 1.565135000000000076e+01 1.382629999999999768e+02 1.914099999999999909e+03
1.440000000000000169e-01 1.323850000000000027e-01 1.481029999999999802e+01 1.367465000000000259e+02 1.913545000000000073e+03
1.450000000000000178e-01 1.323349999999999804e-01 1.402099999999999902e+01 1.353319999999999936e+02 1.913005000000000109e+03
1.459999999999999909e-01 1.322869999999999879e-01 1.329335000000000022e+01 1.340414999999999850e+02 1.912500000000000000e+03
1.469999999999999918e-01 1.322429999999999994e-01 1.263550000000000040e+01 1.328894999999999982e+02 1.912029999999999973e+03
1.479999999999999927e-01 1.322025000000000006e-01 1.205339999999999989e+01 1.318865000000000123e+02 1.911599999999999909e+03
1.489999999999999936e-01 1.321670000000000067e-01 1.155072000000000010e+01 1.310380000000000109e+02 1.911220000000000027e+03
1.499999999999999944e-01 1.321360000000000035e-01 1.112870999999999988e+01 1.303439999999999941e+02 1.910880000000000109e+03
1.509999999999999953e-01 1.321094999999999908e-01 1.078629000000000104e+01 1.297995000000000232e+02 1.910590000000000146e+03
1.519999999999999962e-01 1.320879999999999832e-01 1.052019999999999911e+01 1.293949999999999818e+02 1.910355000000000018e+03
1.529999999999999971e-01 1.320705000000000073e-01 1.032503999999999955e+01 1.291165000000000020e+02 1.910164999999999964e+03
1.539999999999999980e-01 1.320570000000000077e-01 1.019384000000000157e+01 1.289474999999999909e+02 1.910015000000000100e+03
1.549999999999999989e-01 1.320469999999999977e-01 1.011813499999999877e+01 1.288685000000000116e+02 1.909905000000000200e+03
1.559999999999999998e-01 1.320405000000000051e-01 1.008854999999999968e+01 1.288589999999999804e+02 1.909829999999999927e+03
1.570000000000000007e-01 1.320359999999999867e-01 1.009498500000000121e+01 1.288974999999999795e+02 1.909780000000000200e+03
1.580000000000000016e-01 1.320339999999999847e-01 1.012721499999999963e+01 1.289635000000000105e+02 1.909744999999999891e+03
1.590000000000000024e-01 1.320330000000000115e-01 1.017509499999999889e+01 1.290360000000000014e+02 1.909730000000000018e+03
