# t [s], A [cm^2], U [cm/s], P [cPa], c [cm/s]
1.000000000000000021e-03 1.644710000000000061e-01 1.739469999999999905e-01 9.913069999999999027e+01 1.957054999999999836e+03
2.000000000000000042e-03 1.644474999999999965e-01 1.494465500000000002e+00 9.645175000000000409e+01 1.956840000000000146e+03
3.000000000000000062e-03 1.643545000000000145e-01 3.178316000000000141e+00 9.281815000000000282e+01 1.956055000000000064e+03
4.000000000000000083e-03 1.642124999999999835e-01 5.076172000000000573e+00 8.857620000000000005e+01 1.954880000000000109e+03
5.000000000000000104e-03 1.640455000000000108e-01 7.137299999999999756e+00 8.439565000000000339e+01 1.953509999999999991e+03
6.000000000000000125e-03 1.638739999999999919e-01 9.273725000000000662e+00 8.070409999999999684e+01 1.952119999999999891e+03
7.000000000000000146e-03 1.637075000000000058e-01 1.134036000000000044e+01 7.755684999999999718e+01 1.950784999999999854e+03
8.000000000000000167e-03 1.635489999999999999e-01 1.320498500000000064e+01 7.478284999999999627e+01 1.949534999999999854e+03
9.000000000000001055e-03 1.634019999999999917e-01 1.482404499999999814e+01 7.227249999999999375e+01 1.948389999999999873e+03
1.000000000000000194e-02 1.632699999999999985e-01 1.621710000000000207e+01 7.005679999999999552e+01 1.947375000000000000e+03
1.099999999999999936e-02 1.631545000000000079e-01 1.740674999999999883e+01 6.818309999999999604e+01 1.946500000000000000e+03
1.200000000000000025e-02 1.630570000000000075e-01 1.840484999999999971e+01 6.664804999999999779e+01 1.945759999999999991e+03
1.300000000000000114e-02 1.629749999999999810e-01 1.921855000000000047e+01 6.541110000000000468e+01 1.945154999999999973e+03
1.400000000000000203e-02 1.629079999999999973e-01 1.984965000000000046e+01 6.440425000000000466e+01 1.944659999999999854e+03
1.499999999999999944e-02 1.628514999999999824e-01 2.030154999999999887e+01 6.354455000000000098e+01 1.944250000000000000e+03
1.600000000000000033e-02 1.628040000000000043e-01 2.060029999999999717e+01 6.278669999999999618e+01 1.943914999999999964e+03
1.700000000000000122e-02 1.627655000000000074e-01 2.080915000000000248e+01 6.218325000000000102e+01 1.943650000000000091e+03
1.800000000000000211e-02 1.627389999999999948e-01 2.101874999999999716e+01 6.189034999999999798e+01 1.943465000000000146e+03
1.900000000000000300e-02 1.627299999999999858e-01 2.131470000000000198e+01 6.209929999999999950e+01 1.943409999999999854e+03
2.000000000000000042e-02 1.627419999999999978e-01 2.174354999999999905e+01 6.293555000000000632e+01 1.943505000000000109e+03
2.100000000000000130e-02 1.627760000000000040e-01 2.229524999999999935e+01 6.438389999999999702e+01 1.943764999999999873e+03
2.200000000000000219e-02 1.628280000000000005e-01 2.290960000000000107e+01 6.627554999999999552e+01 1.944170000000000073e+03
2.299999999999999961e-02 1.628930000000000100e-01 2.349889999999999901e+01 6.833549999999999613e+01 1.944664999999999964e+03
2.400000000000000050e-02 1.629605000000000081e-01 2.397684999999999889e+01 7.026290000000000191e+01 1.945195000000000164e+03
2.500000000000000139e-02 1.630234999999999879e-01 2.428275000000000006e+01 7.181190000000000850e+01 1.945690000000000055e+03
2.600000000000000228e-02 1.630749999999999977e-01 2.439390000000000214e+01 7.284620000000001028e+01 1.946105000000000018e+03
2.700000000000000316e-02 1.631130000000000080e-01 2.432529999999999859e+01 7.335554999999999382e+01 1.946410000000000082e+03
2.800000000000000058e-02 1.631360000000000032e-01 2.411829999999999785e+01 7.343404999999999916e+01 1.946610000000000127e+03
2.900000000000000147e-02 1.631480000000000152e-01 2.382334999999999781e+01 7.323300000000000409e+01 1.946710000000000036e+03
3.000000000000000236e-02 1.631520000000000192e-01 2.348384999999999678e+01 7.290595000000000425e+01 1.946755000000000109e+03
3.099999999999999978e-02 1.631509999999999905e-01 2.312465000000000259e+01 7.256350000000000477e+01 1.946750000000000000e+03
3.200000000000000067e-02 1.631475000000000009e-01 2.274895000000000067e+01 7.225015000000000498e+01 1.946730000000000018e+03
3.300000000000000155e-02 1.631420000000000092e-01 2.234244999999999948e+01 7.194565000000000055e+01 1.946690000000000055e+03
3.400000000000000244e-02 1.631334999999999869e-01 2.188289999999999935e+01 7.158729999999999905e+01 1.946630000000000109e+03
3.500000000000000333e-02 1.631210000000000160e-01 2.135139999999999816e+01 7.110275000000000034e+01 1.946534999999999854e+03
3.600000000000000422e-02 1.631024999999999836e-01 2.074239999999999995e+01 7.044364999999999100e+01 1.946404999999999973e+03
3.700000000000000511e-02 1.630780000000000007e-01 2.006920000000000215e+01 6.961079999999999757e+01 1.946220000000000027e+03
3.799999999999999906e-02 1.630479999999999985e-01 1.936460000000000292e+01 6.866315000000000168e+01 1.946000000000000000e+03
3.899999999999999994e-02 1.630159999999999942e-01 1.867575000000000074e+01 6.771045000000000869e+01 1.945759999999999991e+03
4.000000000000000083e-02 1.629849999999999910e-01 1.805485000000000184e+01 6.689050000000000296e+01 1.945525000000000091e+03
4.100000000000000172e-02 1.629595000000000071e-01 1.754879999999999995e+01 6.633870000000000289e+01 1.945324999999999818e+03
4.200000000000000261e-02 1.629440000000000055e-01 1.718959999999999866e+01 6.615780000000000882e+01 1.945199999999999818e+03
4.300000000000000350e-02 1.629400000000000015e-01 1.698864999999999981e+01 6.639499999999999602e+01 1.945160000000000082e+03
4.400000000000000439e-02 1.629495000000000249e-01 1.693489999999999895e+01 6.703249999999999886e+01 1.945219999999999800e+03
4.499999999999999833e-02 1.629710000000000047e-01 1.699790000000000134e+01 6.799115000000000464e+01 1.945375000000000000e+03
4.599999999999999922e-02 1.630030000000000090e-01 1.713364999999999938e+01 6.914615000000000578e+01 1.945610000000000127e+03
4.700000000000000011e-02 1.630395000000000039e-01 1.729225000000000279e+01 7.034900000000000375e+01 1.945884999999999991e+03
4.800000000000000100e-02 1.630780000000000007e-01 1.742500000000000071e+01 7.145154999999999745e+01 1.946174999999999955e+03
4.900000000000000189e-02 1.631130000000000080e-01 1.749044999999999916e+01 7.232604999999999507e+01 1.946440000000000055e+03
5.000000000000000278e-02 1.631410000000000082e-01 1.745810000000000173e+01 7.287940000000000396e+01 1.946659999999999854e+03
5.100000000000000366e-02 1.631589999999999985e-01 1.730959999999999965e+01 7.305930000000000746e+01 1.946795000000000073e+03
5.200000000000000455e-02 1.631650000000000045e-01 1.703795000000000215e+01 7.285280000000000200e+01 1.946849999999999909e+03
5.300000000000000544e-02 1.631584999999999841e-01 1.664570000000000149e+01 7.227955000000000041e+01 1.946805000000000064e+03
5.399999999999999939e-02 1.631394999999999929e-01 1.614150000000000063e+01 7.138165000000000759e+01 1.946670000000000073e+03
5.500000000000000028e-02 1.631095000000000184e-01 1.553794999999999860e+01 7.021285000000000309e+01 1.946450000000000045e+03
5.600000000000000117e-02 1.630699999999999927e-01 1.484904999999999831e+01 6.883009999999998740e+01 1.946150000000000091e+03
5.700000000000000205e-02 1.630220000000000002e-01 1.408930000000000149e+01 6.728710000000000946e+01 1.945784999999999854e+03
5.800000000000000294e-02 1.629674999999999874e-01 1.327319999999999922e+01 6.563194999999998913e+01 1.945369999999999891e+03
5.900000000000000383e-02 1.629079999999999973e-01 1.241576500000000038e+01 6.390775000000000006e+01 1.944920000000000073e+03
6.000000000000000472e-02 1.628449999999999898e-01 1.153332499999999960e+01 6.215465000000000373e+01 1.944434999999999945e+03
6.099999999999999867e-02 1.627799999999999803e-01 1.064425500000000113e+01 6.041339999999999577e+01 1.943940000000000055e+03
6.199999999999999956e-02 1.627149999999999985e-01 9.769619999999999749e+00 5.872854999999999848e+01 1.943440000000000055e+03
6.300000000000000044e-02 1.626515000000000044e-01 8.933284999999999698e+00 5.714990000000000236e+01 1.942954999999999927e+03
6.400000000000000133e-02 1.625914999999999999e-01 8.161685000000000301e+00 5.573319999999999652e+01 1.942490000000000009e+03
6.500000000000000222e-02 1.625369999999999870e-01 7.482549999999999812e+00 5.453900000000000148e+01 1.942070000000000164e+03
6.600000000000000311e-02 1.624909999999999966e-01 6.924064999999999692e+00 5.362945000000000562e+01 1.941710000000000036e+03
6.700000000000000400e-02 1.624550000000000161e-01 6.513030000000000541e+00 5.306499999999999773e+01 1.941430000000000064e+03
6.800000000000000488e-02 1.624320000000000208e-01 6.273410000000000153e+00 5.290010000000000190e+01 1.941244999999999891e+03
6.900000000000000577e-02 1.624224999999999974e-01 6.224885000000000446e+00 5.317905000000000371e+01 1.941159999999999854e+03
7.000000000000000666e-02 1.624304999999999777e-01 6.381725000000000314e+00 5.393330000000000268e+01 1.941204999999999927e+03
7.100000000000000755e-02 1.624549999999999883e-01 6.751999999999999780e+00 5.517884999999999707e+01 1.941380000000000109e+03
7.200000000000000844e-02 1.624975000000000169e-01 7.337290000000000312e+00 5.691544999999999987e+01 1.941690000000000055e+03
7.300000000000000933e-02 1.625579999999999803e-01 8.132749999999999702e+00 5.912694999999999368e+01 1.942139999999999873e+03
7.399999999999999634e-02 1.626365000000000172e-01 9.127549999999999386e+00 6.178255000000000052e+01 1.942724999999999909e+03
7.499999999999999722e-02 1.627315000000000011e-01 1.030579499999999982e+01 6.483939999999999770e+01 1.943440000000000055e+03
7.599999999999999811e-02 1.628425000000000011e-01 1.164730499999999935e+01 6.824524999999999864e+01 1.944279999999999973e+03
7.699999999999999900e-02 1.629665000000000141e-01 1.312897500000000051e+01 7.194184999999998809e+01 1.945220000000000027e+03
7.799999999999999989e-02 1.631024999999999836e-01 1.472589999999999932e+01 7.586865000000000236e+01 1.946259999999999991e+03
7.900000000000000078e-02 1.632474999999999898e-01 1.641274999999999906e+01 7.996565000000001078e+01 1.947365000000000009e+03
8.000000000000000167e-02 1.634010000000000185e-01 1.816465000000000174e+01 8.417674999999999841e+01 1.948539999999999964e+03
8.100000000000000255e-02 1.635594999999999966e-01 1.995819999999999794e+01 8.845175000000000409e+01 1.949759999999999991e+03
8.200000000000000344e-02 1.637219999999999787e-01 2.177244999999999919e+01 9.274869999999999948e+01 1.951009999999999991e+03
8.300000000000000433e-02 1.638864999999999905e-01 2.358905000000000030e+01 9.703310000000000457e+01 1.952279999999999973e+03
8.400000000000000522e-02 1.640524999999999900e-01 2.539274999999999949e+01 1.012817000000000007e+02 1.953565000000000055e+03
8.500000000000000611e-02 1.642180000000000029e-01 2.717114999999999725e+01 1.054775999999999954e+02 1.954849999999999909e+03
8.600000000000000699e-02 1.643824999999999870e-01 2.891460000000000008e+01 1.096115000000000066e+02 1.956134999999999991e+03
8.700000000000000788e-02 1.645455000000000112e-01 3.061584999999999823e+01 1.136794999999999902e+02 1.957409999999999854e+03
8.800000000000000877e-02 1.647075000000000067e-01 3.226930000000000121e+01 1.176814999999999998e+02 1.958670000000000073e+03
8.899999999999999578e-02 1.648675000000000002e-01 3.387069999999999936e+01 1.216184999999999974e+02 1.959925000000000182e+03
8.999999999999999667e-02 1.650254999999999916e-01 3.541655000000000086e+01 1.254929999999999950e+02 1.961160000000000082e+03
9.099999999999999756e-02 1.651814999999999811e-01 3.690380000000000393e+01 1.293045000000000186e+02 1.962389999999999873e+03
9.199999999999999845e-02 1.653355000000000241e-01 3.832945000000000135e+01 1.330509999999999877e+02 1.963599999999999909e+03
9.299999999999999933e-02 1.654869999999999952e-01 3.969044999999999845e+01 1.367289999999999850e+02 1.964795000000000073e+03
9.400000000000000022e-02 1.656360000000000054e-01 4.098340000000000316e+01 1.403310000000000173e+02 1.965970000000000027e+03
9.500000000000000111e-02 1.657824999999999993e-01 4.220479999999999876e+01 1.438469999999999800e+02 1.967125000000000000e+03
9.600000000000000200e-02 1.659255000000000035e-01 4.335099999999999909e+01 1.472674999999999841e+02 1.968255000000000109e+03
9.700000000000000289e-02 1.660650000000000182e-01 4.441825000000000045e+01 1.505785000000000196e+02 1.969365000000000009e+03
9.800000000000000377e-02 1.662000000000000144e-01 4.540285000000000082e+01 1.537674999999999841e+02 1.970434999999999945e+03
9.900000000000000466e-02 1.663310000000000066e-01 4.630100000000000193e+01 1.568209999999999980e+02 1.971474999999999909e+03
1.000000000000000056e-01 1.664565000000000072e-01 4.710930000000000462e+01 1.597264999999999873e+02 1.972474999999999909e+03
1.010000000000000064e-01 1.665770000000000028e-01 4.782439999999999714e+01 1.624705000000000155e+02 1.973429999999999836e+03
1.020000000000000073e-01 1.666910000000000058e-01 4.844320000000000448e+01 1.650420000000000016e+02 1.974339999999999918e+03
1.030000000000000082e-01 1.667980000000000018e-01 4.896289999999999765e+01 1.674290000000000020e+02 1.975199999999999818e+03
1.040000000000000091e-01 1.668985000000000052e-01 4.938115000000000521e+01 1.696214999999999975e+02 1.976005000000000109e+03
1.050000000000000100e-01 1.669910000000000005e-01 4.969594999999999629e+01 1.716115000000000066e+02 1.976744999999999891e+03
1.059999999999999970e-01 1.670764999999999889e-01 4.990599999999999881e+01 1.733899999999999864e+02 1.977430000000000064e+03
1.069999999999999979e-01 1.671535000000000104e-01 5.001075000000000159e+01 1.749530000000000030e+02 1.978050000000000182e+03
1.079999999999999988e-01 1.672214999999999951e-01 5.001055000000000206e+01 1.762959999999999923e+02 1.978605000000000018e+03
1.089999999999999997e-01 1.672819999999999863e-01 4.990675000000000239e+01 1.774184999999999945e+02 1.979090000000000146e+03
1.100000000000000006e-01 1.673334999999999961e-01 4.970194999999999652e+01 1.783240000000000123e+02 1.979509999999999991e+03
1.110000000000000014e-01 1.673764999999999836e-01 4.939995000000000402e+01 1.790155000000000030e+02 1.979860000000000127e+03
1.120000000000000023e-01 1.674110000000000043e-01 4.900580000000000069e+01 1.795024999999999977e+02 1.980144999999999982e+03
1.130000000000000032e-01 1.674375000000000169e-01 4.852585000000000548e+01 1.797969999999999970e+02 1.980369999999999891e+03
1.140000000000000041e-01 1.674569999999999947e-01 4.796750000000000114e+01 1.799124999999999943e+02 1.980529999999999973e+03
1.150000000000000050e-01 1.674689999999999790e-01 4.733915000000000362e+01 1.798659999999999854e+02 1.980630000000000109e+03
1.160000000000000059e-01 1.674734999999999974e-01 4.664979999999999905e+01 1.796759999999999877e+02 1.980680000000000064e+03
1.170000000000000068e-01 1.674729999999999830e-01 4.590910000000000224e+01 1.793620000000000232e+02 1.980679999999999836e+03
1.180000000000000077e-01 1.674670000000000047e-01 4.512659999999999627e+01 1.789445000000000050e+02 1.980639999999999873e+03
1.190000000000000085e-01 1.674569999999999947e-01 4.431199999999999761e+01 1.784415000000000191e+02 1.980565000000000055e+03
1.200000000000000094e-01 1.674430000000000085e-01 4.347445000000000448e+01 1.778729999999999905e+02 1.980460000000000036e+03
1.209999999999999964e-01 1.674255000000000049e-01 4.262245000000000061e+01 1.772554999999999836e+02 1.980325000000000045e+03
1.219999999999999973e-01 1.674054999999999849e-01 4.176385000000000502e+01 1.766039999999999850e+02 1.980174999999999955e+03
1.229999999999999982e-01 1.673840000000000050e-01 4.090534999999999854e+01 1.759300000000000068e+02 1.980000000000000000e+03
1.239999999999999991e-01 1.673609999999999820e-01 4.005259999999999820e+01 1.752450000000000045e+02 1.979815000000000055e+03
1.250000000000000000e-01 1.673364999999999991e-01 3.921014999999999873e+01 1.745554999999999950e+02 1.979630000000000109e+03
1.260000000000000009e-01 1.673120000000000163e-01 3.838110000000000355e+01 1.738654999999999973e+02 1.979430000000000064e+03
1.270000000000000018e-01 1.672859999999999903e-01 3.756754999999999711e+01 1.731779999999999973e+02 1.979224999999999909e+03
1.280000000000000027e-01 1.672609999999999930e-01 3.677025000000000432e+01 1.724920000000000186e+02 1.979019999999999982e+03
1.290000000000000036e-01 1.672345000000000081e-01 3.598914999999999509e+01 1.718050000000000068e+02 1.978809999999999945e+03
1.300000000000000044e-01 1.672080000000000233e-01 3.522294999999999732e+01 1.711114999999999782e+02 1.978599999999999909e+03
1.310000000000000053e-01 1.671810000000000240e-01 3.446959999999999980e+01 1.704064999999999941e+02 1.978384999999999991e+03
1.320000000000000062e-01 1.671529999999999960e-01 3.372650000000000148e+01 1.696834999999999809e+02 1.978164999999999964e+03
1.330000000000000071e-01 1.671245000000000092e-01 3.299034999999999940e+01 1.689325000000000045e+02 1.977934999999999945e+03
1.340000000000000080e-01 1.670949999999999935e-01 3.225764999999999816e+01 1.681474999999999795e+02 1.977700000000000045e+03
1.350000000000000089e-01 1.670635000000000037e-01 3.152479999999999905e+01 1.673190000000000168e+02 1.977454999999999927e+03
1.360000000000000098e-01 1.670309999999999850e-01 3.078829999999999956e+01 1.664404999999999859e+02 1.977190000000000055e+03
1.370000000000000107e-01 1.669959999999999778e-01 3.004490000000000194e+01 1.655039999999999907e+02 1.976914999999999964e+03
1.380000000000000115e-01 1.669590000000000241e-01 2.929175000000000040e+01 1.645060000000000002e+02 1.976619999999999891e+03
1.390000000000000124e-01 1.669194999999999984e-01 2.852665000000000006e+01 1.634424999999999955e+02 1.976309999999999945e+03
1.400000000000000133e-01 1.668779999999999986e-01 2.774819999999999709e+01 1.623114999999999952e+02 1.975980000000000018e+03
1.410000000000000142e-01 1.668334999999999957e-01 2.695589999999999975e+01 1.611134999999999877e+02 1.975630000000000109e+03
1.420000000000000151e-01 1.667865000000000042e-01 2.615005000000000024e+01 1.598520000000000039e+02 1.975255000000000109e+03
1.430000000000000160e-01 1.667374999999999829e-01 2.533204999999999885e+01 1.585310000000000059e+02 1.974869999999999891e+03
1.440000000000000169e-01 1.666860000000000008e-01 2.450410000000000110e+01 1.571594999999999800e+02 1.974465000000000146e+03
1.450000000000000178e-01 1.666324999999999890e-01 2.366944999999999766e+01 1.557454999999999927e+02 1.974039999999999964e+03
1.459999999999999909e-01 1.665774999999999895e-01 2.283204999999999885e+01 1.542995000000000232e+02 1.973610000000000127e+03
1.469999999999999918e-01 1.665210000000000024e-01 2.199660000000000082e+01 1.528360000000000127e+02 1.973160000000000082e+03
1.479999999999999927e-01 1.664640000000000009e-01 2.116825000000000045e+01 1.513665000000000020e+02 1.972710000000000036e+03
1.489999999999999936e-01 1.664065000000000127e-01 2.035239999999999938e+01 1.499055000000000177e+02 1.972255000000000109e+03
1.499999999999999944e-01 1.663485000000000102e-01 1.955470000000000041e+01 1.484675000000000011e+02 1.971804999999999836e+03
1.509999999999999953e-01 1.662925000000000098e-01 1.878059999999999974e+01 1.470645000000000095e+02 1.971355000000000018e+03
1.519999999999999962e-01 1.662365000000000093e-01 1.803519999999999968e+01 1.457094999999999914e+02 1.970914999999999964e+03
1.529999999999999971e-01 1.661825000000000108e-01 1.732319999999999993e+01 1.444130000000000109e+02 1.970490000000000009e+03
1.539999999999999980e-01 1.661305000000000143e-01 1.664874999999999972e+01 1.431845000000000141e+02 1.970075000000000045e+03
1.549999999999999989e-01 1.660810000000000064e-01 1.601505000000000223e+01 1.420310000000000059e+02 1.969679999999999836e+03
1.559999999999999998e-01 1.660340000000000149e-01 1.542464999999999975e+01 1.409579999999999984e+02 1.969309999999999945e+03
1.570000000000000007e-01 1.659899999999999987e-01 1.487920000000000087e+01 1.399680000000000177e+02 1.968960000000000036e+03
1.580000000000000016e-01 1.659490000000000132e-01 1.437950000000000017e+01 1.390620000000000118e+02 1.968630000000000109e+03
1.590000000000000024e-01 1.659110000000000029e-01 1.392565000000000097e+01 1.382400000000000091e+02 1.968329999999999927e+03
