# t [s], A [cm^2], U [cm/s], P [cPa], c [cm/s]
1.000000000000000021e-03 5.240380000000000038e-01 4.755299999999997029e-03 9.327405000000000257e+01 1.579970000000000027e+03
2.000000000000000042e-03 5.240290000000000781e-01 -2.725410000000000159e-03 9.324590000000000600e+01 1.579965000000000146e+03
3.000000000000000062e-03 5.240739999999999288e-01 9.300640000000000296e-02 9.334260000000000446e+01 1.579990000000000009e+03
4.000000000000000083e-03 5.241160000000000263e-01 1.931397300000000095e-01 9.346115000000000350e+01 1.580019999999999982e+03
5.000000000000000104e-03 5.240945000000000187e-01 1.707974999999999910e-01 9.340735000000000809e+01 1.580014999999999873e+03
6.000000000000000125e-03 5.240350000000000286e-01 6.495950000000000335e-02 9.318295000000000528e+01 1.579954999999999927e+03
7.000000000000000146e-03 5.239819999999999478e-01 -3.547949999999999715e-02 9.289664999999999395e+01 1.579880000000000109e+03
8.000000000000000167e-03 5.239034999999999664e-01 -2.020449999999999191e-01 9.248335000000000150e+01 1.579769999999999982e+03
9.000000000000001055e-03 5.237724999999999742e-01 -4.945149999999999268e-01 9.185005000000001019e+01 1.579605000000000018e+03
1.000000000000000194e-02 5.235910000000000286e-01 -9.070550000000000557e-01 9.096574999999999989e+01 1.579369999999999891e+03
1.099999999999999936e-02 5.233440000000000314e-01 -1.455624999999999947e+00 8.977609999999999957e+01 1.579054999999999836e+03
1.200000000000000025e-02 5.230170000000000652e-01 -2.157575000000000465e+00 8.821815000000000850e+01 1.578630000000000109e+03
1.300000000000000114e-02 5.226275000000000226e-01 -2.953019999999999978e+00 8.632235000000000014e+01 1.578105000000000018e+03
1.400000000000000203e-02 5.222320000000000295e-01 -3.693864999999999732e+00 8.425565000000000282e+01 1.577505000000000109e+03
1.499999999999999944e-02 5.218909999999999938e-01 -4.214796999999999905e+00 8.225239999999999441e+01 1.576909999999999854e+03
1.600000000000000033e-02 5.216374999999999762e-01 -4.411972999999999701e+00 8.050499999999999545e+01 1.576355000000000018e+03
1.700000000000000122e-02 5.214674999999999727e-01 -4.275540999999999592e+00 7.909350000000000591e+01 1.575869999999999891e+03
1.800000000000000211e-02 5.213464999999999350e-01 -3.875869999999999926e+00 7.797585000000000832e+01 1.575454999999999927e+03
1.900000000000000300e-02 5.212289999999999424e-01 -3.325044999999999806e+00 7.702285000000000537e+01 1.575079999999999927e+03
2.000000000000000042e-02 5.210755000000000248e-01 -2.733155499999999627e+00 7.607574999999999932e+01 1.574715000000000146e+03
2.100000000000000130e-02 5.208639999999999937e-01 -2.172860000000000014e+00 7.500395000000000323e+01 1.574325000000000045e+03
2.200000000000000219e-02 5.205959999999999477e-01 -1.662630000000000052e+00 7.374629999999999086e+01 1.573889999999999873e+03
2.299999999999999961e-02 5.202915000000000179e-01 -1.173410000000000064e+00 7.231945000000000334e+01 1.573404999999999973e+03
2.400000000000000050e-02 5.199770000000000225e-01 -6.537950000000001261e-01 7.079540000000000077e+01 1.572900000000000091e+03
2.500000000000000139e-02 5.196760000000000268e-01 -6.065500000000012548e-02 6.926104999999999734e+01 1.572384999999999991e+03
2.600000000000000228e-02 5.193959999999999688e-01 6.175250000000001016e-01 6.777844999999999231e+01 1.571875000000000000e+03
2.700000000000000316e-02 5.191299999999999804e-01 1.351209999999999800e+00 6.635920000000000130e+01 1.571380000000000109e+03
2.800000000000000058e-02 5.188589999999999591e-01 2.074019999999999975e+00 6.495769999999998845e+01 1.570884999999999991e+03
2.900000000000000147e-02 5.185549999999999882e-01 2.697340000000000515e+00 6.348185000000000855e+01 1.570375000000000000e+03
3.000000000000000236e-02 5.181894999999999696e-01 3.130609999999999893e+00 6.181695000000000562e+01 1.569819999999999936e+03
3.099999999999999978e-02 5.177430000000000643e-01 3.302805000000000213e+00 5.985685000000000144e+01 1.569190000000000055e+03
3.200000000000000067e-02 5.172100000000000586e-01 3.179985000000000284e+00 5.753520000000000323e+01 1.568474999999999909e+03
3.300000000000000155e-02 5.165994999999999893e-01 2.773729999999999585e+00 5.484705000000000297e+01 1.567660000000000082e+03
3.400000000000000244e-02 5.159365000000000201e-01 2.138674999999999660e+00 5.185594999999999999e+01 1.566759999999999991e+03
3.500000000000000333e-02 5.152554999999999774e-01 1.359585000000000043e+00 4.868399999999999750e+01 1.565799999999999955e+03
3.600000000000000422e-02 5.145945000000000658e-01 5.340199999999999392e-01 4.549044999999999561e+01 1.564824999999999818e+03
3.700000000000000511e-02 5.139880000000000004e-01 -2.447800000000004417e-01 4.244530000000000314e+01 1.563875000000000000e+03
3.799999999999999906e-02 5.134634999999999616e-01 -9.001200000000002532e-01 3.970555000000000234e+01 1.563000000000000000e+03
3.899999999999999994e-02 5.130395000000000927e-01 -1.378144999999999953e+00 3.739835000000000065e+01 1.562230000000000018e+03
4.000000000000000083e-02 5.127254999999999452e-01 -1.648570000000000091e+00 3.561119999999999663e+01 1.561605000000000018e+03
4.100000000000000172e-02 5.125224999999999920e-01 -1.701205000000000300e+00 3.439045000000000130e+01 1.561134999999999991e+03
4.200000000000000261e-02 5.124279999999999946e-01 -1.539966500000000016e+00 3.374604999999999677e+01 1.560839999999999918e+03
4.300000000000000350e-02 5.124360000000000026e-01 -1.176169999999999938e+00 3.366055000000000064e+01 1.560710000000000036e+03
4.400000000000000439e-02 5.125370000000000203e-01 -6.226949999999999985e-01 3.409929999999999950e+01 1.560744999999999891e+03
4.499999999999999833e-02 5.127245000000000275e-01 1.097749999999999559e-01 3.502045000000000385e+01 1.560934999999999945e+03
4.599999999999999922e-02 5.129924999999999624e-01 1.013825000000000198e+00 3.638155000000000427e+01 1.561269999999999982e+03
4.700000000000000011e-02 5.133349999999999858e-01 2.084014999999999951e+00 3.814244999999999663e+01 1.561735000000000127e+03
4.800000000000000100e-02 5.137464999999999948e-01 3.313979999999999926e+00 4.026505000000000223e+01 1.562325000000000045e+03
4.900000000000000189e-02 5.142200000000000104e-01 4.693369999999999820e+00 4.271044999999999447e+01 1.563014999999999873e+03
5.000000000000000278e-02 5.147470000000000656e-01 6.205395000000000216e+00 4.543599999999999994e+01 1.563804999999999836e+03
5.100000000000000366e-02 5.153174999999999839e-01 7.826165500000000108e+00 4.839320000000000022e+01 1.564680000000000064e+03
5.200000000000000455e-02 5.159190000000000165e-01 9.525104999999999933e+00 5.152709999999999724e+01 1.565614999999999782e+03
5.300000000000000544e-02 5.165395000000000403e-01 1.126736000000000004e+01 5.477785000000000082e+01 1.566599999999999909e+03
5.399999999999999939e-02 5.171655000000000557e-01 1.301631000000000071e+01 5.808339999999999748e+01 1.567615000000000009e+03
5.500000000000000028e-02 5.177855000000000096e-01 1.473687999999999931e+01 6.138389999999999702e+01 1.568644999999999982e+03
5.600000000000000117e-02 5.183900000000000174e-01 1.639813000000000187e+01 6.462550000000000239e+01 1.569670000000000073e+03
5.700000000000000205e-02 5.189715000000000300e-01 1.797530000000000072e+01 6.776394999999999413e+01 1.570675000000000182e+03
5.800000000000000294e-02 5.195250000000000146e-01 1.945080000000000098e+01 7.076730000000000587e+01 1.571654999999999973e+03
5.900000000000000383e-02 5.200500000000000123e-01 2.081469999999999843e+01 7.361679999999999779e+01 1.572589999999999918e+03
6.000000000000000472e-02 5.205454999999999943e-01 2.206374999999999886e+01 7.630684999999999718e+01 1.573490000000000009e+03
6.099999999999999867e-02 5.210155000000000758e-01 2.320069999999999766e+01 7.884360000000000923e+01 1.574345000000000027e+03
6.199999999999999956e-02 5.214634999999999687e-01 2.423280000000000101e+01 8.124289999999999168e+01 1.575164999999999964e+03
6.300000000000000044e-02 5.218935000000000102e-01 2.517049999999999699e+01 8.352789999999998827e+01 1.575944999999999936e+03
6.400000000000000133e-02 5.223130000000000273e-01 2.602655000000000030e+01 8.572634999999999650e+01 1.576695000000000164e+03
6.500000000000000222e-02 5.227254999999999541e-01 2.681459999999999866e+01 8.786824999999998909e+01 1.577434999999999945e+03
6.600000000000000311e-02 5.231385000000000618e-01 2.754860000000000042e+01 8.998369999999999891e+01 1.578150000000000091e+03
6.700000000000000400e-02 5.235549999999999926e-01 2.824180000000000135e+01 9.210054999999999836e+01 1.578869999999999891e+03
6.800000000000000488e-02 5.239800000000000013e-01 2.890610000000000213e+01 9.424285000000000423e+01 1.579599999999999909e+03
6.900000000000000577e-02 5.244159999999999933e-01 2.955109999999999815e+01 9.642885000000001128e+01 1.580329999999999927e+03
7.000000000000000666e-02 5.248639999999999972e-01 3.018350000000000222e+01 9.867040000000000077e+01 1.581079999999999927e+03
7.100000000000000755e-02 5.253244999999999720e-01 3.080669999999999931e+01 1.009705500000000029e+02 1.581840000000000146e+03
7.200000000000000844e-02 5.257955000000000823e-01 3.142014999999999958e+01 1.033250500000000045e+02 1.582619999999999891e+03
7.300000000000000933e-02 5.262735000000000607e-01 3.201989999999999981e+01 1.057205000000000013e+02 1.583409999999999854e+03
7.399999999999999634e-02 5.267534999999999856e-01 3.259844999999999970e+01 1.081365000000000123e+02 1.584210000000000036e+03
7.499999999999999722e-02 5.272299999999999764e-01 3.314569999999999794e+01 1.105459999999999923e+02 1.585005000000000109e+03
7.599999999999999811e-02 5.276975000000000415e-01 3.364974999999999739e+01 1.129180000000000064e+02 1.585799999999999955e+03
7.699999999999999900e-02 5.281485000000000207e-01 3.409779999999999944e+01 1.152195000000000107e+02 1.586575000000000045e+03
7.799999999999999989e-02 5.285769999999999635e-01 3.447719999999999629e+01 1.174170000000000016e+02 1.587315000000000055e+03
7.900000000000000078e-02 5.289770000000000305e-01 3.477604999999999791e+01 1.194780000000000086e+02 1.588019999999999982e+03
8.000000000000000167e-02 5.293430000000000080e-01 3.498444999999999538e+01 1.213745000000000118e+02 1.588675000000000182e+03
8.100000000000000255e-02 5.296719999999999207e-01 3.509445000000000192e+01 1.230840000000000032e+02 1.589279999999999973e+03
8.200000000000000344e-02 5.299610000000000154e-01 3.510110000000000241e+01 1.245879999999999939e+02 1.589819999999999936e+03
8.300000000000000433e-02 5.302084999999999715e-01 3.500209999999999866e+01 1.258770000000000095e+02 1.590289999999999964e+03
8.400000000000000522e-02 5.304145000000000110e-01 3.479819999999999425e+01 1.269465000000000003e+02 1.590699999999999818e+03
8.500000000000000611e-02 5.305794999999999817e-01 3.449309999999999832e+01 1.278004999999999995e+02 1.591034999999999854e+03
8.600000000000000699e-02 5.307060000000000111e-01 3.409284999999999854e+01 1.284470000000000027e+02 1.591304999999999836e+03
8.700000000000000788e-02 5.307969999999999633e-01 3.360634999999999906e+01 1.289005000000000223e+02 1.591509999999999991e+03
8.800000000000000877e-02 5.308564999999999534e-01 3.304415000000000191e+01 1.291800000000000068e+02 1.591655000000000200e+03
8.899999999999999578e-02 5.308884999999999854e-01 3.241844999999999999e+01 1.293085000000000093e+02 1.591750000000000000e+03
8.999999999999999667e-02 5.308979999999999810e-01 3.174280000000000257e+01 1.293110000000000070e+02 1.591800000000000182e+03
9.099999999999999756e-02 5.308905000000000429e-01 3.103105000000000047e+01 1.292139999999999986e+02 1.591809999999999945e+03
9.199999999999999845e-02 5.308705000000000229e-01 3.029724999999999824e+01 1.290434999999999945e+02 1.591795000000000073e+03
9.299999999999999933e-02 5.308424999999999949e-01 2.955494999999999806e+01 1.288255000000000052e+02 1.591750000000000000e+03
9.400000000000000022e-02 5.308114999999999917e-01 2.881674999999999898e+01 1.285844999999999914e+02 1.591699999999999818e+03
9.500000000000000111e-02 5.307800000000000296e-01 2.809380000000000166e+01 1.283410000000000082e+02 1.591639999999999873e+03
9.600000000000000200e-02 5.307520000000000016e-01 2.739529999999999887e+01 1.281129999999999995e+02 1.591579999999999927e+03
9.700000000000000289e-02 5.307299999999999240e-01 2.672840000000000060e+01 1.279140000000000015e+02 1.591519999999999982e+03
9.800000000000000377e-02 5.307144999999999779e-01 2.609774999999999778e+01 1.277530000000000001e+02 1.591465000000000146e+03
9.900000000000000466e-02 5.307060000000000111e-01 2.550560000000000116e+01 1.276340000000000003e+02 1.591429999999999836e+03
1.000000000000000056e-01 5.307049999999999823e-01 2.495185000000000031e+01 1.275579999999999927e+02 1.591400000000000091e+03
1.010000000000000064e-01 5.307094999999999452e-01 2.443420000000000059e+01 1.275204999999999984e+02 1.591375000000000000e+03
1.020000000000000073e-01 5.307180000000000231e-01 2.394819999999999993e+01 1.275125000000000171e+02 1.591369999999999891e+03
1.030000000000000082e-01 5.307279999999999776e-01 2.348805000000000121e+01 1.275240000000000009e+02 1.591365000000000009e+03
1.040000000000000091e-01 5.307370000000000143e-01 2.304650000000000176e+01 1.275409999999999968e+02 1.591360000000000127e+03
1.050000000000000100e-01 5.307425000000000059e-01 2.261554999999999893e+01 1.275490000000000066e+02 1.591355000000000018e+03
1.059999999999999970e-01 5.307405000000000594e-01 2.218684999999999974e+01 1.275319999999999965e+02 1.591345000000000027e+03
1.069999999999999979e-01 5.307300000000000351e-01 2.175209999999999866e+01 1.274759999999999991e+02 1.591329999999999927e+03
1.079999999999999988e-01 5.307064999999999699e-01 2.130360000000000298e+01 1.273654999999999973e+02 1.591295000000000073e+03
1.089999999999999997e-01 5.306690000000000573e-01 2.083440000000000225e+01 1.271885000000000048e+02 1.591244999999999891e+03
1.100000000000000006e-01 5.306155000000000177e-01 2.033885000000000076e+01 1.269350000000000023e+02 1.591164999999999964e+03
1.110000000000000014e-01 5.305455000000000032e-01 1.981280000000000285e+01 1.265979999999999990e+02 1.591070000000000164e+03
1.120000000000000023e-01 5.304579999999999851e-01 1.925404999999999944e+01 1.261740000000000066e+02 1.590940000000000055e+03
1.130000000000000032e-01 5.303539999999999921e-01 1.866210000000000235e+01 1.256624999999999943e+02 1.590785000000000082e+03
1.140000000000000041e-01 5.302335000000000242e-01 1.803869999999999862e+01 1.250674999999999955e+02 1.590610000000000127e+03
1.150000000000000050e-01 5.300994999999999457e-01 1.738729999999999976e+01 1.243969999999999914e+02 1.590404999999999973e+03
1.160000000000000059e-01 5.299540000000000362e-01 1.671340000000000003e+01 1.236610000000000014e+02 1.590184999999999945e+03
1.170000000000000068e-01 5.297994999999999788e-01 1.602394999999999925e+01 1.228739999999999952e+02 1.589934999999999945e+03
1.180000000000000077e-01 5.296399999999999997e-01 1.532730000000000103e+01 1.220524999999999949e+02 1.589684999999999945e+03
1.190000000000000085e-01 5.294784999999999631e-01 1.463284499999999966e+01 1.212134999999999962e+02 1.589420000000000073e+03
1.200000000000000094e-01 5.293194999999999428e-01 1.395028999999999897e+01 1.203770000000000095e+02 1.589150000000000091e+03
1.209999999999999964e-01 5.291660000000000252e-01 1.328967499999999902e+01 1.195619999999999976e+02 1.588889999999999873e+03
1.219999999999999973e-01 5.290209999999999635e-01 1.266062000000000154e+01 1.187870000000000061e+02 1.588634999999999991e+03
1.229999999999999982e-01 5.288895000000000124e-01 1.207209499999999913e+01 1.180690000000000026e+02 1.588394999999999982e+03
1.239999999999999991e-01 5.287714999999999499e-01 1.153184000000000076e+01 1.174234999999999900e+02 1.588175000000000182e+03
1.250000000000000000e-01 5.286714999999999609e-01 1.104624000000000095e+01 1.168619999999999948e+02 1.587980000000000018e+03
1.260000000000000009e-01 5.285895000000000454e-01 1.061999499999999941e+01 1.163940000000000055e+02 1.587809999999999945e+03
1.270000000000000018e-01 5.285269999999999690e-01 1.025590000000000046e+01 1.160250000000000057e+02 1.587670000000000073e+03
1.280000000000000027e-01 5.284834999999999949e-01 9.955085000000000406e+00 1.157554999999999978e+02 1.587559999999999945e+03
1.290000000000000036e-01 5.284579999999999833e-01 9.716580000000000439e+00 1.155850000000000080e+02 1.587480000000000018e+03
1.300000000000000044e-01 5.284499999999999753e-01 9.537865000000000038e+00 1.155084999999999980e+02 1.587429999999999836e+03
1.310000000000000053e-01 5.284569999999999546e-01 9.414804999999999424e+00 1.155175000000000125e+02 1.587405000000000200e+03
1.320000000000000062e-01 5.284780000000000033e-01 9.342044999999998822e+00 1.156015000000000015e+02 1.587414999999999964e+03
1.330000000000000071e-01 5.285090000000000066e-01 9.313250000000000028e+00 1.157495000000000118e+02 1.587434999999999945e+03
1.340000000000000080e-01 5.285490000000000466e-01 9.321315000000000239e+00 1.159475000000000051e+02 1.587480000000000018e+03
1.350000000000000089e-01 5.285950000000000371e-01 9.358979999999998967e+00 1.161820000000000022e+02 1.587534999999999854e+03
1.360000000000000098e-01 5.286440000000000028e-01 9.418784999999999741e+00 1.164399999999999977e+02 1.587605000000000018e+03
1.370000000000000107e-01 5.286930000000000796e-01 9.493484999999999729e+00 1.167079999999999984e+02 1.587674999999999955e+03
1.380000000000000115e-01 5.287420000000000453e-01 9.576290000000000191e+00 1.169749999999999943e+02 1.587755000000000109e+03
1.390000000000000124e-01 5.287874999999999659e-01 9.661059999999999093e+00 1.172309999999999945e+02 1.587829999999999927e+03
1.400000000000000133e-01 5.288289999999999935e-01 9.742430000000000589e+00 1.174669999999999987e+02 1.587900000000000091e+03
1.410000000000000142e-01 5.288650000000000295e-01 9.815950000000000841e+00 1.176765000000000043e+02 1.587964999999999918e+03
1.420000000000000151e-01 5.288950000000000040e-01 9.878090000000000259e+00 1.178559999999999945e+02 1.588025000000000091e+03
1.430000000000000160e-01 5.289185000000000692e-01 9.926275000000000404e+00 1.180020000000000095e+02 1.588074999999999818e+03
1.440000000000000169e-01 5.289355000000000029e-01 9.958800000000000097e+00 1.181140000000000043e+02 1.588115000000000009e+03
1.450000000000000178e-01 5.289470000000000560e-01 9.974985000000000213e+00 1.181924999999999955e+02 1.588144999999999982e+03
1.459999999999999909e-01 5.289524999999999366e-01 9.974949999999999761e+00 1.182394999999999925e+02 1.588164999999999964e+03
1.469999999999999918e-01 5.289535000000000764e-01 9.959469999999999601e+00 1.182595000000000027e+02 1.588180000000000064e+03
1.479999999999999927e-01 5.289500000000000313e-01 9.930035000000000167e+00 1.182554999999999978e+02 1.588180000000000064e+03
1.489999999999999936e-01 5.289444999999999286e-01 9.888645000000000351e+00 1.182340000000000089e+02 1.588184999999999945e+03
1.499999999999999944e-01 5.289365000000000316e-01 9.837654999999999816e+00 1.181984999999999957e+02 1.588174999999999955e+03
1.509999999999999953e-01 5.289280000000000648e-01 9.779710000000001457e+00 1.181550000000000011e+02 1.588164999999999964e+03
1.519999999999999962e-01 5.289194999999999869e-01 9.717470000000000496e+00 1.181105000000000018e+02 1.588154999999999973e+03
1.529999999999999971e-01 5.289120000000000488e-01 9.653645000000000920e+00 1.180679999999999978e+02 1.588144999999999982e+03
1.539999999999999980e-01 5.289064999999999461e-01 9.590830000000000410e+00 1.180324999999999989e+02 1.588134999999999991e+03
1.549999999999999989e-01 5.289030000000000120e-01 9.531204999999999927e+00 1.180074999999999932e+02 1.588130000000000109e+03
1.559999999999999998e-01 5.289030000000000120e-01 9.476720000000000255e+00 1.179969999999999999e+02 1.588130000000000109e+03
1.570000000000000007e-01 5.289059999999999873e-01 9.428869999999999862e+00 1.180010000000000048e+02 1.588130000000000109e+03
1.580000000000000016e-01 5.289120000000000488e-01 9.388564999999999827e+00 1.180219999999999914e+02 1.588134999999999991e+03
1.590000000000000024e-01 5.289215000000000444e-01 9.356355000000000643e+00 1.180589999999999975e+02 1.588150000000000091e+03
