# t [s], A [cm^2], U [cm/s], P [cPa], c [cm/s]
1.000000000000000021e-03 1.681730000000000169e-01 3.908845499999999973e-01 9.555924999999999159e+01 2.222444999999999709e+03
2.000000000000000042e-03 1.681194999999999773e-01 1.980528999999999984e+00 9.175964999999999350e+01 2.221940000000000055e+03
3.000000000000000062e-03 1.679910000000000014e-01 3.923542499999999933e+00 8.656630000000001246e+01 2.220769999999999982e+03
4.000000000000000083e-03 1.678250000000000020e-01 6.117936000000000263e+00 8.124244999999999095e+01 2.219279999999999745e+03
5.000000000000000104e-03 1.676559999999999995e-01 8.449460000000000193e+00 7.679375000000000284e+01 2.217775000000000091e+03
6.000000000000000125e-03 1.674980000000000080e-01 1.064656500000000072e+01 7.324394999999999811e+01 2.216385000000000218e+03
7.000000000000000146e-03 1.673520000000000008e-01 1.248850000000000016e+01 7.011074999999999591e+01 2.215135000000000218e+03
8.000000000000000167e-03 1.672219999999999818e-01 1.398601999999999990e+01 6.731770000000000209e+01 2.214039999999999964e+03
9.000000000000001055e-03 1.671124999999999972e-01 1.520410000000000039e+01 6.503079999999999927e+01 2.213125000000000000e+03
1.000000000000000194e-02 1.670240000000000058e-01 1.616460000000000008e+01 6.325265000000000271e+01 2.212394999999999982e+03
1.099999999999999936e-02 1.669545000000000057e-01 1.688635000000000019e+01 6.190444999999999709e+01 2.211835000000000036e+03
1.200000000000000025e-02 1.669005000000000072e-01 1.737550000000000239e+01 6.085954999999999870e+01 2.211404999999999745e+03
1.300000000000000114e-02 1.668565000000000187e-01 1.763949999999999818e+01 5.994745000000000346e+01 2.211060000000000400e+03
1.400000000000000203e-02 1.668205000000000104e-01 1.776620000000000132e+01 5.917879999999999541e+01 2.210784999999999854e+03
1.499999999999999944e-02 1.667994999999999894e-01 1.794919999999999760e+01 5.893179999999999552e+01 2.210630000000000109e+03
1.600000000000000033e-02 1.668050000000000088e-01 1.839245000000000019e+01 5.977070000000000505e+01 2.210684999999999945e+03
1.700000000000000122e-02 1.668470000000000231e-01 1.917334999999999923e+01 6.200849999999999795e+01 2.211034999999999854e+03
1.800000000000000211e-02 1.669235000000000024e-01 2.018110000000000070e+01 6.539225000000000421e+01 2.211664999999999964e+03
1.900000000000000300e-02 1.670190000000000008e-01 2.116550000000000153e+01 6.913829999999998677e+01 2.212470000000000255e+03
2.000000000000000042e-02 1.671139999999999848e-01 2.185435000000000016e+01 7.226425000000000409e+01 2.213274999999999636e+03
2.100000000000000130e-02 1.671845000000000137e-01 2.206929999999999836e+01 7.400334999999999752e+01 2.213894999999999982e+03
2.200000000000000219e-02 1.672195000000000209e-01 2.178705000000000069e+01 7.409104999999999563e+01 2.214224999999999909e+03
2.299999999999999961e-02 1.672174999999999911e-01 2.112715000000000032e+01 7.280859999999999843e+01 2.214239999999999782e+03
2.400000000000000050e-02 1.671885000000000177e-01 2.028195000000000192e+01 7.079279999999999973e+01 2.214014999999999873e+03
2.500000000000000139e-02 1.671465000000000034e-01 1.942795000000000272e+01 6.872849999999999682e+01 2.213675000000000182e+03
2.600000000000000228e-02 1.671044999999999892e-01 1.866154999999999831e+01 6.707490000000001373e+01 2.213320000000000164e+03
2.700000000000000316e-02 1.670685000000000087e-01 1.798039999999999949e+01 6.593689999999999429e+01 2.213015000000000327e+03
2.800000000000000058e-02 1.670395000000000074e-01 1.730959999999999965e+01 6.510505000000000564e+01 2.212765000000000327e+03
2.900000000000000147e-02 1.670110000000000205e-01 1.655389999999999873e+01 6.421670000000000300e+01 2.212525000000000091e+03
3.000000000000000236e-02 1.669754999999999989e-01 1.565204999999999913e+01 6.295700000000000074e+01 2.212234999999999673e+03
3.099999999999999978e-02 1.669299999999999951e-01 1.461449999999999960e+01 6.122099999999999653e+01 2.211855000000000018e+03
3.200000000000000067e-02 1.668745000000000089e-01 1.353125000000000000e+01 5.918260000000000076e+01 2.211399999999999636e+03
3.300000000000000155e-02 1.668175000000000074e-01 1.254769999999999897e+01 5.724790000000000134e+01 2.210920000000000073e+03
3.400000000000000244e-02 1.667700000000000016e-01 1.181864999999999988e+01 5.591649999999999920e+01 2.210514999999999873e+03
3.500000000000000333e-02 1.667430000000000023e-01 1.145785000000000053e+01 5.560490000000000066e+01 2.210275000000000091e+03
3.600000000000000422e-02 1.667445000000000177e-01 1.150134999999999863e+01 5.650124999999999886e+01 2.210264999999999873e+03
3.700000000000000511e-02 1.667770000000000086e-01 1.189634999999999998e+01 5.849759999999999849e+01 2.210514999999999873e+03
3.799999999999999906e-02 1.668344999999999967e-01 1.251500000000000057e+01 6.121594999999999942e+01 2.210974999999999909e+03
3.899999999999999994e-02 1.669059999999999988e-01 1.318639999999999901e+01 6.410654999999999859e+01 2.211565000000000055e+03
4.000000000000000083e-02 1.669775000000000009e-01 1.373419999999999952e+01 6.657980000000000587e+01 2.212159999999999854e+03
4.100000000000000172e-02 1.670344999999999747e-01 1.400975000000000037e+01 6.813134999999999764e+01 2.212650000000000091e+03
4.200000000000000261e-02 1.670659999999999923e-01 1.391375000000000028e+01 6.842959999999999354e+01 2.212920000000000073e+03
4.300000000000000350e-02 1.670639999999999903e-01 1.340445000000000064e+01 6.735169999999999391e+01 2.212920000000000073e+03
4.400000000000000439e-02 1.670260000000000078e-01 1.249230000000000018e+01 6.496920000000000073e+01 2.212614999999999782e+03
4.499999999999999833e-02 1.669539999999999913e-01 1.122747999999999990e+01 6.149779999999999802e+01 2.212029999999999745e+03
4.599999999999999922e-02 1.668530000000000013e-01 9.682985000000000397e+00 5.723130000000000450e+01 2.211195000000000164e+03
4.700000000000000011e-02 1.667309999999999903e-01 7.940529999999999866e+00 5.247984999999999900e+01 2.210180000000000291e+03
4.800000000000000100e-02 1.665940000000000198e-01 6.080690000000000595e+00 4.752585000000000548e+01 2.209039999999999964e+03
4.900000000000000189e-02 1.664510000000000156e-01 4.178120999999999974e+00 4.260389999999999588e+01 2.207840000000000146e+03
5.000000000000000278e-02 1.663069999999999826e-01 2.301794999999999813e+00 3.790070000000000050e+01 2.206625000000000000e+03
5.100000000000000366e-02 1.661680000000000101e-01 5.169250000000000789e-01 3.356789999999999452e+01 2.205454999999999927e+03
5.200000000000000455e-02 1.660385000000000055e-01 -1.112580000000000124e+00 2.973890000000000100e+01 2.204359999999999673e+03
5.300000000000000544e-02 1.659235000000000015e-01 -2.523189499999999974e+00 2.654144999999999754e+01 2.203390000000000327e+03
5.399999999999999939e-02 1.658270000000000022e-01 -3.652955000000000396e+00 2.410239999999999938e+01 2.202565000000000055e+03
5.500000000000000028e-02 1.657529999999999837e-01 -4.444770000000000110e+00 2.254335000000000022e+01 2.201925000000000182e+03
5.600000000000000117e-02 1.657055000000000056e-01 -4.850955000000000794e+00 2.196929999999999694e+01 2.201505000000000109e+03
5.700000000000000205e-02 1.656870000000000009e-01 -4.837989999999999569e+00 2.245479999999999876e+01 2.201329999999999927e+03
5.800000000000000294e-02 1.657005000000000006e-01 -4.390335000000000321e+00 2.403079999999999927e+01 2.201414999999999964e+03
5.900000000000000383e-02 1.657454999999999901e-01 -3.512464999999999726e+00 2.667665000000000219e+01 2.201764999999999873e+03
6.000000000000000472e-02 1.658224999999999838e-01 -2.228887499999999910e+00 3.031844999999999857e+01 2.202380000000000109e+03
6.099999999999999867e-02 1.659285000000000065e-01 -5.821300000000000363e-01 3.483419999999999561e+01 2.203244999999999891e+03
6.199999999999999956e-02 1.660604999999999998e-01 1.370644999999999891e+00 4.006400000000000006e+01 2.204329999999999927e+03
6.300000000000000044e-02 1.662129999999999996e-01 3.561932000000000098e+00 4.582314999999999827e+01 2.205600000000000364e+03
6.400000000000000133e-02 1.663820000000000021e-01 5.918400000000000105e+00 5.191635000000000133e+01 2.207010000000000218e+03
6.500000000000000222e-02 1.665619999999999878e-01 8.365384999999999849e+00 5.815095000000000169e+01 2.208510000000000218e+03
6.600000000000000311e-02 1.667469999999999786e-01 1.083112000000000030e+01 6.434905000000000541e+01 2.210065000000000055e+03
6.700000000000000400e-02 1.669320000000000248e-01 1.325059500000000057e+01 7.035720000000000596e+01 2.211630000000000109e+03
6.800000000000000488e-02 1.671130000000000115e-01 1.556889999999999930e+01 7.605480000000000018e+01 2.213170000000000073e+03
6.900000000000000577e-02 1.672865000000000046e-01 1.774374999999999858e+01 8.135960000000000036e+01 2.214644999999999982e+03
7.000000000000000666e-02 1.674495000000000011e-01 1.974730000000000274e+01 8.623044999999999050e+01 2.216039999999999964e+03
7.100000000000000755e-02 1.676020000000000010e-01 2.156674999999999898e+01 9.066759999999999309e+01 2.217345000000000255e+03
7.200000000000000844e-02 1.677430000000000032e-01 2.320340000000000202e+01 9.470815000000000339e+01 2.218560000000000400e+03
7.300000000000000933e-02 1.678735000000000088e-01 2.467109999999999914e+01 9.841980000000000928e+01 2.219690000000000055e+03
7.399999999999999634e-02 1.679954999999999921e-01 2.599295000000000044e+01 1.018900000000000006e+02 2.220744999999999891e+03
7.499999999999999722e-02 1.681110000000000104e-01 2.719814999999999827e+01 1.052156999999999982e+02 2.221750000000000000e+03
7.599999999999999811e-02 1.682230000000000114e-01 2.831799999999999784e+01 1.084925000000000068e+02 2.222715000000000146e+03
7.699999999999999900e-02 1.683334999999999970e-01 2.938289999999999935e+01 1.118050000000000068e+02 2.223670000000000073e+03
7.799999999999999989e-02 1.684444999999999970e-01 3.041870000000000118e+01 1.152170000000000130e+02 2.224630000000000109e+03
7.900000000000000078e-02 1.685585000000000000e-01 3.144525000000000148e+01 1.187680000000000007e+02 2.225614999999999782e+03
8.000000000000000167e-02 1.686755000000000060e-01 3.247435000000000116e+01 1.224729999999999990e+02 2.226619999999999891e+03
8.100000000000000255e-02 1.687960000000000016e-01 3.350969999999999516e+01 1.263185000000000002e+02 2.227659999999999854e+03
8.200000000000000344e-02 1.689205000000000012e-01 3.454689999999999372e+01 1.302685000000000173e+02 2.228730000000000018e+03
8.300000000000000433e-02 1.690475000000000172e-01 3.557424999999999926e+01 1.342690000000000055e+02 2.229819999999999709e+03
8.400000000000000522e-02 1.691745000000000054e-01 3.657424999999999926e+01 1.382504999999999882e+02 2.230914999999999964e+03
8.500000000000000611e-02 1.693000000000000060e-01 3.752490000000000236e+01 1.421355000000000075e+02 2.232005000000000109e+03
8.600000000000000699e-02 1.694229999999999903e-01 3.840180000000000149e+01 1.458439999999999941e+02 2.233059999999999945e+03
8.700000000000000788e-02 1.695395000000000096e-01 3.917964999999999520e+01 1.492995000000000232e+02 2.234074999999999818e+03
8.800000000000000877e-02 1.696489999999999942e-01 3.983435000000000059e+01 1.524289999999999736e+02 2.235019999999999982e+03
8.899999999999999578e-02 1.697480000000000100e-01 4.034409999999999741e+01 1.551734999999999900e+02 2.235885000000000218e+03
8.999999999999999667e-02 1.698355000000000004e-01 4.069134999999999991e+01 1.574859999999999900e+02 2.236650000000000091e+03
9.099999999999999756e-02 1.699100000000000055e-01 4.086345000000000027e+01 1.593360000000000127e+02 2.237309999999999945e+03
9.199999999999999845e-02 1.699709999999999832e-01 4.085384999999999422e+01 1.607105000000000246e+02 2.237845000000000255e+03
9.299999999999999933e-02 1.700180000000000025e-01 4.066209999999999525e+01 1.616140000000000043e+02 2.238260000000000218e+03
9.400000000000000022e-02 1.700504999999999933e-01 4.029455000000000098e+01 1.620660000000000025e+02 2.238555000000000291e+03
9.500000000000000111e-02 1.700694999999999846e-01 3.976324999999999932e+01 1.621045000000000016e+02 2.238734999999999673e+03
9.600000000000000200e-02 1.700765000000000193e-01 3.908580000000000609e+01 1.617780000000000200e+02 2.238804999999999836e+03
9.700000000000000289e-02 1.700725000000000153e-01 3.828405000000000058e+01 1.611454999999999984e+02 2.238779999999999745e+03
9.800000000000000377e-02 1.700585000000000013e-01 3.738309999999999889e+01 1.602724999999999795e+02 2.238675000000000182e+03
9.900000000000000466e-02 1.700375000000000081e-01 3.640970000000000084e+01 1.592264999999999873e+02 2.238500000000000000e+03
1.000000000000000056e-01 1.700105000000000088e-01 3.539110000000000156e+01 1.580745000000000005e+02 2.238279999999999745e+03
1.010000000000000064e-01 1.699799999999999922e-01 3.435369999999999635e+01 1.568804999999999836e+02 2.238019999999999982e+03
1.020000000000000073e-01 1.699475000000000013e-01 3.332189999999999941e+01 1.556980000000000075e+02 2.237744999999999891e+03
1.030000000000000082e-01 1.699154999999999971e-01 3.231685000000000230e+01 1.545755000000000052e+02 2.237465000000000146e+03
1.040000000000000091e-01 1.698839999999999795e-01 3.135590000000000188e+01 1.535484999999999900e+02 2.237194999999999709e+03
1.050000000000000100e-01 1.698540000000000050e-01 3.045200000000000173e+01 1.526405000000000030e+02 2.236939999999999600e+03
1.059999999999999970e-01 1.698274999999999924e-01 2.961305000000000121e+01 1.518629999999999995e+02 2.236704999999999927e+03
1.069999999999999979e-01 1.698044999999999971e-01 2.884195000000000064e+01 1.512164999999999964e+02 2.236505000000000109e+03
1.079999999999999988e-01 1.697845000000000049e-01 2.813669999999999760e+01 1.506865000000000236e+02 2.236324999999999818e+03
1.089999999999999997e-01 1.697675000000000156e-01 2.749099999999999966e+01 1.502504999999999882e+02 2.236170000000000073e+03
1.100000000000000006e-01 1.697529999999999872e-01 2.689444999999999908e+01 1.498774999999999977e+02 2.236039999999999964e+03
1.110000000000000014e-01 1.697394999999999876e-01 2.633364999999999867e+01 1.495285000000000082e+02 2.235920000000000073e+03
1.120000000000000023e-01 1.697265000000000024e-01 2.579315000000000069e+01 1.491620000000000061e+02 2.235804999999999836e+03
1.130000000000000032e-01 1.697130000000000027e-01 2.525650000000000261e+01 1.487350000000000136e+02 2.235684999999999945e+03
1.140000000000000041e-01 1.696969999999999867e-01 2.470745000000000147e+01 1.482065000000000055e+02 2.235545000000000073e+03
1.150000000000000050e-01 1.696789999999999965e-01 2.413090000000000046e+01 1.475399999999999920e+02 2.235385000000000218e+03
1.160000000000000059e-01 1.696560000000000012e-01 2.351409999999999911e+01 1.467069999999999936e+02 2.235190000000000055e+03
1.170000000000000068e-01 1.696285000000000154e-01 2.284745000000000203e+01 1.456879999999999882e+02 2.234954999999999927e+03
1.180000000000000077e-01 1.695955000000000101e-01 2.212500000000000000e+01 1.444735000000000014e+02 2.234670000000000073e+03
1.190000000000000085e-01 1.695570000000000133e-01 2.134509999999999863e+01 1.430665000000000191e+02 2.234340000000000146e+03
1.200000000000000094e-01 1.695129999999999970e-01 2.051055000000000206e+01 1.414809999999999945e+02 2.233960000000000036e+03
1.209999999999999964e-01 1.694634999999999891e-01 1.962834999999999752e+01 1.397415000000000020e+02 2.233539999999999964e+03
1.219999999999999973e-01 1.694100000000000050e-01 1.870929999999999893e+01 1.378834999999999980e+02 2.233085000000000036e+03
1.229999999999999982e-01 1.693530000000000035e-01 1.776729999999999876e+01 1.359479999999999791e+02 2.232600000000000364e+03
1.239999999999999991e-01 1.692940000000000000e-01 1.681885000000000119e+01 1.339819999999999993e+02 2.232085000000000036e+03
1.250000000000000000e-01 1.692339999999999955e-01 1.588160000000000061e+01 1.320344999999999800e+02 2.231574999999999818e+03
1.260000000000000009e-01 1.691745000000000054e-01 1.497374999999999901e+01 1.301539999999999964e+02 2.231065000000000055e+03
1.270000000000000018e-01 1.691170000000000173e-01 1.411260000000000048e+01 1.283864999999999839e+02 2.230569999999999709e+03
1.280000000000000027e-01 1.690625000000000044e-01 1.331400000000000006e+01 1.267704999999999984e+02 2.230095000000000255e+03
1.290000000000000036e-01 1.690125000000000099e-01 1.259134999999999849e+01 1.253394999999999868e+02 2.229659999999999854e+03
1.300000000000000044e-01 1.689680000000000071e-01 1.195504999999999995e+01 1.241159999999999997e+02 2.229279999999999745e+03
1.310000000000000053e-01 1.689289999999999958e-01 1.141204000000000107e+01 1.231135000000000019e+02 2.228934999999999945e+03
1.320000000000000062e-01 1.688969999999999916e-01 1.096561999999999948e+01 1.223370000000000033e+02 2.228654999999999745e+03
1.330000000000000071e-01 1.688709999999999933e-01 1.061553999999999931e+01 1.217814999999999941e+02 2.228425000000000182e+03
1.340000000000000080e-01 1.688520000000000021e-01 1.035827499999999901e+01 1.214325000000000045e+02 2.228255000000000109e+03
1.350000000000000089e-01 1.688385000000000025e-01 1.018730000000000047e+01 1.212715000000000032e+02 2.228135000000000218e+03
1.360000000000000098e-01 1.688314999999999955e-01 1.009356000000000009e+01 1.212729999999999961e+02 2.228059999999999945e+03
1.370000000000000107e-01 1.688279999999999781e-01 1.006620500000000007e+01 1.214074999999999989e+02 2.228030000000000200e+03
1.380000000000000115e-01 1.688300000000000078e-01 1.009304000000000023e+01 1.216444999999999936e+02 2.228034999999999854e+03
1.390000000000000124e-01 1.688339999999999841e-01 1.016126000000000040e+01 1.219515000000000100e+02 2.228065000000000055e+03
1.400000000000000133e-01 1.688410000000000188e-01 1.025792500000000018e+01 1.222990000000000066e+02 2.228119999999999891e+03
1.410000000000000142e-01 1.688489999999999991e-01 1.037058500000000016e+01 1.226585000000000036e+02 2.228184999999999945e+03
1.420000000000000151e-01 1.688580000000000081e-01 1.048754999999999882e+01 1.230045000000000073e+02 2.228260000000000218e+03
1.430000000000000160e-01 1.688664999999999750e-01 1.059860000000000113e+01 1.233144999999999953e+02 2.228340000000000146e+03
1.440000000000000169e-01 1.688749999999999973e-01 1.069490000000000052e+01 1.235730000000000075e+02 2.228400000000000091e+03
1.450000000000000178e-01 1.688815000000000177e-01 1.076965000000000039e+01 1.237665000000000077e+02 2.228460000000000036e+03
1.459999999999999909e-01 1.688864999999999950e-01 1.081780000000000008e+01 1.238880000000000052e+02 2.228505000000000109e+03
1.469999999999999918e-01 1.688895000000000257e-01 1.083634999999999948e+01 1.239335000000000093e+02 2.228534999999999854e+03
1.479999999999999927e-01 1.688910000000000133e-01 1.082424999999999926e+01 1.239054999999999893e+02 2.228545000000000073e+03
1.489999999999999936e-01 1.688899999999999846e-01 1.078229999999999933e+01 1.238079999999999927e+02 2.228539999999999964e+03
1.499999999999999944e-01 1.688870000000000093e-01 1.071286999999999878e+01 1.236509999999999962e+02 2.228515000000000327e+03
1.509999999999999953e-01 1.688824999999999910e-01 1.061968999999999852e+01 1.234459999999999980e+02 2.228480000000000018e+03
1.519999999999999962e-01 1.688769999999999993e-01 1.050739000000000090e+01 1.232055000000000007e+02 2.228434999999999945e+03
1.529999999999999971e-01 1.688700000000000201e-01 1.038131999999999877e+01 1.229440000000000026e+02 2.228380000000000109e+03
1.539999999999999980e-01 1.688629999999999853e-01 1.024711500000000086e+01 1.226754999999999995e+02 2.228315000000000055e+03
1.549999999999999989e-01 1.688550000000000051e-01 1.011013999999999946e+01 1.224129999999999967e+02 2.228250000000000000e+03
1.559999999999999998e-01 1.688474999999999837e-01 9.975470000000001392e+00 1.221680000000000064e+02 2.228190000000000055e+03
1.570000000000000007e-01 1.688405000000000045e-01 9.847310000000000230e+00 1.219489999999999981e+02 2.228130000000000109e+03
1.580000000000000016e-01 1.688340000000000118e-01 9.729020000000000223e+00 1.217614999999999981e+02 2.228074999999999818e+03
1.590000000000000024e-01 1.688290000000000068e-01 9.622820000000000817e+00 1.216090000000000089e+02 2.228024999999999636e+03
