# t [s], A [cm^2], U [cm/s], P [cPa], c [cm/s]
1.000000000000000021e-03 6.331539999999999946e-01 5.747500000000002607e-03 1.002999999999999972e+02 1.765380000000000109e+03
2.000000000000000042e-03 6.331485000000000030e-01 8.002749999999999447e-03 1.002725000000000080e+02 1.765380000000000109e+03
3.000000000000000062e-03 6.332195000000000462e-01 1.527515499999999860e-01 1.004444000000000017e+02 1.765409999999999854e+03
4.000000000000000083e-03 6.332444999999999879e-01 2.267504999999999937e-01 1.005320499999999981e+02 1.765429999999999836e+03
5.000000000000000104e-03 6.331785000000000885e-01 1.284645000000000092e-01 1.003179999999999978e+02 1.765389999999999873e+03
6.000000000000000125e-03 6.331054999999999877e-01 3.773000000000026333e-03 9.995730000000000359e+01 1.765320000000000164e+03
7.000000000000000146e-03 6.330160000000000231e-01 -1.670650000000000190e-01 9.946009999999999707e+01 1.765220000000000027e+03
8.000000000000000167e-03 6.328525000000000400e-01 -5.045399999999999885e-01 9.865020000000001232e+01 1.765065000000000055e+03
9.000000000000001055e-03 6.326110000000000344e-01 -1.014514999999999834e+00 9.746049999999999613e+01 1.764825000000000045e+03
1.000000000000000194e-02 6.322730000000000850e-01 -1.718734999999999680e+00 9.580375000000000796e+01 1.764494999999999891e+03
1.099999999999999936e-02 6.318215000000000359e-01 -2.629974999999999952e+00 9.359725000000000250e+01 1.764039999999999964e+03
1.200000000000000025e-02 6.312999999999999723e-01 -3.626814999999999678e+00 9.094765000000001010e+01 1.763485000000000127e+03
1.300000000000000114e-02 6.308070000000000066e-01 -4.472414500000000182e+00 8.818559999999999377e+01 1.762880000000000109e+03
1.400000000000000203e-02 6.304239999999999844e-01 -4.956174999999999997e+00 8.568224999999999625e+01 1.762309999999999945e+03
1.499999999999999944e-02 6.301695000000000491e-01 -5.000739999999999519e+00 8.365935000000000343e+01 1.761809999999999945e+03
1.600000000000000033e-02 6.300050000000000372e-01 -4.670849999999999724e+00 8.211619999999999209e+01 1.761389999999999873e+03
1.700000000000000122e-02 6.298624999999999918e-01 -4.116195000000000270e+00 8.087475000000000591e+01 1.761029999999999973e+03
1.800000000000000211e-02 6.296785000000000299e-01 -3.494550000000000267e+00 7.968545000000000300e+01 1.760684999999999945e+03
1.900000000000000300e-02 6.294199999999999795e-01 -2.907621999999999929e+00 7.834319999999999595e+01 1.760319999999999936e+03
2.000000000000000042e-02 6.290934999999999722e-01 -2.372352999999999934e+00 7.676449999999999818e+01 1.759910000000000082e+03
2.100000000000000130e-02 6.287320000000000686e-01 -1.837825000000000042e+00 7.499600000000000932e+01 1.759470000000000027e+03
2.200000000000000219e-02 6.283739999999999881e-01 -1.234490000000000087e+00 7.315760000000000218e+01 1.759009999999999991e+03
2.299999999999999961e-02 6.280425000000000590e-01 -5.259449999999998848e-01 7.135965000000000202e+01 1.758549999999999955e+03
2.400000000000000050e-02 6.277325000000000266e-01 2.611250000000002736e-01 6.963589999999999236e+01 1.758099999999999909e+03
2.500000000000000139e-02 6.274120000000000807e-01 1.036420000000000119e+00 6.791740000000000066e+01 1.757654999999999973e+03
2.600000000000000228e-02 6.270359999999999268e-01 1.669394999999999962e+00 6.604769999999999186e+01 1.757179999999999836e+03
2.700000000000000316e-02 6.265604999999999647e-01 2.026349999999999429e+00 6.383104999999999762e+01 1.756639999999999873e+03
2.800000000000000058e-02 6.259550000000000392e-01 2.010099999999999998e+00 6.109725000000000250e+01 1.756000000000000000e+03
2.900000000000000147e-02 6.252170000000000227e-01 1.590060000000000251e+00 5.776310000000000144e+01 1.755244999999999891e+03
3.000000000000000236e-02 6.243754999999999722e-01 8.123949999999995342e-01 5.386970000000000169e+01 1.754375000000000000e+03
3.099999999999999978e-02 6.234794999999999643e-01 -2.133500000000001506e-01 4.958155000000000001e+01 1.753414999999999964e+03
3.200000000000000067e-02 6.225899999999999768e-01 -1.343459999999999432e+00 4.515179999999999438e+01 1.752414999999999964e+03
3.300000000000000155e-02 6.217669999999999586e-01 -2.433605000000000018e+00 4.086915000000000475e+01 1.751424999999999955e+03
3.400000000000000244e-02 6.210560000000000525e-01 -3.363980000000000192e+00 3.700549999999999784e+01 1.750509999999999991e+03
3.500000000000000333e-02 6.204879999999999285e-01 -4.052759999999999252e+00 3.377790000000000248e+01 1.749714999999999918e+03
3.600000000000000422e-02 6.200769999999999893e-01 -4.457104499999999803e+00 3.132910000000000039e+01 1.749069999999999936e+03
3.700000000000000511e-02 6.198254999999999182e-01 -4.565725000000000477e+00 2.972625000000000028e+01 1.748609999999999900e+03
3.799999999999999906e-02 6.197250000000000814e-01 -4.387109999999999843e+00 2.897364999999999924e+01 1.748339999999999918e+03
3.899999999999999994e-02 6.197654999999999692e-01 -3.937414999999999665e+00 2.903324999999999889e+01 1.748255000000000109e+03
4.000000000000000083e-02 6.199365000000000014e-01 -3.231521499999999936e+00 2.984539999999999793e+01 1.748345000000000027e+03
4.100000000000000172e-02 6.202280000000000015e-01 -2.279379999999999740e+00 3.134530000000000172e+01 1.748599999999999909e+03
4.200000000000000261e-02 6.206319999999999615e-01 -1.087520000000000042e+00 3.347064999999999912e+01 1.749005000000000109e+03
4.300000000000000350e-02 6.211394999999999555e-01 3.358300000000000729e-01 3.616129999999999711e+01 1.749550000000000182e+03
4.400000000000000439e-02 6.217405000000000292e-01 1.974895000000000067e+00 3.935410000000000252e+01 1.750224999999999909e+03
4.499999999999999833e-02 6.224199999999999733e-01 3.802144999999999886e+00 4.297635000000000360e+01 1.751000000000000000e+03
4.599999999999999922e-02 6.231605000000000061e-01 5.777390000000000470e+00 4.694230000000000302e+01 1.751869999999999891e+03
4.700000000000000011e-02 6.239409999999999679e-01 7.849724999999999397e+00 5.115324999999999989e+01 1.752809999999999945e+03
4.800000000000000100e-02 6.247395000000000032e-01 9.962437000000001319e+00 5.550215000000000032e+01 1.753795000000000073e+03
4.900000000000000189e-02 6.255355000000000221e-01 1.205854000000000070e+01 5.988134999999999764e+01 1.754805000000000064e+03
5.000000000000000278e-02 6.263119999999999798e-01 1.408635999999999910e+01 6.419124999999999659e+01 1.755809999999999945e+03
5.100000000000000366e-02 6.270540000000000003e-01 1.600372499999999931e+01 6.834865000000000634e+01 1.756799999999999955e+03
5.200000000000000455e-02 6.277535000000000753e-01 1.778049999999999997e+01 7.229250000000000398e+01 1.757750000000000000e+03
5.300000000000000544e-02 6.284064999999999790e-01 1.939920000000000044e+01 7.598664999999999736e+01 1.758655000000000200e+03
5.399999999999999939e-02 6.290145000000000319e-01 2.085419999999999874e+01 7.941995000000000005e+01 1.759509999999999991e+03
5.500000000000000028e-02 6.295804999999999874e-01 2.214959999999999951e+01 8.260364999999998759e+01 1.760315000000000055e+03
5.600000000000000117e-02 6.301125000000000753e-01 2.329739999999999966e+01 8.556704999999999472e+01 1.761070000000000164e+03
5.700000000000000205e-02 6.306190000000000406e-01 2.431494999999999962e+01 8.835255000000000791e+01 1.761784999999999854e+03
5.800000000000000294e-02 6.311094999999999899e-01 2.522305000000000064e+01 9.101064999999999827e+01 1.762470000000000027e+03
5.900000000000000383e-02 6.315939999999999888e-01 2.604415000000000191e+01 9.359465000000000146e+01 1.763130000000000109e+03
6.000000000000000472e-02 6.320799999999999752e-01 2.680030000000000001e+01 9.615610000000000923e+01 1.763779999999999973e+03
6.099999999999999867e-02 6.325764999999999860e-01 2.751169999999999760e+01 9.874094999999999800e+01 1.764434999999999945e+03
6.199999999999999956e-02 6.330879999999999841e-01 2.819485000000000241e+01 1.013840000000000003e+02 1.765099999999999909e+03
6.300000000000000044e-02 6.336174999999999446e-01 2.886115000000000208e+01 1.041071500000000043e+02 1.765769999999999982e+03
6.400000000000000133e-02 6.341639999999999500e-01 2.951585000000000036e+01 1.069170000000000016e+02 1.766469999999999800e+03
6.500000000000000222e-02 6.347249999999999837e-01 3.015780000000000172e+01 1.098034999999999997e+02 1.767179999999999836e+03
6.600000000000000311e-02 6.352934999999999555e-01 3.077974999999999994e+01 1.127415000000000020e+02 1.767900000000000091e+03
6.700000000000000400e-02 6.358619999999999273e-01 3.136930000000000263e+01 1.156924999999999955e+02 1.768619999999999891e+03
6.800000000000000488e-02 6.364199999999999857e-01 3.191060000000000230e+01 1.186089999999999947e+02 1.769339999999999918e+03
6.900000000000000577e-02 6.369580000000000242e-01 3.238579999999999615e+01 1.214369999999999976e+02 1.770045000000000073e+03
7.000000000000000666e-02 6.374659999999999771e-01 3.277700000000000102e+01 1.241219999999999999e+02 1.770720000000000027e+03
7.100000000000000755e-02 6.379340000000000011e-01 3.306759999999999877e+01 1.266124999999999972e+02 1.771355000000000018e+03
7.200000000000000844e-02 6.383550000000000058e-01 3.324354999999999905e+01 1.288634999999999877e+02 1.771934999999999945e+03
7.300000000000000933e-02 6.387234999999999996e-01 3.329455000000000098e+01 1.308394999999999868e+02 1.772449999999999818e+03
7.399999999999999634e-02 6.390344999999999498e-01 3.321405000000000030e+01 1.325144999999999982e+02 1.772904999999999973e+03
7.499999999999999722e-02 6.392869999999999386e-01 3.300024999999999409e+01 1.338754999999999882e+02 1.773284999999999854e+03
7.599999999999999811e-02 6.394815000000000360e-01 3.265559999999999974e+01 1.349200000000000159e+02 1.773589999999999918e+03
7.699999999999999900e-02 6.396209999999999951e-01 3.218695000000000306e+01 1.356580000000000155e+02 1.773825000000000045e+03
7.799999999999999989e-02 6.397079999999999433e-01 3.160519999999999996e+01 1.361094999999999970e+02 1.773985000000000127e+03
7.900000000000000078e-02 6.397500000000000409e-01 3.092479999999999762e+01 1.363029999999999973e+02 1.774079999999999927e+03
8.000000000000000167e-02 6.397519999999999873e-01 3.016290000000000049e+01 1.362730000000000246e+02 1.774125000000000000e+03
8.100000000000000255e-02 6.397230000000000416e-01 2.933894999999999698e+01 1.360614999999999952e+02 1.774115000000000009e+03
8.200000000000000344e-02 6.396709999999999896e-01 2.847334999999999638e+01 1.357115000000000009e+02 1.774069999999999936e+03
8.300000000000000433e-02 6.396034999999999915e-01 2.758675000000000210e+01 1.352659999999999911e+02 1.773994999999999891e+03
8.400000000000000522e-02 6.395275000000000265e-01 2.669875000000000043e+01 1.347690000000000055e+02 1.773900000000000091e+03
8.500000000000000611e-02 6.394514999999999505e-01 2.582730000000000103e+01 1.342589999999999861e+02 1.773795000000000073e+03
8.600000000000000699e-02 6.393790000000000306e-01 2.498760000000000048e+01 1.337685000000000173e+02 1.773690000000000055e+03
8.700000000000000788e-02 6.393155000000000365e-01 2.419120000000000203e+01 1.333235000000000241e+02 1.773585000000000036e+03
8.800000000000000877e-02 6.392640000000000544e-01 2.344615000000000293e+01 1.329424999999999955e+02 1.773494999999999891e+03
8.899999999999999578e-02 6.392244999999999733e-01 2.275605000000000189e+01 1.326345000000000027e+02 1.773420000000000073e+03
8.999999999999999667e-02 6.391974999999999740e-01 2.212084999999999724e+01 1.324010000000000105e+02 1.773355000000000018e+03
9.099999999999999756e-02 6.391799999999999704e-01 2.153654999999999831e+01 1.322340000000000089e+02 1.773304999999999836e+03
9.199999999999999845e-02 6.391700000000000159e-01 2.099615000000000009e+01 1.321209999999999809e+02 1.773264999999999873e+03
9.299999999999999933e-02 6.391630000000000367e-01 2.048995000000000033e+01 1.320414999999999850e+02 1.773240000000000009e+03
9.400000000000000022e-02 6.391554999999999875e-01 2.000659999999999883e+01 1.319735000000000014e+02 1.773210000000000036e+03
9.500000000000000111e-02 6.391419999999999879e-01 1.953354999999999819e+01 1.318915000000000077e+02 1.773179999999999836e+03
9.600000000000000200e-02 6.391180000000000749e-01 1.905829999999999913e+01 1.317690000000000055e+02 1.773150000000000091e+03
9.700000000000000289e-02 6.390795000000000226e-01 1.856875000000000142e+01 1.315829999999999984e+02 1.773105000000000018e+03
9.800000000000000377e-02 6.390230000000000077e-01 1.805420000000000158e+01 1.313104999999999905e+02 1.773039999999999964e+03
9.900000000000000466e-02 6.389454999999999441e-01 1.750600000000000023e+01 1.309360000000000070e+02 1.772954999999999927e+03
1.000000000000000056e-01 6.388460000000000250e-01 1.691819999999999879e+01 1.304480000000000075e+02 1.772845000000000027e+03
1.010000000000000064e-01 6.387234999999999996e-01 1.628770000000000095e+01 1.298400000000000034e+02 1.772710000000000036e+03
1.020000000000000073e-01 6.385790000000000077e-01 1.561465000000000103e+01 1.291150000000000091e+02 1.772545000000000073e+03
1.030000000000000082e-01 6.384149999999999547e-01 1.490279999999999916e+01 1.282804999999999893e+02 1.772360000000000127e+03
1.040000000000000091e-01 6.382345000000000379e-01 1.415854999999999997e+01 1.273530000000000086e+02 1.772144999999999982e+03
1.050000000000000100e-01 6.380430000000000268e-01 1.339142499999999814e+01 1.263520000000000039e+02 1.771920000000000073e+03
1.059999999999999970e-01 6.378445000000000364e-01 1.261316499999999863e+01 1.253044999999999902e+02 1.771679999999999836e+03
1.069999999999999979e-01 6.376444999999999474e-01 1.183697499999999891e+01 1.242384999999999877e+02 1.771424999999999955e+03
1.079999999999999988e-01 6.374495000000000022e-01 1.107704000000000022e+01 1.231844999999999999e+02 1.771174999999999955e+03
1.089999999999999997e-01 6.372645000000000115e-01 1.034757000000000104e+01 1.221740000000000066e+02 1.770929999999999836e+03
1.100000000000000006e-01 6.370955000000000368e-01 9.662074999999999747e+00 1.212355000000000018e+02 1.770704999999999927e+03
1.110000000000000014e-01 6.369460000000000122e-01 9.032610000000000028e+00 1.203944999999999936e+02 1.770494999999999891e+03
1.120000000000000023e-01 6.368205000000000116e-01 8.469090000000001339e+00 1.196719999999999970e+02 1.770304999999999836e+03
1.130000000000000032e-01 6.367209999999999814e-01 7.979034999999999656e+00 1.190850000000000080e+02 1.770150000000000091e+03
1.140000000000000041e-01 6.366484999999999506e-01 7.566874999999999574e+00 1.186415000000000077e+02 1.770025000000000091e+03
1.150000000000000050e-01 6.366030000000000300e-01 7.234175000000000466e+00 1.183449999999999989e+02 1.769930000000000064e+03
1.160000000000000059e-01 6.365834999999999688e-01 6.979470000000000063e+00 1.181905000000000001e+02 1.769869999999999891e+03
1.170000000000000068e-01 6.365874999999999728e-01 6.798600000000000421e+00 1.181705000000000041e+02 1.769840000000000146e+03
1.180000000000000077e-01 6.366125000000000256e-01 6.685019999999999740e+00 1.182694999999999936e+02 1.769845000000000027e+03
1.190000000000000085e-01 6.366540000000000532e-01 6.630300000000000082e+00 1.184685000000000059e+02 1.769865000000000009e+03
1.200000000000000094e-01 6.367089999999999694e-01 6.624645000000000117e+00 1.187475000000000023e+02 1.769920000000000073e+03
1.209999999999999964e-01 6.367724999999999635e-01 6.657474999999999810e+00 1.190829999999999984e+02 1.769980000000000018e+03
1.219999999999999973e-01 6.368409999999999904e-01 6.717930000000000845e+00 1.194534999999999911e+02 1.770055000000000064e+03
1.229999999999999982e-01 6.369099999999999762e-01 6.795410000000000394e+00 1.198365000000000009e+02 1.770134999999999991e+03
1.239999999999999991e-01 6.369765000000000565e-01 6.879954999999999821e+00 1.202139999999999986e+02 1.770215000000000146e+03
1.250000000000000000e-01 6.370379999999999932e-01 6.962625000000000064e+00 1.205670000000000073e+02 1.770295000000000073e+03
1.260000000000000009e-01 6.370909999999999629e-01 7.035770000000000302e+00 1.208829999999999956e+02 1.770369999999999891e+03
1.270000000000000018e-01 6.371355000000000768e-01 7.093164999999999942e+00 1.211510000000000105e+02 1.770434999999999945e+03
1.280000000000000027e-01 6.371694999999999443e-01 7.130145000000000621e+00 1.213654999999999973e+02 1.770485000000000127e+03
1.290000000000000036e-01 6.371925000000000505e-01 7.143620000000000303e+00 1.215215000000000032e+02 1.770529999999999973e+03
1.300000000000000044e-01 6.372054999999999803e-01 7.132035000000000124e+00 1.216204999999999927e+02 1.770555000000000064e+03
1.310000000000000053e-01 6.372089999999999144e-01 7.095264999999999489e+00 1.216639999999999873e+02 1.770575000000000045e+03
1.320000000000000062e-01 6.372039999999999926e-01 7.034500000000000419e+00 1.216570000000000107e+02 1.770579999999999927e+03
1.330000000000000071e-01 6.371915000000000218e-01 6.952045000000000030e+00 1.216069999999999993e+02 1.770574999999999818e+03
1.340000000000000080e-01 6.371734999999999483e-01 6.851100000000000634e+00 1.215220000000000056e+02 1.770559999999999945e+03
1.350000000000000089e-01 6.371515000000000928e-01 6.735545000000000115e+00 1.214114999999999895e+02 1.770545000000000073e+03
1.360000000000000098e-01 6.371275000000000688e-01 6.609670000000000378e+00 1.212845000000000084e+02 1.770519999999999982e+03
1.370000000000000107e-01 6.371035000000000448e-01 6.477929999999999744e+00 1.211504999999999939e+02 1.770490000000000009e+03
1.380000000000000115e-01 6.370804999999999385e-01 6.344664999999999999e+00 1.210185000000000031e+02 1.770464999999999918e+03
1.390000000000000124e-01 6.370595000000000008e-01 6.213874999999999815e+00 1.208949999999999960e+02 1.770434999999999945e+03
1.400000000000000133e-01 6.370424999999999560e-01 6.089045000000000485e+00 1.207865000000000038e+02 1.770414999999999964e+03
1.410000000000000142e-01 6.370290000000000674e-01 5.972949999999999982e+00 1.206974999999999909e+02 1.770394999999999982e+03
1.420000000000000151e-01 6.370199999999999196e-01 5.867554999999999410e+00 1.206295000000000073e+02 1.770375000000000000e+03
1.430000000000000160e-01 6.370145000000000390e-01 5.774004999999999832e+00 1.205840000000000032e+02 1.770360000000000127e+03
1.440000000000000169e-01 6.370135000000000103e-01 5.692579999999999529e+00 1.205600000000000023e+02 1.770355000000000018e+03
1.450000000000000178e-01 6.370149999999999979e-01 5.622830000000000439e+00 1.205534999999999997e+02 1.770349999999999909e+03
1.459999999999999909e-01 6.370184999999999320e-01 5.563645000000000174e+00 1.205604999999999905e+02 1.770349999999999909e+03
1.469999999999999918e-01 6.370240000000000347e-01 5.513450000000000628e+00 1.205775000000000006e+02 1.770355000000000018e+03
1.479999999999999927e-01 6.370294999999999153e-01 5.470335000000000392e+00 1.205974999999999966e+02 1.770355000000000018e+03
1.489999999999999936e-01 6.370339999999999892e-01 5.432275000000000631e+00 1.206159999999999997e+02 1.770360000000000127e+03
1.499999999999999944e-01 6.370365000000000055e-01 5.397260000000000169e+00 1.206274999999999977e+02 1.770360000000000127e+03
1.509999999999999953e-01 6.370365000000000055e-01 5.363459999999999894e+00 1.206274999999999977e+02 1.770360000000000127e+03
1.519999999999999962e-01 6.370339999999999892e-01 5.329324999999999868e+00 1.206135000000000019e+02 1.770360000000000127e+03
1.529999999999999971e-01 6.370275000000000798e-01 5.293660000000000032e+00 1.205815000000000055e+02 1.770345000000000027e+03
1.539999999999999980e-01 6.370175000000000143e-01 5.255675000000000097e+00 1.205324999999999989e+02 1.770340000000000146e+03
1.549999999999999989e-01 6.370050000000000434e-01 5.215004999999999669e+00 1.204650000000000034e+02 1.770320000000000164e+03
1.559999999999999998e-01 6.369884999999999575e-01 5.171685000000000088e+00 1.203810000000000002e+02 1.770304999999999836e+03
1.570000000000000007e-01 6.369694999999999663e-01 5.126144999999999285e+00 1.202824999999999989e+02 1.770284999999999854e+03
1.580000000000000016e-01 6.369484999999999175e-01 5.079175000000000217e+00 1.201735000000000042e+02 1.770255000000000109e+03
1.590000000000000024e-01 6.369264999999999510e-01 5.031880000000000130e+00 1.200570000000000022e+02 1.770224999999999909e+03
