# t [s], A [cm^2], U [cm/s], P [cPa], c [cm/s]
1.000000000000000021e-03 1.393984999999999808e-01 2.135630000000000028e-01 9.067359999999999332e+01 1.954829999999999927e+03
2.000000000000000042e-03 1.393719999999999959e-01 1.541121500000000033e+00 8.798994999999999322e+01 1.954514999999999873e+03
3.000000000000000062e-03 1.392859999999999931e-01 3.208940000000000126e+00 8.428934999999999889e+01 1.953535000000000082e+03
4.000000000000000083e-03 1.391600000000000059e-01 5.084017849999999505e+00 8.007345000000000823e+01 1.952134999999999991e+03
5.000000000000000104e-03 1.390180000000000027e-01 7.116405000000000314e+00 7.607159999999998945e+01 1.950559999999999945e+03
6.000000000000000125e-03 1.388759999999999994e-01 9.197050000000000836e+00 7.267549999999999955e+01 1.949009999999999991e+03
7.000000000000000146e-03 1.387415000000000176e-01 1.115199500000000121e+01 6.983464999999999634e+01 1.947559999999999945e+03
8.000000000000000167e-03 1.386155000000000026e-01 1.285209000000000046e+01 6.731364999999999554e+01 1.946230000000000018e+03
9.000000000000001055e-03 1.385010000000000130e-01 1.428683000000000014e+01 6.504345000000000709e+01 1.945034999999999854e+03
1.000000000000000194e-02 1.384004999999999819e-01 1.549380000000000024e+01 6.309839999999999804e+01 1.944005000000000109e+03
1.099999999999999936e-02 1.383159999999999945e-01 1.649514999999999887e+01 6.151345000000000596e+01 1.943139999999999873e+03
1.200000000000000025e-02 1.382459999999999800e-01 1.730429999999999779e+01 6.026415000000000077e+01 1.942434999999999945e+03
1.300000000000000114e-02 1.381900000000000073e-01 1.793244999999999933e+01 5.930190000000000339e+01 1.941880000000000109e+03
1.400000000000000203e-02 1.381455000000000044e-01 1.838139999999999930e+01 5.854565000000000197e+01 1.941444999999999936e+03
1.499999999999999944e-02 1.381094999999999962e-01 1.865784999999999982e+01 5.790144999999999698e+01 1.941099999999999909e+03
1.600000000000000033e-02 1.380794999999999939e-01 1.880749999999999744e+01 5.735269999999999868e+01 1.940819999999999936e+03
1.700000000000000122e-02 1.380574999999999997e-01 1.892804999999999893e+01 5.703359999999999985e+01 1.940625000000000000e+03
1.800000000000000211e-02 1.380504999999999927e-01 1.913850000000000051e+01 5.719320000000000448e+01 1.940565000000000055e+03
1.900000000000000300e-02 1.380620000000000180e-01 1.952510000000000190e+01 5.805930000000000035e+01 1.940694999999999936e+03
2.000000000000000042e-02 1.380965000000000109e-01 2.009870000000000090e+01 5.969429999999999836e+01 1.941049999999999955e+03
2.100000000000000130e-02 1.381505000000000094e-01 2.078819999999999979e+01 6.192905000000000371e+01 1.941605000000000018e+03
2.200000000000000219e-02 1.382180000000000075e-01 2.146750000000000114e+01 6.440255000000000507e+01 1.942300000000000182e+03
2.299999999999999961e-02 1.382869999999999933e-01 2.200169999999999959e+01 6.667865000000000464e+01 1.943019999999999982e+03
2.400000000000000050e-02 1.383489999999999998e-01 2.229019999999999868e+01 6.838259999999999650e+01 1.943674999999999955e+03
2.500000000000000139e-02 1.383945000000000036e-01 2.229344999999999999e+01 6.930545000000000755e+01 1.944179999999999836e+03
2.600000000000000228e-02 1.384210000000000163e-01 2.203705000000000069e+01 6.944485000000000241e+01 1.944474999999999909e+03
2.700000000000000316e-02 1.384289999999999965e-01 2.159430000000000049e+01 6.897690000000000055e+01 1.944590000000000146e+03
2.800000000000000058e-02 1.384239999999999915e-01 2.105660000000000309e+01 6.817600000000000193e+01 1.944550000000000182e+03
2.900000000000000147e-02 1.384110000000000062e-01 2.050325000000000131e+01 6.731794999999999618e+01 1.944429999999999836e+03
3.000000000000000236e-02 1.383959999999999912e-01 1.998029999999999973e+01 6.659765000000000157e+01 1.944285000000000082e+03
3.099999999999999978e-02 1.383830000000000060e-01 1.949334999999999951e+01 6.608664999999999168e+01 1.944144999999999982e+03
3.200000000000000067e-02 1.383719999999999950e-01 1.901464999999999961e+01 6.573560000000000514e+01 1.944029999999999973e+03
3.300000000000000155e-02 1.383614999999999984e-01 1.849920000000000186e+01 6.541370000000000573e+01 1.943920000000000073e+03
3.400000000000000244e-02 1.383489999999999998e-01 1.790500000000000114e+01 6.496859999999999502e+01 1.943795000000000073e+03
3.500000000000000333e-02 1.383310000000000095e-01 1.721089999999999876e+01 6.428700000000000614e+01 1.943619999999999891e+03
3.600000000000000422e-02 1.383064999999999989e-01 1.642770000000000152e+01 6.333965000000000600e+01 1.943369999999999891e+03
3.700000000000000511e-02 1.382760000000000100e-01 1.559965000000000046e+01 6.220014999999999361e+01 1.943059999999999945e+03
3.799999999999999906e-02 1.382414999999999894e-01 1.479639999999999844e+01 6.103170000000000073e+01 1.942715000000000146e+03
3.899999999999999994e-02 1.382094999999999851e-01 1.409710000000000107e+01 6.004779999999999518e+01 1.942384999999999991e+03
4.000000000000000083e-02 1.381844999999999879e-01 1.357189999999999941e+01 5.945820000000000505e+01 1.942119999999999891e+03
4.100000000000000172e-02 1.381719999999999893e-01 1.326619999999999955e+01 5.941599999999999682e+01 1.941970000000000027e+03
4.200000000000000261e-02 1.381745000000000057e-01 1.319040000000000035e+01 5.998004999999999853e+01 1.941985000000000127e+03
4.300000000000000350e-02 1.381934999999999969e-01 1.331859999999999999e+01 6.110065000000000168e+01 1.942164999999999964e+03
4.400000000000000439e-02 1.382269999999999888e-01 1.359400000000000119e+01 6.263025000000000375e+01 1.942490000000000009e+03
4.499999999999999833e-02 1.382700000000000040e-01 1.394024999999999892e+01 6.435325000000000273e+01 1.942924999999999955e+03
4.599999999999999922e-02 1.383174999999999821e-01 1.427435000000000009e+01 6.602549999999999386e+01 1.943410000000000082e+03
4.700000000000000011e-02 1.383630000000000138e-01 1.451940000000000097e+01 6.741514999999999702e+01 1.943869999999999891e+03
4.800000000000000100e-02 1.384000000000000230e-01 1.461364999999999981e+01 6.833570000000000277e+01 1.944255000000000109e+03
4.900000000000000189e-02 1.384235000000000049e-01 1.451650000000000063e+01 6.866679999999999495e+01 1.944509999999999991e+03
5.000000000000000278e-02 1.384305000000000119e-01 1.420984999999999943e+01 6.836170000000001323e+01 1.944595000000000027e+03
5.100000000000000366e-02 1.384210000000000163e-01 1.369549999999999912e+01 6.744069999999999254e+01 1.944509999999999991e+03
5.200000000000000455e-02 1.383929999999999882e-01 1.299119999999999919e+01 6.597629999999999484e+01 1.944235000000000127e+03
5.300000000000000544e-02 1.383504999999999874e-01 1.212431000000000125e+01 6.407335000000000491e+01 1.943804999999999836e+03
5.399999999999999939e-02 1.382940000000000003e-01 1.112743000000000038e+01 6.184935000000000116e+01 1.943230000000000018e+03
5.500000000000000028e-02 1.382275000000000031e-01 1.003393499999999960e+01 5.941885000000000616e+01 1.942554999999999836e+03
5.600000000000000117e-02 1.381539999999999990e-01 8.875819999999999155e+00 5.688335000000000008e+01 1.941799999999999955e+03
5.700000000000000205e-02 1.380760000000000043e-01 7.683135000000000048e+00 5.432789999999999964e+01 1.940994999999999891e+03
5.800000000000000294e-02 1.379965000000000219e-01 6.484370000000000189e+00 5.182254999999999967e+01 1.940170000000000073e+03
5.900000000000000383e-02 1.379170000000000118e-01 5.307595000000000063e+00 4.942685000000000173e+01 1.939349999999999909e+03
6.000000000000000472e-02 1.378400000000000181e-01 4.181569999999999787e+00 4.719570000000000221e+01 1.938549999999999955e+03
6.099999999999999867e-02 1.377674999999999872e-01 3.136371000000000020e+00 4.518394999999999584e+01 1.937799999999999955e+03
6.199999999999999956e-02 1.377014999999999767e-01 2.203376999999999697e+00 4.344910000000000139e+01 1.937115000000000009e+03
6.300000000000000044e-02 1.376439999999999886e-01 1.414447500000000080e+00 4.205169999999999675e+01 1.936509999999999991e+03
6.400000000000000133e-02 1.375970000000000248e-01 8.004530000000000811e-01 4.105254999999999654e+01 1.936019999999999982e+03
6.500000000000000222e-02 1.375624999999999765e-01 3.893980000000000774e-01 4.050880000000000081e+01 1.935644999999999982e+03
6.600000000000000311e-02 1.375430000000000264e-01 2.044609999999999761e-01 4.046869999999999834e+01 1.935424999999999955e+03
6.700000000000000400e-02 1.375389999999999946e-01 2.622114999999999863e-01 4.096654999999999802e+01 1.935365000000000009e+03
6.800000000000000488e-02 1.375514999999999932e-01 5.713350000000000373e-01 4.201910000000000167e+01 1.935474999999999909e+03
6.900000000000000577e-02 1.375814999999999955e-01 1.131960999999999995e+00 4.362274999999999636e+01 1.935764999999999873e+03
7.000000000000000666e-02 1.376294999999999880e-01 1.935620699999999861e+00 4.575365000000000038e+01 1.936234999999999900e+03
7.100000000000000755e-02 1.376934999999999965e-01 2.965870999999999924e+00 4.836884999999999479e+01 1.936880000000000109e+03
7.200000000000000844e-02 1.377734999999999932e-01 4.199349999999999916e+00 5.140935000000000343e+01 1.937684999999999945e+03
7.300000000000000933e-02 1.378670000000000173e-01 5.607215000000000060e+00 5.480395000000000039e+01 1.938634999999999991e+03
7.399999999999999634e-02 1.379724999999999979e-01 7.156765000000000043e+00 5.847384999999999877e+01 1.939710000000000036e+03
7.499999999999999722e-02 1.380870000000000153e-01 8.813240000000000407e+00 6.233749999999999858e+01 1.940884999999999991e+03
7.599999999999999811e-02 1.382085000000000119e-01 1.054133999999999993e+01 6.631470000000000198e+01 1.942139999999999873e+03
7.699999999999999900e-02 1.383349999999999858e-01 1.230710999999999977e+01 7.033110000000000639e+01 1.943444999999999936e+03
7.799999999999999989e-02 1.384640000000000037e-01 1.407910000000000039e+01 7.432150000000000034e+01 1.944779999999999973e+03
7.900000000000000078e-02 1.385925000000000074e-01 1.582990000000000030e+01 7.823265000000000668e+01 1.946125000000000000e+03
8.000000000000000167e-02 1.387204999999999966e-01 1.753685000000000116e+01 8.202504999999999313e+01 1.947454999999999927e+03
8.100000000000000255e-02 1.388455000000000106e-01 1.918274999999999864e+01 8.567385000000000161e+01 1.948769999999999982e+03
8.200000000000000344e-02 1.389675000000000216e-01 2.075605000000000189e+01 8.916864999999999952e+01 1.950045000000000073e+03
8.300000000000000433e-02 1.390850000000000142e-01 2.225039999999999907e+01 9.251224999999999454e+01 1.951289999999999964e+03
8.400000000000000522e-02 1.391985000000000028e-01 2.366445000000000221e+01 9.571854999999999336e+01 1.952494999999999891e+03
8.500000000000000611e-02 1.393089999999999884e-01 2.500084999999999980e+01 9.880944999999999823e+01 1.953659999999999854e+03
8.600000000000000699e-02 1.394159999999999844e-01 2.626514999999999844e+01 1.018120499999999993e+02 1.954795000000000073e+03
8.700000000000000788e-02 1.395200000000000051e-01 2.746475000000000222e+01 1.047547500000000014e+02 1.955904999999999973e+03
8.800000000000000877e-02 1.396235000000000115e-01 2.860759999999999792e+01 1.076649999999999920e+02 1.956994999999999891e+03
8.899999999999999578e-02 1.397245000000000015e-01 2.970170000000000243e+01 1.105660000000000025e+02 1.958079999999999927e+03
8.999999999999999667e-02 1.398260000000000058e-01 3.075349999999999895e+01 1.134745000000000061e+02 1.959164999999999964e+03
9.099999999999999756e-02 1.399275000000000102e-01 3.176810000000000045e+01 1.164004999999999939e+02 1.960240000000000009e+03
9.199999999999999845e-02 1.400290000000000146e-01 3.274815000000000254e+01 1.193455000000000013e+02 1.961325000000000045e+03
9.299999999999999933e-02 1.401310000000000056e-01 3.369425000000000381e+01 1.223044999999999902e+02 1.962414999999999964e+03
9.400000000000000022e-02 1.402329999999999965e-01 3.460460000000000491e+01 1.252644999999999982e+02 1.963505000000000109e+03
9.500000000000000111e-02 1.403349999999999875e-01 3.547520000000000095e+01 1.282069999999999936e+02 1.964590000000000146e+03
9.600000000000000200e-02 1.404360000000000053e-01 3.630039999999999623e+01 1.311094999999999970e+02 1.965675000000000182e+03
9.700000000000000289e-02 1.405355000000000076e-01 3.707294999999999874e+01 1.339449999999999932e+02 1.966740000000000009e+03
9.800000000000000377e-02 1.406324999999999936e-01 3.778470000000000084e+01 1.366870000000000118e+02 1.967785000000000082e+03
9.900000000000000466e-02 1.407269999999999910e-01 3.842680000000000007e+01 1.393059999999999832e+02 1.968795000000000073e+03
1.000000000000000056e-01 1.408170000000000255e-01 3.899020000000000152e+01 1.417749999999999773e+02 1.969764999999999873e+03
1.010000000000000064e-01 1.409030000000000005e-01 3.946640000000000015e+01 1.440689999999999884e+02 1.970684999999999945e+03
1.020000000000000073e-01 1.409825000000000106e-01 3.984725000000000250e+01 1.461649999999999920e+02 1.971549999999999955e+03
1.030000000000000082e-01 1.410559999999999869e-01 4.012595000000000312e+01 1.480430000000000064e+02 1.972345000000000027e+03
1.040000000000000091e-01 1.411224999999999841e-01 4.029699999999999704e+01 1.496885000000000048e+02 1.973065000000000055e+03
1.050000000000000100e-01 1.411815000000000153e-01 4.035674999999999812e+01 1.510914999999999964e+02 1.973710000000000036e+03
1.059999999999999970e-01 1.412324999999999831e-01 4.030349999999999966e+01 1.522465000000000259e+02 1.974269999999999982e+03
1.069999999999999979e-01 1.412760000000000127e-01 4.013785000000000025e+01 1.531539999999999964e+02 1.974744999999999891e+03
1.079999999999999988e-01 1.413110000000000199e-01 3.986270000000000380e+01 1.538204999999999814e+02 1.975134999999999991e+03
1.089999999999999997e-01 1.413384999999999780e-01 3.948314999999999486e+01 1.542560000000000002e+02 1.975445000000000164e+03
1.100000000000000006e-01 1.413584999999999980e-01 3.900655000000000427e+01 1.544775000000000205e+02 1.975670000000000073e+03
1.110000000000000014e-01 1.413714999999999833e-01 3.844209999999999638e+01 1.545054999999999836e+02 1.975815000000000055e+03
1.120000000000000023e-01 1.413774999999999893e-01 3.780070000000000618e+01 1.543640000000000043e+02 1.975894999999999982e+03
1.130000000000000032e-01 1.413785000000000180e-01 3.709449999999999648e+01 1.540785000000000196e+02 1.975914999999999964e+03
1.140000000000000041e-01 1.413739999999999997e-01 3.633624999999999972e+01 1.536769999999999925e+02 1.975875000000000000e+03
1.150000000000000050e-01 1.413655000000000050e-01 3.553914999999999935e+01 1.531875000000000000e+02 1.975795000000000073e+03
1.160000000000000059e-01 1.413544999999999940e-01 3.471625000000000227e+01 1.526355000000000075e+02 1.975674999999999955e+03
1.170000000000000068e-01 1.413399999999999934e-01 3.387989999999999924e+01 1.520475000000000136e+02 1.975529999999999973e+03
1.180000000000000077e-01 1.413245000000000196e-01 3.304144999999999754e+01 1.514449999999999932e+02 1.975360000000000127e+03
1.190000000000000085e-01 1.413075000000000025e-01 3.221094999999999686e+01 1.508470000000000084e+02 1.975184999999999945e+03
1.200000000000000094e-01 1.412900000000000267e-01 3.139695000000000036e+01 1.502674999999999841e+02 1.975000000000000000e+03
1.209999999999999964e-01 1.412729999999999819e-01 3.060610000000000142e+01 1.497175000000000011e+02 1.974819999999999936e+03
1.219999999999999973e-01 1.412570000000000214e-01 2.984309999999999974e+01 1.492035000000000196e+02 1.974635000000000218e+03
1.229999999999999982e-01 1.412410000000000054e-01 2.911084999999999923e+01 1.487280000000000086e+02 1.974470000000000027e+03
1.239999999999999991e-01 1.412255000000000038e-01 2.841029999999999944e+01 1.482875000000000227e+02 1.974299999999999955e+03
1.250000000000000000e-01 1.412114999999999898e-01 2.774044999999999916e+01 1.478779999999999859e+02 1.974144999999999982e+03
1.260000000000000009e-01 1.411975000000000036e-01 2.709879999999999711e+01 1.474900000000000091e+02 1.973994999999999891e+03
1.270000000000000018e-01 1.411844999999999906e-01 2.648145000000000238e+01 1.471114999999999782e+02 1.973849999999999909e+03
1.280000000000000027e-01 1.411709999999999909e-01 2.588315000000000055e+01 1.467294999999999732e+02 1.973704999999999927e+03
1.290000000000000036e-01 1.411580000000000057e-01 2.529809999999999803e+01 1.463290000000000077e+02 1.973559999999999945e+03
1.300000000000000044e-01 1.411439999999999917e-01 2.471979999999999933e+01 1.458954999999999984e+02 1.973404999999999973e+03
1.310000000000000053e-01 1.411284999999999901e-01 2.414170000000000016e+01 1.454130000000000109e+02 1.973240000000000009e+03
1.320000000000000062e-01 1.411120000000000152e-01 2.355749999999999744e+01 1.448684999999999832e+02 1.973059999999999945e+03
1.330000000000000071e-01 1.410929999999999962e-01 2.296130000000000138e+01 1.442495000000000118e+02 1.972855000000000018e+03
1.340000000000000080e-01 1.410720000000000030e-01 2.234830000000000183e+01 1.435480000000000018e+02 1.972630000000000109e+03
1.350000000000000089e-01 1.410480000000000067e-01 2.171460000000000079e+01 1.427565000000000168e+02 1.972375000000000000e+03
1.360000000000000098e-01 1.410220000000000085e-01 2.105769999999999698e+01 1.418725000000000023e+02 1.972095000000000027e+03
1.370000000000000107e-01 1.409930000000000072e-01 2.037675000000000125e+01 1.408965000000000032e+02 1.971780000000000200e+03
1.380000000000000115e-01 1.409600000000000020e-01 1.967229999999999990e+01 1.398325000000000102e+02 1.971440000000000055e+03
1.390000000000000124e-01 1.409255000000000091e-01 1.894660000000000011e+01 1.386895000000000095e+02 1.971065000000000055e+03
1.400000000000000133e-01 1.408880000000000132e-01 1.820345000000000013e+01 1.374784999999999968e+02 1.970670000000000073e+03
1.410000000000000142e-01 1.408484999999999876e-01 1.744810000000000016e+01 1.362144999999999868e+02 1.970244999999999891e+03
1.420000000000000151e-01 1.408070000000000155e-01 1.668690000000000140e+01 1.349149999999999920e+02 1.969799999999999955e+03
1.430000000000000160e-01 1.407645000000000146e-01 1.592735000000000056e+01 1.335985000000000014e+02 1.969349999999999909e+03
1.440000000000000169e-01 1.407209999999999850e-01 1.517750000000000021e+01 1.322860000000000014e+02 1.968889999999999873e+03
1.450000000000000178e-01 1.406779999999999975e-01 1.444569999999999865e+01 1.309970000000000141e+02 1.968430000000000064e+03
1.459999999999999909e-01 1.406354999999999966e-01 1.374030000000000129e+01 1.297524999999999977e+02 1.967974999999999909e+03
1.469999999999999918e-01 1.405939999999999968e-01 1.306940000000000168e+01 1.285704999999999814e+02 1.967529999999999973e+03
1.479999999999999927e-01 1.405549999999999855e-01 1.244014999999999915e+01 1.274675000000000011e+02 1.967110000000000127e+03
1.489999999999999936e-01 1.405175000000000174e-01 1.185905499999999968e+01 1.264575000000000102e+02 1.966710000000000036e+03
1.499999999999999944e-01 1.404834999999999834e-01 1.133109500000000125e+01 1.255510000000000019e+02 1.966340000000000146e+03
1.509999999999999953e-01 1.404519999999999935e-01 1.086021000000000036e+01 1.247560000000000002e+02 1.966005000000000109e+03
1.519999999999999962e-01 1.404245000000000076e-01 1.044877999999999929e+01 1.240755000000000052e+02 1.965699999999999818e+03
1.529999999999999971e-01 1.403999999999999970e-01 1.009770999999999930e+01 1.235114999999999981e+02 1.965440000000000055e+03
1.539999999999999980e-01 1.403794999999999904e-01 9.806589999999999918e+00 1.230605000000000047e+02 1.965210000000000036e+03
1.549999999999999989e-01 1.403625000000000012e-01 9.573615000000000208e+00 1.227175000000000011e+02 1.965025000000000091e+03
1.559999999999999998e-01 1.403490000000000015e-01 9.395904999999999063e+00 1.224740000000000038e+02 1.964869999999999891e+03
1.570000000000000007e-01 1.403380000000000183e-01 9.269484999999999530e+00 1.223209999999999980e+02 1.964755000000000109e+03
1.580000000000000016e-01 1.403304999999999969e-01 9.189719999999999445e+00 1.222489999999999952e+02 1.964670000000000073e+03
1.590000000000000024e-01 1.403260000000000063e-01 9.151279999999999859e+00 1.222435000000000116e+02 1.964615000000000009e+03
