# t [s], A [cm^2], U [cm/s], P [cPa], c [cm/s]
1.000000000000000021e-03 6.911914999999999587e-01 5.872549999999997217e-03 9.337950000000000728e+01 1.746355000000000018e+03
2.000000000000000042e-03 6.911804999999999755e-01 -2.595179750000000014e-03 9.334770000000000323e+01 1.746339999999999918e+03
3.000000000000000062e-03 6.912369999999999903e-01 9.786720000000001529e-02 9.346450000000000102e+01 1.746369999999999891e+03
4.000000000000000083e-03 6.912840000000000096e-01 1.943449999999999900e-01 9.359135000000000559e+01 1.746400000000000091e+03
5.000000000000000104e-03 6.912495000000000722e-01 1.601171499999999859e-01 9.351185000000000969e+01 1.746384999999999991e+03
6.000000000000000125e-03 6.911819999999999631e-01 6.249749999999998362e-02 9.327045000000001096e+01 1.746335000000000036e+03
7.000000000000000146e-03 6.911260000000000181e-01 -2.475700000000002898e-02 9.297874999999999091e+01 1.746269999999999982e+03
8.000000000000000167e-03 6.910315000000000207e-01 -1.919100000000000250e-01 9.253659999999999286e+01 1.746170000000000073e+03
9.000000000000001055e-03 6.908739999999999881e-01 -4.888000000000000123e-01 9.185079999999999245e+01 1.746019999999999982e+03
1.000000000000000194e-02 6.906449999999999534e-01 -9.279399999999999871e-01 9.086414999999999509e+01 1.745804999999999836e+03
1.099999999999999936e-02 6.903224999999999500e-01 -1.539715000000000167e+00 8.949084999999999468e+01 1.745500000000000000e+03
1.200000000000000025e-02 6.899075000000000069e-01 -2.302729999999999944e+00 8.770685000000000286e+01 1.745099999999999909e+03
1.300000000000000114e-02 6.894575000000000564e-01 -3.092909999999999826e+00 8.564515000000000100e+01 1.744625000000000000e+03
1.400000000000000203e-02 6.890484999999999527e-01 -3.739061999999999664e+00 8.354894999999999072e+01 1.744125000000000000e+03
1.499999999999999944e-02 6.887289999999999246e-01 -4.115867650000000211e+00 8.164254999999999995e+01 1.743644999999999982e+03
1.600000000000000033e-02 6.885019999999999474e-01 -4.191494999999999749e+00 8.003494999999999493e+01 1.743210000000000036e+03
1.700000000000000122e-02 6.883314999999999850e-01 -4.017454999999999998e+00 7.870240000000001146e+01 1.742829999999999927e+03
1.800000000000000211e-02 6.881680000000000019e-01 -3.687559999999999949e+00 7.752949999999999875e+01 1.742474999999999909e+03
1.900000000000000300e-02 6.879699999999999704e-01 -3.292956000000000216e+00 7.637360000000001037e+01 1.742134999999999991e+03
2.000000000000000042e-02 6.877195000000000391e-01 -2.889597000000000193e+00 7.512465000000000259e+01 1.741764999999999873e+03
2.100000000000000130e-02 6.874204999999999899e-01 -2.486310999999999716e+00 7.374074999999999136e+01 1.741380000000000109e+03
2.200000000000000219e-02 6.870960000000000401e-01 -2.054715000000000291e+00 7.224959999999998672e+01 1.740965000000000146e+03
2.299999999999999961e-02 6.867729999999999668e-01 -1.554320000000000146e+00 7.072055000000000291e+01 1.740539999999999964e+03
2.400000000000000050e-02 6.864679999999999671e-01 -9.601350000000001828e-01 6.922225000000000250e+01 1.740109999999999900e+03
2.500000000000000139e-02 6.861824999999999175e-01 -2.813200000000000145e-01 6.778589999999999804e+01 1.739700000000000045e+03
2.600000000000000228e-02 6.858994999999999953e-01 4.345799999999997443e-01 6.638640000000000896e+01 1.739295000000000073e+03
2.700000000000000316e-02 6.855904999999999916e-01 1.110780000000000101e+00 6.494470000000001164e+01 1.738880000000000109e+03
2.800000000000000058e-02 6.852229999999999155e-01 1.659654999999999880e+00 6.334860000000000468e+01 1.738434999999999945e+03
2.900000000000000147e-02 6.847704999999999487e-01 2.004800000000000360e+00 6.148509999999999565e+01 1.737940000000000055e+03
3.000000000000000236e-02 6.842230000000000256e-01 2.100894999999999957e+00 5.927530000000000143e+01 1.737369999999999891e+03
3.099999999999999978e-02 6.835879999999999734e-01 1.945235000000000269e+00 5.670130000000000337e+01 1.736715000000000146e+03
3.200000000000000067e-02 6.828909999999999147e-01 1.577354999999999841e+00 5.381634999999999991e+01 1.736000000000000000e+03
3.300000000000000155e-02 6.821694999999999842e-01 1.067324999999999413e+00 5.073574999999999591e+01 1.735224999999999909e+03
3.400000000000000244e-02 6.814649999999999874e-01 4.980400000000004823e-01 4.761285000000000167e+01 1.734440000000000055e+03
3.500000000000000333e-02 6.808125000000000426e-01 -5.199499999999979138e-02 4.461050000000000182e+01 1.733670000000000073e+03
3.600000000000000422e-02 6.802405000000000257e-01 -5.205799999999993766e-01 4.187555000000000405e+01 1.732950000000000045e+03
3.700000000000000511e-02 6.797649999999999526e-01 -8.668300000000002115e-01 3.952219999999999800e+01 1.732315000000000055e+03
3.799999999999999906e-02 6.793940000000000534e-01 -1.070034999999999847e+00 3.762539999999999907e+01 1.731779999999999973e+03
3.899999999999999994e-02 6.791270000000000362e-01 -1.124450000000000172e+00 3.622290000000000276e+01 1.731360000000000127e+03
4.000000000000000083e-02 6.789625000000000243e-01 -1.032354999999999912e+00 3.532319999999999993e+01 1.731065000000000055e+03
4.100000000000000172e-02 6.788939999999999975e-01 -7.974864999999999871e-01 3.491644999999999754e+01 1.730889999999999873e+03
4.200000000000000261e-02 6.789199999999999680e-01 -4.205372500000000291e-01 3.498479999999999990e+01 1.730840000000000146e+03
4.300000000000000350e-02 6.790374999999999606e-01 1.024049999999999683e-01 3.551004999999999967e+01 1.730909999999999854e+03
4.400000000000000439e-02 6.792460000000000164e-01 7.784900000000000153e-01 3.647610000000000241e+01 1.731099999999999909e+03
4.499999999999999833e-02 6.795444999999999958e-01 1.614734999999999809e+00 3.786825000000000330e+01 1.731389999999999873e+03
4.599999999999999922e-02 6.799310000000000631e-01 2.614044999999999952e+00 3.966904999999999859e+01 1.731799999999999955e+03
4.700000000000000011e-02 6.803980000000000583e-01 3.771874999999999645e+00 4.185360000000000014e+01 1.732300000000000182e+03
4.800000000000000100e-02 6.809380000000000432e-01 5.074565000000000659e+00 4.438649999999999807e+01 1.732900000000000091e+03
4.900000000000000189e-02 6.815385000000000471e-01 6.499595499999999859e+00 4.722010000000000218e+01 1.733579999999999927e+03
5.000000000000000278e-02 6.821844999999999715e-01 8.017260499999999013e+00 5.029600000000000648e+01 1.734329999999999927e+03
5.100000000000000366e-02 6.828604999999999814e-01 9.593725000000000946e+00 5.354850000000000421e+01 1.735134999999999991e+03
5.200000000000000455e-02 6.835529999999999662e-01 1.119439999999999991e+01 5.690945000000000675e+01 1.735974999999999909e+03
5.300000000000000544e-02 6.842464999999999797e-01 1.278708999999999918e+01 6.031364999999999554e+01 1.736845000000000027e+03
5.399999999999999939e-02 6.849324999999999442e-01 1.434425500000000042e+01 6.370369999999999777e+01 1.737715000000000146e+03
5.500000000000000028e-02 6.856020000000000447e-01 1.584484499999999940e+01 6.703385000000000105e+01 1.738585000000000036e+03
5.600000000000000117e-02 6.862504999999999855e-01 1.727449999999999974e+01 7.027174999999999727e+01 1.739440000000000055e+03
5.700000000000000205e-02 6.868765000000000009e-01 1.862529999999999930e+01 7.339920000000000755e+01 1.740269999999999982e+03
5.800000000000000294e-02 6.874810000000000088e-01 1.989495000000000147e+01 7.641089999999999804e+01 1.741085000000000036e+03
5.900000000000000383e-02 6.880664999999999143e-01 2.108534999999999826e+01 7.931235000000000923e+01 1.741875000000000000e+03
6.000000000000000472e-02 6.886369999999999436e-01 2.220145000000000124e+01 8.211745000000000516e+01 1.742639999999999873e+03
6.099999999999999867e-02 6.891964999999999897e-01 2.324974999999999881e+01 8.484505000000000052e+01 1.743384999999999991e+03
6.199999999999999956e-02 6.897495000000000154e-01 2.423734999999999928e+01 8.751614999999999611e+01 1.744119999999999891e+03
6.300000000000000044e-02 6.902995000000000658e-01 2.517079999999999984e+01 9.015094999999999459e+01 1.744840000000000146e+03
6.400000000000000133e-02 6.908495000000000053e-01 2.605534999999999712e+01 9.276664999999999850e+01 1.745550000000000182e+03
6.500000000000000222e-02 6.914009999999999323e-01 2.689440000000000097e+01 9.537485000000000923e+01 1.746264999999999873e+03
6.600000000000000311e-02 6.919534999999999991e-01 2.768885000000000218e+01 9.798160000000000025e+01 1.746980000000000018e+03
6.700000000000000400e-02 6.925060000000000660e-01 2.843750000000000000e+01 1.005842000000000098e+02 1.747690000000000055e+03
6.800000000000000488e-02 6.930555000000000465e-01 2.913674999999999926e+01 1.031748000000000047e+02 1.748394999999999982e+03
6.900000000000000577e-02 6.935990000000000766e-01 2.978154999999999930e+01 1.057385000000000019e+02 1.749099999999999909e+03
7.000000000000000666e-02 6.941310000000000535e-01 3.036554999999999893e+01 1.082554999999999978e+02 1.749789999999999964e+03
7.100000000000000755e-02 6.946464999999999446e-01 3.088214999999999932e+01 1.107055000000000007e+02 1.750464999999999918e+03
7.200000000000000844e-02 6.951419999999999266e-01 3.132489999999999952e+01 1.130629999999999882e+02 1.751115000000000009e+03
7.300000000000000933e-02 6.956124999999999670e-01 3.168809999999999860e+01 1.153075000000000045e+02 1.751744999999999891e+03
7.399999999999999634e-02 6.960535000000001027e-01 3.196710000000000207e+01 1.174175000000000040e+02 1.752339999999999918e+03
7.499999999999999722e-02 6.964620000000000255e-01 3.215855000000000530e+01 1.193754999999999882e+02 1.752894999999999982e+03
7.599999999999999811e-02 6.968360000000000110e-01 3.226060000000000372e+01 1.211670000000000016e+02 1.753409999999999854e+03
7.699999999999999900e-02 6.971735000000000015e-01 3.227240000000000464e+01 1.227820000000000107e+02 1.753880000000000109e+03
7.799999999999999989e-02 6.974735000000000795e-01 3.219494999999999862e+01 1.242150000000000034e+02 1.754305000000000064e+03
7.900000000000000078e-02 6.977354999999999530e-01 3.203034999999999854e+01 1.254619999999999891e+02 1.754674999999999955e+03
8.000000000000000167e-02 6.979594999999999549e-01 3.178214999999999790e+01 1.265250000000000057e+02 1.755000000000000000e+03
8.100000000000000255e-02 6.981479999999999908e-01 3.145550000000000068e+01 1.274105000000000132e+02 1.755279999999999973e+03
8.200000000000000344e-02 6.983019999999999783e-01 3.105679999999999907e+01 1.281254999999999882e+02 1.755514999999999873e+03
8.300000000000000433e-02 6.984249999999999625e-01 3.059405000000000285e+01 1.286829999999999927e+02 1.755700000000000045e+03
8.400000000000000522e-02 6.985200000000000298e-01 3.007634999999999792e+01 1.290985000000000014e+02 1.755849999999999909e+03
8.500000000000000611e-02 6.985894999999999744e-01 2.951404999999999745e+01 1.293884999999999934e+02 1.755965000000000146e+03
8.600000000000000699e-02 6.986394999999999689e-01 2.891784999999999783e+01 1.295734999999999957e+02 1.756039999999999964e+03
8.700000000000000788e-02 6.986734999999999474e-01 2.829895000000000138e+01 1.296730000000000018e+02 1.756095000000000027e+03
8.800000000000000877e-02 6.986950000000000660e-01 2.766794999999999760e+01 1.297069999999999936e+02 1.756130000000000109e+03
8.899999999999999578e-02 6.987084999999999546e-01 2.703495000000000203e+01 1.296959999999999980e+02 1.756144999999999982e+03
8.999999999999999667e-02 6.987160000000000037e-01 2.640849999999999653e+01 1.296560000000000059e+02 1.756154999999999973e+03
9.099999999999999756e-02 6.987220000000000653e-01 2.579540000000000077e+01 1.296014999999999873e+02 1.756154999999999973e+03
9.199999999999999845e-02 6.987265000000000281e-01 2.520074999999999932e+01 1.295430000000000064e+02 1.756144999999999982e+03
9.299999999999999933e-02 6.987315000000000609e-01 2.462734999999999985e+01 1.294875000000000114e+02 1.756139999999999873e+03
9.400000000000000022e-02 6.987364999999999826e-01 2.407609999999999673e+01 1.294379999999999882e+02 1.756130000000000109e+03
9.500000000000000111e-02 6.987404999999999866e-01 2.354585000000000150e+01 1.293924999999999841e+02 1.756115000000000009e+03
9.600000000000000200e-02 6.987430000000000030e-01 2.303394999999999726e+01 1.293485000000000014e+02 1.756105000000000018e+03
9.700000000000000289e-02 6.987419999999999742e-01 2.253650000000000020e+01 1.292964999999999804e+02 1.756090000000000146e+03
9.800000000000000377e-02 6.987354999999999539e-01 2.204860000000000042e+01 1.292299999999999898e+02 1.756070000000000164e+03
9.900000000000000466e-02 6.987210000000000365e-01 2.156479999999999819e+01 1.291365000000000123e+02 1.756045000000000073e+03
1.000000000000000056e-01 6.986969999999999015e-01 2.107949999999999946e+01 1.290070000000000050e+02 1.756014999999999873e+03
1.010000000000000064e-01 6.986609999999999765e-01 2.058729999999999905e+01 1.288300000000000125e+02 1.755970000000000027e+03
1.020000000000000073e-01 6.986114999999999409e-01 2.008330000000000126e+01 1.285974999999999966e+02 1.755909999999999854e+03
1.030000000000000082e-01 6.985474999999999879e-01 1.956334999999999980e+01 1.283009999999999877e+02 1.755835000000000036e+03
1.040000000000000091e-01 6.984679999999999778e-01 1.902439999999999998e+01 1.279360000000000070e+02 1.755750000000000000e+03
1.050000000000000100e-01 6.983730000000000215e-01 1.846470000000000056e+01 1.275000000000000000e+02 1.755634999999999991e+03
1.059999999999999970e-01 6.982625000000000082e-01 1.788390000000000057e+01 1.269934999999999974e+02 1.755514999999999873e+03
1.069999999999999979e-01 6.981384999999999952e-01 1.728310000000000102e+01 1.264199999999999875e+02 1.755369999999999891e+03
1.079999999999999988e-01 6.980020000000000113e-01 1.666499999999999915e+01 1.257865000000000038e+02 1.755204999999999927e+03
1.089999999999999997e-01 6.978560000000000318e-01 1.603350000000000009e+01 1.251014999999999873e+02 1.755034999999999854e+03
1.100000000000000006e-01 6.977020000000000444e-01 1.539414999999999978e+01 1.243785000000000025e+02 1.754844999999999800e+03
1.110000000000000014e-01 6.975454999999999295e-01 1.475314999999999799e+01 1.236305000000000121e+02 1.754660000000000082e+03
1.120000000000000023e-01 6.973875000000000490e-01 1.411766000000000076e+01 1.228729999999999905e+02 1.754460000000000036e+03
1.130000000000000032e-01 6.972329999999999917e-01 1.349521499999999996e+01 1.221235000000000070e+02 1.754259999999999991e+03
1.140000000000000041e-01 6.970849999999999547e-01 1.289337000000000089e+01 1.213975000000000080e+02 1.754069999999999936e+03
1.150000000000000050e-01 6.969464999999999133e-01 1.231946500000000100e+01 1.207115000000000009e+02 1.753884999999999991e+03
1.160000000000000059e-01 6.968210000000000237e-01 1.178021000000000029e+01 1.200785000000000053e+02 1.753715000000000146e+03
1.170000000000000068e-01 6.967095000000000926e-01 1.128127999999999886e+01 1.195124999999999886e+02 1.753549999999999955e+03
1.180000000000000077e-01 6.966149999999999842e-01 1.082737000000000016e+01 1.190224999999999937e+02 1.753414999999999964e+03
1.190000000000000085e-01 6.965384999999999494e-01 1.042161500000000096e+01 1.186154999999999973e+02 1.753289999999999964e+03
1.200000000000000094e-01 6.964799999999999880e-01 1.006575499999999934e+01 1.182955000000000041e+02 1.753190000000000055e+03
1.209999999999999964e-01 6.964394999999999891e-01 9.760139999999999816e+00 1.180630000000000024e+02 1.753115000000000009e+03
1.219999999999999973e-01 6.964159999999999240e-01 9.503614999999999924e+00 1.179155000000000086e+02 1.753055000000000064e+03
1.229999999999999982e-01 6.964084999999999859e-01 9.293765000000000498e+00 1.178474999999999966e+02 1.753025000000000091e+03
1.239999999999999991e-01 6.964144999999999364e-01 9.127185000000000770e+00 1.178520000000000039e+02 1.753009999999999991e+03
1.250000000000000000e-01 6.964330000000000798e-01 8.999510000000000787e+00 1.179194999999999993e+02 1.753009999999999991e+03
1.260000000000000009e-01 6.964609999999999967e-01 8.905950000000000699e+00 1.180399999999999920e+02 1.753030000000000200e+03
1.270000000000000018e-01 6.964965000000000739e-01 8.841325000000001211e+00 1.182030000000000030e+02 1.753059999999999945e+03
1.280000000000000027e-01 6.965380000000001015e-01 8.800415000000000987e+00 1.183965000000000032e+02 1.753099999999999909e+03
1.290000000000000036e-01 6.965825000000001044e-01 8.778105000000000047e+00 1.186115000000000066e+02 1.753144999999999982e+03
1.300000000000000044e-01 6.966280000000000250e-01 8.769600000000000506e+00 1.188379999999999939e+02 1.753199999999999818e+03
1.310000000000000053e-01 6.966740000000000155e-01 8.770514999999999617e+00 1.190679999999999978e+02 1.753250000000000000e+03
1.320000000000000062e-01 6.967190000000000882e-01 8.776975000000000193e+00 1.192949999999999875e+02 1.753305000000000064e+03
1.330000000000000071e-01 6.967615000000000336e-01 8.785629999999999384e+00 1.195130000000000052e+02 1.753360000000000127e+03
1.340000000000000080e-01 6.968015000000000736e-01 8.793710000000000804e+00 1.197185000000000059e+02 1.753409999999999854e+03
1.350000000000000089e-01 6.968380000000000685e-01 8.799005000000001075e+00 1.199085000000000036e+02 1.753460000000000036e+03
1.360000000000000098e-01 6.968714999999999771e-01 8.799859999999998905e+00 1.200809999999999889e+02 1.753505000000000109e+03
1.370000000000000107e-01 6.969015000000000626e-01 8.795139999999999958e+00 1.202359999999999900e+02 1.753549999999999955e+03
1.380000000000000115e-01 6.969279999999999919e-01 8.784190000000000609e+00 1.203750000000000000e+02 1.753585000000000036e+03
1.390000000000000124e-01 6.969514999999999461e-01 8.766814999999999358e+00 1.204975000000000023e+02 1.753619999999999891e+03
1.400000000000000133e-01 6.969730000000000647e-01 8.743214999999999293e+00 1.206074999999999875e+02 1.753654999999999973e+03
1.410000000000000142e-01 6.969920000000000559e-01 8.713909999999998490e+00 1.207044999999999959e+02 1.753684999999999945e+03
1.420000000000000151e-01 6.970095000000000596e-01 8.679700000000000415e+00 1.207934999999999945e+02 1.753704999999999927e+03
1.430000000000000160e-01 6.970264999999999933e-01 8.641545000000000698e+00 1.208760000000000048e+02 1.753730000000000018e+03
1.440000000000000169e-01 6.970434999999999270e-01 8.600540000000000518e+00 1.209544999999999959e+02 1.753755000000000109e+03
1.450000000000000178e-01 6.970600000000000129e-01 8.557755000000000223e+00 1.210320000000000107e+02 1.753780000000000200e+03
1.459999999999999909e-01 6.970769999999999467e-01 8.514215000000000089e+00 1.211105000000000018e+02 1.753800000000000182e+03
1.469999999999999918e-01 6.970950000000000202e-01 8.470824999999999605e+00 1.211905000000000001e+02 1.753820000000000164e+03
1.479999999999999927e-01 6.971140000000000114e-01 8.428290000000000504e+00 1.212740000000000009e+02 1.753849999999999909e+03
1.489999999999999936e-01 6.971340000000000314e-01 8.387105000000000032e+00 1.213615000000000066e+02 1.753875000000000000e+03
1.499999999999999944e-01 6.971545000000000103e-01 8.347554999999999836e+00 1.214525000000000006e+02 1.753894999999999982e+03
1.509999999999999953e-01 6.971760000000000179e-01 8.309694999999999609e+00 1.215469999999999970e+02 1.753924999999999955e+03
1.519999999999999962e-01 6.971975000000000255e-01 8.273414999999999964e+00 1.216430000000000007e+02 1.753949999999999818e+03
1.529999999999999971e-01 6.972184999999999633e-01 8.238479999999999137e+00 1.217400000000000091e+02 1.753974999999999909e+03
1.539999999999999980e-01 6.972404999999999298e-01 8.204565000000000552e+00 1.218354999999999961e+02 1.754005000000000109e+03
1.549999999999999989e-01 6.972605000000000608e-01 8.171340000000000714e+00 1.219284999999999997e+02 1.754025000000000091e+03
1.559999999999999998e-01 6.972800000000000109e-01 8.138535000000000963e+00 1.220180000000000007e+02 1.754050000000000182e+03
1.570000000000000007e-01 6.972985000000000433e-01 8.105954999999999799e+00 1.221020000000000039e+02 1.754075000000000045e+03
1.580000000000000016e-01 6.973160000000000469e-01 8.073565000000000325e+00 1.221800000000000068e+02 1.754095000000000027e+03
1.590000000000000024e-01 6.973309999999999231e-01 8.041470000000000340e+00 1.222519999999999953e+02 1.754115000000000009e+03
