# t [s], A [cm^2], U [cm/s], P [cPa], c [cm/s]
1.000000000000000021e-03 7.228904999999999914e-01 6.117999999999998439e-03 1.066924999999999955e+02 1.603965000000000146e+03
2.000000000000000042e-03 7.228765000000000329e-01 -4.549438000000000266e-03 1.066649999999999920e+02 1.603964999999999918e+03
3.000000000000000062e-03 7.229209999999999248e-01 5.928254999999999636e-02 1.067339999999999947e+02 1.603980000000000018e+03
4.000000000000000083e-03 7.229835000000000012e-01 1.586559499999999900e-01 1.068599999999999994e+02 1.604014999999999873e+03
5.000000000000000104e-03 7.229790000000000383e-01 1.719614999999999894e-01 1.068635000000000019e+02 1.604014999999999873e+03
6.000000000000000125e-03 7.229099999999999415e-01 9.022900000000000365e-02 1.066949999999999932e+02 1.603974999999999909e+03
7.000000000000000146e-03 7.228494999999999227e-01 1.519199999999998330e-02 1.064724999999999966e+02 1.603924999999999955e+03
8.000000000000000167e-03 7.227829999999999533e-01 -7.711699999999999111e-02 1.061935000000000002e+02 1.603860000000000127e+03
9.000000000000001055e-03 7.226650000000000018e-01 -2.636700000000000710e-01 1.057625000000000028e+02 1.603755000000000109e+03
1.000000000000000194e-02 7.224880000000000191e-01 -5.562949999999999839e-01 1.051364999999999981e+02 1.603610000000000127e+03
1.099999999999999936e-02 7.222435000000000382e-01 -9.631399999999999961e-01 1.042750000000000057e+02 1.603404999999999973e+03
1.200000000000000025e-02 7.219090000000000229e-01 -1.507754999999999956e+00 1.031105500000000035e+02 1.603125000000000000e+03
1.300000000000000114e-02 7.214869999999999894e-01 -2.168544999999999945e+00 1.016261999999999972e+02 1.602759999999999991e+03
1.400000000000000203e-02 7.210259999999999447e-01 -2.845620000000000260e+00 9.991245000000000687e+01 1.602329999999999927e+03
1.499999999999999944e-02 7.205960000000000143e-01 -3.400780000000000136e+00 9.814029999999999632e+01 1.601869999999999891e+03
1.600000000000000033e-02 7.202444999999999542e-01 -3.724595000000000322e+00 9.647570000000000334e+01 1.601420000000000073e+03
1.700000000000000122e-02 7.199809999999999821e-01 -3.775923999999999836e+00 9.501304999999999268e+01 1.601000000000000000e+03
1.800000000000000211e-02 7.197784999999999878e-01 -3.581774000000000235e+00 9.375325000000000841e+01 1.600619999999999891e+03
1.900000000000000300e-02 7.195899999999999519e-01 -3.212258999999999975e+00 9.262479999999999336e+01 1.600259999999999991e+03
2.000000000000000042e-02 7.193739999999999579e-01 -2.748058899999999749e+00 9.152205000000000723e+01 1.599905000000000200e+03
2.100000000000000130e-02 7.191004999999999203e-01 -2.252442999999999973e+00 9.034754999999999825e+01 1.599535000000000082e+03
2.200000000000000219e-02 7.187634999999999996e-01 -1.754720000000000057e+00 8.904474999999999341e+01 1.599130000000000109e+03
2.299999999999999961e-02 7.183770000000000433e-01 -1.248494999999999910e+00 8.761144999999999072e+01 1.598694999999999936e+03
2.400000000000000050e-02 7.179699999999999971e-01 -7.037049999999998029e-01 8.609225000000000705e+01 1.598240000000000009e+03
2.500000000000000139e-02 7.175690000000000124e-01 -8.651499999999989754e-02 8.455459999999999354e+01 1.597775000000000091e+03
2.600000000000000228e-02 7.171909999999999119e-01 6.212750000000002437e-01 8.305984999999999729e+01 1.597315000000000055e+03
2.700000000000000316e-02 7.168380000000000862e-01 1.410025000000000306e+00 8.163900000000001000e+01 1.596875000000000000e+03
2.800000000000000058e-02 7.164969999999999395e-01 2.239679999999999893e+00 8.028119999999999834e+01 1.596444999999999936e+03
2.900000000000000147e-02 7.161414999999999864e-01 3.046095000000000219e+00 7.893434999999999491e+01 1.596014999999999873e+03
3.000000000000000236e-02 7.157415000000000305e-01 3.753639999999999866e+00 7.751759999999998740e+01 1.595579999999999927e+03
3.099999999999999978e-02 7.152684999999999738e-01 4.291040000000000632e+00 7.594204999999999472e+01 1.595110000000000127e+03
3.200000000000000067e-02 7.147069999999999812e-01 4.607140000000000235e+00 7.413420000000000698e+01 1.594590000000000146e+03
3.300000000000000155e-02 7.140580000000000815e-01 4.682229999999999670e+00 7.205780000000000030e+01 1.594014999999999873e+03
3.400000000000000244e-02 7.133369999999999989e-01 4.532049999999999912e+00 6.972614999999998986e+01 1.593369999999999891e+03
3.500000000000000333e-02 7.125755000000000283e-01 4.203064999999999607e+00 6.720265000000000555e+01 1.592680000000000064e+03
3.600000000000000422e-02 7.118120000000000003e-01 3.760895000000000099e+00 6.458924999999999272e+01 1.591964999999999918e+03
3.700000000000000511e-02 7.110849999999999671e-01 3.276895000000000113e+00 6.200825000000000387e+01 1.591255000000000109e+03
3.799999999999999906e-02 7.104280000000000594e-01 2.815755000000000230e+00 5.958294999999999675e+01 1.590575000000000045e+03
3.899999999999999994e-02 7.098644999999998983e-01 2.428125000000000533e+00 5.742154999999999632e+01 1.589954999999999927e+03
4.000000000000000083e-02 7.094095000000000262e-01 2.147420000000000329e+00 5.560719999999999885e+01 1.589420000000000073e+03
4.100000000000000172e-02 7.090689999999999493e-01 1.991114999999999968e+00 5.419424999999999670e+01 1.588974999999999909e+03
4.200000000000000261e-02 7.088419999999999721e-01 1.964400000000000146e+00 5.320964999999999634e+01 1.588650000000000091e+03
4.300000000000000350e-02 7.087250000000000494e-01 2.065302499999999597e+00 5.265820000000000078e+01 1.588434999999999945e+03
4.400000000000000439e-02 7.087120000000000086e-01 2.289730000000000043e+00 5.253005000000000280e+01 1.588340000000000146e+03
4.499999999999999833e-02 7.087984999999999980e-01 2.635365000000000180e+00 5.280819999999999936e+01 1.588360000000000127e+03
4.599999999999999922e-02 7.089814999999999312e-01 3.103689999999999838e+00 5.347435000000000116e+01 1.588490000000000009e+03
4.700000000000000011e-02 7.092579999999999441e-01 3.699808500000000056e+00 5.451250000000000284e+01 1.588720000000000027e+03
4.800000000000000100e-02 7.096284999999999954e-01 4.430521000000000598e+00 5.590899999999999892e+01 1.589059999999999945e+03
4.900000000000000189e-02 7.100904999999999578e-01 5.301308499999999313e+00 5.765075000000000216e+01 1.589490000000000009e+03
5.000000000000000278e-02 7.106405000000000083e-01 6.313349999999999795e+00 5.972175000000000011e+01 1.590019999999999982e+03
5.100000000000000366e-02 7.112720000000000153e-01 7.461146000000000278e+00 6.210004999999999598e+01 1.590639999999999873e+03
5.200000000000000455e-02 7.119744999999999546e-01 8.731765000000001109e+00 6.475515000000000043e+01 1.591340000000000146e+03
5.300000000000000544e-02 7.127364999999999950e-01 1.010484499999999919e+01 6.764759999999999707e+01 1.592115000000000009e+03
5.399999999999999939e-02 7.135424999999999685e-01 1.155439499999999953e+01 7.072974999999999568e+01 1.592944999999999936e+03
5.500000000000000028e-02 7.143774999999999986e-01 1.305080999999999847e+01 7.394835000000000491e+01 1.593824999999999818e+03
5.600000000000000117e-02 7.152249999999999996e-01 1.456357500000000016e+01 7.724764999999999304e+01 1.594735000000000127e+03
5.700000000000000205e-02 7.160720000000000418e-01 1.606345999999999918e+01 8.057310000000001082e+01 1.595659999999999854e+03
5.800000000000000294e-02 7.169065000000000021e-01 1.752463000000000193e+01 8.387504999999998745e+01 1.596590000000000146e+03
5.900000000000000383e-02 7.177179999999999671e-01 1.892600000000000193e+01 8.711099999999999000e+01 1.597514999999999873e+03
6.000000000000000472e-02 7.185015000000000152e-01 2.025159999999999982e+01 9.024880000000000280e+01 1.598420000000000073e+03
6.099999999999999867e-02 7.192520000000000024e-01 2.149085000000000178e+01 9.326430000000000575e+01 1.599295000000000073e+03
6.199999999999999956e-02 7.199689999999999701e-01 2.263795000000000002e+01 9.614539999999999509e+01 1.600144999999999982e+03
6.300000000000000044e-02 7.206529999999999880e-01 2.369095000000000084e+01 9.888689999999999714e+01 1.600960000000000036e+03
6.400000000000000133e-02 7.213054999999999328e-01 2.465115000000000123e+01 1.014926999999999992e+02 1.601740000000000009e+03
6.500000000000000222e-02 7.219299999999999606e-01 2.552199999999999847e+01 1.039708499999999987e+02 1.602485000000000127e+03
6.600000000000000311e-02 7.225304999999999644e-01 2.630834999999999724e+01 1.063329999999999984e+02 1.603199999999999818e+03
6.700000000000000400e-02 7.231090000000000018e-01 2.701574999999999704e+01 1.085945000000000107e+02 1.603884999999999991e+03
6.800000000000000488e-02 7.236705000000001053e-01 2.764979999999999905e+01 1.107690000000000055e+02 1.604550000000000182e+03
6.900000000000000577e-02 7.242165000000000408e-01 2.821574999999999989e+01 1.128695000000000022e+02 1.605190000000000055e+03
7.000000000000000666e-02 7.247495000000000465e-01 2.871780000000000044e+01 1.149074999999999989e+02 1.605809999999999945e+03
7.100000000000000755e-02 7.252705000000000402e-01 2.915895000000000081e+01 1.168880000000000052e+02 1.606414999999999964e+03
7.200000000000000844e-02 7.257789999999999520e-01 2.954064999999999941e+01 1.188165000000000049e+02 1.607000000000000000e+03
7.300000000000000933e-02 7.262739999999999752e-01 2.986285000000000167e+01 1.206889999999999930e+02 1.607569999999999936e+03
7.399999999999999634e-02 7.267529999999999824e-01 3.012409999999999854e+01 1.225005000000000024e+02 1.608119999999999891e+03
7.499999999999999722e-02 7.272129999999999983e-01 3.032200000000000273e+01 1.242419999999999902e+02 1.608655000000000200e+03
7.599999999999999811e-02 7.276499999999999080e-01 3.045329999999999870e+01 1.259009999999999962e+02 1.609164999999999964e+03
7.699999999999999900e-02 7.280609999999999582e-01 3.051464999999999961e+01 1.274625000000000057e+02 1.609650000000000091e+03
7.799999999999999989e-02 7.284409999999998941e-01 3.050294999999999845e+01 1.289134999999999991e+02 1.610105000000000018e+03
7.900000000000000078e-02 7.287874999999999215e-01 3.041550000000000153e+01 1.302390000000000043e+02 1.610519999999999982e+03
8.000000000000000167e-02 7.290969999999999951e-01 3.025079999999999814e+01 1.314269999999999925e+02 1.610900000000000091e+03
8.100000000000000255e-02 7.293680000000000163e-01 3.000815000000000055e+01 1.324669999999999845e+02 1.611240000000000009e+03
8.200000000000000344e-02 7.295985000000000387e-01 2.968820000000000192e+01 1.333514999999999873e+02 1.611534999999999854e+03
8.300000000000000433e-02 7.297875000000000334e-01 2.929254999999999853e+01 1.340749999999999886e+02 1.611784999999999854e+03
8.400000000000000522e-02 7.299354999999999594e-01 2.882419999999999760e+01 1.346365000000000123e+02 1.611985000000000127e+03
8.500000000000000611e-02 7.300424999999999276e-01 2.828705000000000069e+01 1.350369999999999777e+02 1.612139999999999873e+03
8.600000000000000699e-02 7.301090000000000080e-01 2.768609999999999971e+01 1.352810000000000059e+02 1.612250000000000000e+03
8.700000000000000788e-02 7.301389999999999825e-01 2.702734999999999843e+01 1.353745000000000118e+02 1.612315000000000055e+03
8.800000000000000877e-02 7.301334999999999908e-01 2.631765000000000043e+01 1.353274999999999864e+02 1.612340000000000146e+03
8.899999999999999578e-02 7.300955000000000084e-01 2.556479999999999819e+01 1.351514999999999986e+02 1.612324999999999818e+03
8.999999999999999667e-02 7.300294999999999979e-01 2.477714999999999890e+01 1.348594999999999970e+02 1.612265000000000100e+03
9.099999999999999756e-02 7.299390000000000045e-01 2.396379999999999910e+01 1.344664999999999964e+02 1.612184999999999945e+03
9.199999999999999845e-02 7.298280000000000323e-01 2.313394999999999868e+01 1.339894999999999925e+02 1.612069999999999936e+03
9.299999999999999933e-02 7.297009999999999330e-01 2.229710000000000036e+01 1.334455000000000098e+02 1.611934999999999945e+03
9.400000000000000022e-02 7.295625000000000027e-01 2.146240000000000236e+01 1.328509999999999991e+02 1.611779999999999973e+03
9.500000000000000111e-02 7.294154999999999944e-01 2.063854999999999862e+01 1.322230000000000132e+02 1.611615000000000009e+03
9.600000000000000200e-02 7.292650000000000521e-01 1.983319999999999794e+01 1.315769999999999982e+02 1.611434999999999945e+03
9.700000000000000289e-02 7.291144999999999987e-01 1.905300000000000082e+01 1.309265000000000043e+02 1.611255000000000109e+03
9.800000000000000377e-02 7.289654999999999330e-01 1.830299999999999727e+01 1.302839999999999918e+02 1.611069999999999936e+03
9.900000000000000466e-02 7.288209999999999411e-01 1.758660000000000068e+01 1.296589999999999918e+02 1.610884999999999991e+03
1.000000000000000056e-01 7.286810000000000231e-01 1.690559999999999974e+01 1.290569999999999879e+02 1.610710000000000036e+03
1.010000000000000064e-01 7.285470000000000557e-01 1.625994999999999990e+01 1.284814999999999827e+02 1.610539999999999964e+03
1.020000000000000073e-01 7.284180000000000099e-01 1.564794999999999980e+01 1.279339999999999975e+02 1.610375000000000000e+03
1.030000000000000082e-01 7.282934999999999270e-01 1.506669999999999909e+01 1.274115000000000038e+02 1.610210000000000036e+03
1.040000000000000091e-01 7.281714999999999716e-01 1.451174999999999926e+01 1.269095000000000084e+02 1.610054999999999836e+03
1.050000000000000100e-01 7.280504999999999338e-01 1.397804999999999964e+01 1.264224999999999994e+02 1.609904999999999973e+03
1.059999999999999970e-01 7.279284999999999783e-01 1.345984999999999943e+01 1.259419999999999931e+02 1.609759999999999991e+03
1.069999999999999979e-01 7.278040000000000065e-01 1.295096000000000025e+01 1.254604999999999961e+02 1.609615000000000009e+03
1.079999999999999988e-01 7.276735000000000841e-01 1.244538999999999973e+01 1.249689999999999941e+02 1.609465000000000146e+03
1.089999999999999997e-01 7.275365000000000304e-01 1.193731999999999971e+01 1.244590000000000032e+02 1.609309999999999945e+03
1.100000000000000006e-01 7.273905000000000509e-01 1.142140000000000022e+01 1.239234999999999900e+02 1.609154999999999973e+03
1.110000000000000014e-01 7.272349999999999648e-01 1.089316499999999976e+01 1.233555000000000064e+02 1.608985000000000127e+03
1.120000000000000023e-01 7.270685000000000064e-01 1.034896499999999975e+01 1.227510000000000048e+02 1.608809999999999945e+03
1.130000000000000032e-01 7.268900000000000361e-01 9.786324999999999719e+00 1.221069999999999993e+02 1.608625000000000000e+03
1.140000000000000041e-01 7.267015000000000002e-01 9.204060000000000130e+00 1.214224999999999994e+02 1.608430000000000064e+03
1.150000000000000050e-01 7.265029999999998989e-01 8.602174999999999017e+00 1.206989999999999981e+02 1.608224999999999909e+03
1.160000000000000059e-01 7.262954999999999828e-01 7.982169999999999987e+00 1.199405000000000001e+02 1.608010000000000218e+03
1.170000000000000068e-01 7.260809999999999764e-01 7.346619999999999706e+00 1.191520000000000010e+02 1.607784999999999854e+03
1.180000000000000077e-01 7.258620000000000072e-01 6.699600000000000222e+00 1.183414999999999964e+02 1.607554999999999836e+03
1.190000000000000085e-01 7.256415000000000504e-01 6.046089999999999520e+00 1.175194999999999936e+02 1.607319999999999936e+03
1.200000000000000094e-01 7.254229999999999290e-01 5.391925000000000523e+00 1.166965000000000003e+02 1.607085000000000036e+03
1.209999999999999964e-01 7.252095000000000624e-01 4.743660000000000210e+00 1.158845000000000027e+02 1.606849999999999909e+03
1.219999999999999973e-01 7.250039999999999818e-01 4.108175000000000132e+00 1.150955000000000013e+02 1.606619999999999891e+03
1.229999999999999982e-01 7.248094999999999954e-01 3.492480500000000099e+00 1.143435000000000059e+02 1.606405000000000200e+03
1.239999999999999991e-01 7.246304999999999552e-01 2.903372000000000064e+00 1.136394999999999982e+02 1.606195000000000164e+03
1.250000000000000000e-01 7.244680000000000009e-01 2.347181200000000079e+00 1.129950000000000045e+02 1.606000000000000000e+03
1.260000000000000009e-01 7.243249999999999966e-01 1.829496999999999929e+00 1.124189999999999969e+02 1.605824999999999818e+03
1.270000000000000018e-01 7.242040000000000699e-01 1.354949999999999877e+00 1.119190000000000111e+02 1.605670000000000073e+03
1.280000000000000027e-01 7.241045000000000398e-01 9.270309999999999384e-01 1.115014999999999930e+02 1.605534999999999854e+03
1.290000000000000036e-01 7.240280000000000049e-01 5.479685000000000805e-01 1.111689999999999969e+02 1.605429999999999836e+03
1.300000000000000044e-01 7.239735000000000475e-01 2.186569999999999903e-01 1.109215000000000089e+02 1.605339999999999918e+03
1.310000000000000053e-01 7.239405000000000978e-01 -6.133199999999999763e-02 1.107574999999999932e+02 1.605275000000000091e+03
1.320000000000000062e-01 7.239275000000000571e-01 -2.936929999999999819e-01 1.106719999999999970e+02 1.605235000000000127e+03
1.330000000000000071e-01 7.239314999999999500e-01 -4.812539999999999596e-01 1.106574999999999989e+02 1.605210000000000036e+03
1.340000000000000080e-01 7.239519999999999289e-01 -6.278135000000000243e-01 1.107069999999999936e+02 1.605210000000000036e+03
1.350000000000000089e-01 7.239839999999999609e-01 -7.379290000000000571e-01 1.108094999999999999e+02 1.605224999999999909e+03
1.360000000000000098e-01 7.240254999999999885e-01 -8.166924999999999324e-01 1.109540000000000077e+02 1.605255000000000109e+03
1.370000000000000107e-01 7.240735000000000365e-01 -8.695057999999999954e-01 1.111295000000000073e+02 1.605289999999999964e+03
1.380000000000000115e-01 7.241254999999999775e-01 -9.018533499999999981e-01 1.113245000000000005e+02 1.605335000000000036e+03
1.390000000000000124e-01 7.241775000000000295e-01 -9.190885500000000041e-01 1.115285000000000082e+02 1.605384999999999991e+03
1.400000000000000133e-01 7.242294999999999705e-01 -9.263008000000000353e-01 1.117305000000000064e+02 1.605434999999999945e+03
1.410000000000000142e-01 7.242764999999999898e-01 -9.281159999999999410e-01 1.119224999999999994e+02 1.605485000000000127e+03
1.420000000000000151e-01 7.243185000000000873e-01 -9.286564999999999959e-01 1.120954999999999870e+02 1.605529999999999973e+03
1.430000000000000160e-01 7.243535000000000945e-01 -9.314130000000000464e-01 1.122439999999999998e+02 1.605575000000000045e+03
1.440000000000000169e-01 7.243805000000000938e-01 -9.392449999999999966e-01 1.123635000000000019e+02 1.605610000000000127e+03
1.450000000000000178e-01 7.243990000000000151e-01 -9.543520000000000891e-01 1.124499999999999886e+02 1.605630000000000109e+03
1.459999999999999909e-01 7.244090000000000806e-01 -9.782910000000000217e-01 1.125020000000000095e+02 1.605654999999999973e+03
1.469999999999999918e-01 7.244094999999999285e-01 -1.012011999999999912e+00 1.125185000000000031e+02 1.605659999999999854e+03
1.479999999999999927e-01 7.244024999999999492e-01 -1.055877000000000177e+00 1.125005000000000024e+02 1.605660000000000082e+03
1.489999999999999936e-01 7.243865000000000443e-01 -1.109769999999999923e+00 1.124490000000000123e+02 1.605650000000000091e+03
1.499999999999999944e-01 7.243630000000000901e-01 -1.173105000000000064e+00 1.123670000000000044e+02 1.605634999999999991e+03
1.509999999999999953e-01 7.243334999999999635e-01 -1.244955000000000034e+00 1.122565000000000026e+02 1.605605000000000018e+03
1.519999999999999962e-01 7.242979999999999974e-01 -1.324105000000000087e+00 1.121204999999999927e+02 1.605570000000000164e+03
1.529999999999999971e-01 7.242574999999999985e-01 -1.409120000000000150e+00 1.119635000000000105e+02 1.605530000000000200e+03
1.539999999999999980e-01 7.242129999999999956e-01 -1.498480000000000034e+00 1.117884999999999991e+02 1.605480000000000018e+03
1.549999999999999989e-01 7.241649999999999476e-01 -1.590584999999999916e+00 1.115985000000000014e+02 1.605429999999999836e+03
1.559999999999999998e-01 7.241144999999999943e-01 -1.683910000000000018e+00 1.113969999999999914e+02 1.605380000000000109e+03
1.570000000000000007e-01 7.240619999999999834e-01 -1.777000000000000135e+00 1.111870000000000118e+02 1.605320000000000164e+03
1.580000000000000016e-01 7.240085000000000548e-01 -1.868559999999999999e+00 1.109694999999999965e+02 1.605264999999999873e+03
1.590000000000000024e-01 7.239539999999999864e-01 -1.957505000000000051e+00 1.107475000000000023e+02 1.605199999999999818e+03
