# t [s], A [cm^2], U [cm/s], P [cPa], c [cm/s]
1.000000000000000021e-03 1.920199999999999962e-01 1.636819999999999942e-01 1.027060000000000031e+02 2.019365000000000009e+03
2.000000000000000042e-03 1.919804999999999984e-01 1.572369999999999823e+00 9.985515000000000896e+01 2.019029999999999973e+03
3.000000000000000062e-03 1.918509999999999938e-01 3.390829499999999719e+00 9.579085000000000605e+01 2.018009999999999991e+03
4.000000000000000083e-03 1.916630000000000000e-01 5.456038500000000013e+00 9.103655000000000541e+01 2.016554999999999836e+03
5.000000000000000104e-03 1.914500000000000091e-01 7.704044999999999810e+00 8.642170000000000130e+01 2.014925000000000182e+03
6.000000000000000125e-03 1.912380000000000191e-01 1.001146999999999920e+01 8.243444999999999823e+01 2.013315000000000055e+03
7.000000000000000146e-03 1.910379999999999856e-01 1.218232999999999855e+01 7.907554999999999268e+01 2.011824999999999818e+03
8.000000000000000167e-03 1.908519999999999939e-01 1.406325000000000003e+01 7.611334999999999695e+01 2.010464999999999918e+03
9.000000000000001055e-03 1.906844999999999790e-01 1.563285000000000124e+01 7.347505000000001019e+01 2.009255000000000109e+03
1.000000000000000194e-02 1.905399999999999872e-01 1.692899999999999849e+01 7.123900000000000432e+01 2.008230000000000018e+03
1.099999999999999936e-02 1.904195000000000193e-01 1.797930000000000206e+01 6.944684999999999775e+01 2.007384999999999991e+03
1.200000000000000025e-02 1.903230000000000199e-01 1.880494999999999806e+01 6.807930000000000348e+01 2.006720000000000027e+03
1.300000000000000114e-02 1.902490000000000014e-01 1.942314999999999969e+01 6.708465000000001055e+01 2.006215000000000146e+03
1.400000000000000203e-02 1.901924999999999866e-01 1.983784999999999954e+01 6.636445000000000505e+01 2.005840000000000146e+03
1.499999999999999944e-02 1.901494999999999991e-01 2.005899999999999750e+01 6.580400000000000205e+01 2.005559999999999945e+03
1.600000000000000033e-02 1.901164999999999938e-01 2.014144999999999897e+01 6.538084999999999525e+01 2.005355000000000018e+03
1.700000000000000122e-02 1.900979999999999892e-01 2.019624999999999915e+01 6.524280000000000257e+01 2.005250000000000000e+03
1.800000000000000211e-02 1.901005000000000056e-01 2.035320000000000107e+01 6.565654999999999575e+01 2.005284999999999854e+03
1.900000000000000300e-02 1.901319999999999955e-01 2.070004999999999740e+01 6.685089999999999577e+01 2.005509999999999991e+03
2.000000000000000042e-02 1.901950000000000029e-01 2.123980000000000246e+01 6.886230000000000473e+01 2.005960000000000036e+03
2.100000000000000130e-02 1.902844999999999953e-01 2.188799999999999812e+01 7.147524999999998840e+01 2.006605000000000018e+03
2.200000000000000219e-02 1.903890000000000027e-01 2.250760000000000005e+01 7.428069999999999595e+01 2.007355000000000018e+03
2.299999999999999961e-02 1.904934999999999823e-01 2.296020000000000039e+01 7.681200000000001182e+01 2.008110000000000127e+03
2.400000000000000050e-02 1.905830000000000024e-01 2.315124999999999744e+01 7.869249999999999545e+01 2.008769999999999982e+03
2.500000000000000139e-02 1.906474999999999975e-01 2.305474999999999852e+01 7.973955000000000837e+01 2.009269999999999982e+03
2.600000000000000228e-02 1.906864999999999810e-01 2.271150000000000091e+01 7.999354999999999905e+01 2.009570000000000164e+03
2.700000000000000316e-02 1.907010000000000094e-01 2.220595000000000141e+01 7.967130000000000223e+01 2.009699999999999818e+03
2.800000000000000058e-02 1.906994999999999940e-01 2.163260000000000005e+01 7.907099999999999795e+01 2.009704999999999927e+03
2.900000000000000147e-02 1.906904999999999850e-01 2.106434999999999746e+01 7.846585000000000321e+01 2.009650000000000091e+03
3.000000000000000236e-02 1.906809999999999894e-01 2.053345000000000198e+01 7.802334999999999354e+01 2.009585000000000036e+03
3.099999999999999978e-02 1.906740000000000101e-01 2.002884999999999849e+01 7.777189999999998804e+01 2.009534999999999854e+03
3.200000000000000067e-02 1.906690000000000051e-01 1.950784999999999769e+01 7.761709999999999354e+01 2.009490000000000009e+03
3.300000000000000155e-02 1.906614999999999838e-01 1.891694999999999993e+01 7.739525000000000432e+01 2.009445000000000164e+03
3.400000000000000244e-02 1.906470000000000109e-01 1.821464999999999890e+01 7.694450000000000500e+01 2.009345000000000027e+03
3.500000000000000333e-02 1.906229999999999869e-01 1.739010000000000034e+01 7.617055000000000575e+01 2.009175000000000182e+03
3.600000000000000422e-02 1.905864999999999920e-01 1.647200000000000131e+01 7.508969999999999345e+01 2.008929999999999836e+03
3.700000000000000511e-02 1.905419999999999892e-01 1.552565000000000062e+01 7.383650000000000091e+01 2.008619999999999891e+03
3.799999999999999906e-02 1.904959999999999987e-01 1.463874999999999815e+01 7.263439999999999941e+01 2.008289999999999964e+03
3.899999999999999994e-02 1.904565000000000008e-01 1.390064999999999884e+01 7.173935000000000173e+01 2.007994999999999891e+03
4.000000000000000083e-02 1.904309999999999892e-01 1.338090000000000046e+01 7.137319999999999709e+01 2.007809999999999945e+03
4.100000000000000172e-02 1.904270000000000129e-01 1.311359999999999992e+01 7.166774999999999807e+01 2.007764999999999873e+03
4.200000000000000261e-02 1.904470000000000052e-01 1.309049999999999869e+01 7.263274999999998727e+01 2.007885000000000218e+03
4.300000000000000350e-02 1.904899999999999927e-01 1.326454999999999984e+01 7.415489999999999782e+01 2.008175000000000182e+03
4.400000000000000439e-02 1.905499999999999972e-01 1.356030000000000157e+01 7.602350000000001273e+01 2.008594999999999800e+03
4.499999999999999833e-02 1.906200000000000117e-01 1.388870000000000005e+01 7.797355000000000302e+01 2.009085000000000036e+03
4.599999999999999922e-02 1.906899999999999984e-01 1.416230000000000011e+01 7.973509999999998854e+01 2.009590000000000146e+03
4.700000000000000011e-02 1.907510000000000039e-01 1.430764999999999887e+01 8.107595000000000596e+01 2.010029999999999973e+03
4.800000000000000100e-02 1.907959999999999934e-01 1.427335000000000065e+01 8.183310000000000173e+01 2.010359999999999900e+03
4.900000000000000189e-02 1.908195000000000030e-01 1.403279999999999994e+01 8.192589999999999861e+01 2.010539999999999964e+03
5.000000000000000278e-02 1.908185000000000020e-01 1.358265000000000100e+01 8.135394999999999754e+01 2.010545000000000073e+03
5.100000000000000366e-02 1.907935000000000048e-01 1.293759999999999977e+01 8.018110000000000070e+01 2.010375000000000000e+03
5.200000000000000455e-02 1.907459999999999989e-01 1.212410000000000032e+01 7.851324999999999932e+01 2.010049999999999955e+03
5.300000000000000544e-02 1.906805000000000028e-01 1.117374500000000026e+01 7.647374999999999545e+01 2.009590000000000146e+03
5.399999999999999939e-02 1.905999999999999917e-01 1.011877499999999941e+01 7.418389999999999418e+01 2.009014999999999873e+03
5.500000000000000028e-02 1.905089999999999839e-01 8.989300000000000068e+00 7.174984999999999502e+01 2.008365000000000009e+03
5.600000000000000117e-02 1.904115000000000113e-01 7.812545000000000073e+00 6.925794999999999391e+01 2.007670000000000073e+03
5.700000000000000205e-02 1.903099999999999792e-01 6.613925000000000054e+00 6.677604999999999791e+01 2.006944999999999936e+03
5.800000000000000294e-02 1.902079999999999882e-01 5.418745000000000367e+00 6.436050000000000182e+01 2.006210000000000036e+03
5.900000000000000383e-02 1.901079999999999992e-01 4.254064999999999763e+00 6.206319999999999482e+01 2.005485000000000127e+03
6.000000000000000472e-02 1.900120000000000142e-01 3.149818999999999924e+00 5.993890000000000384e+01 2.004795000000000073e+03
6.099999999999999867e-02 1.899235000000000229e-01 2.139086999999999961e+00 5.804890000000000327e+01 2.004155000000000200e+03
6.199999999999999956e-02 1.898444999999999994e-01 1.257272500000000015e+00 5.646245000000000402e+01 2.003579999999999927e+03
6.300000000000000044e-02 1.897789999999999755e-01 5.403249999999999442e-01 5.525310000000000343e+01 2.003099999999999909e+03
6.400000000000000133e-02 1.897290000000000088e-01 2.243000000000006100e-02 5.449419999999999931e+01 2.002730000000000018e+03
6.500000000000000222e-02 1.896984999999999921e-01 -2.666184999999999805e-01 5.425144999999999840e+01 2.002490000000000009e+03
6.600000000000000311e-02 1.896889999999999965e-01 -3.037239999999999940e-01 5.457675000000000409e+01 2.002400000000000091e+03
6.700000000000000400e-02 1.897030000000000105e-01 -7.435599999999997767e-02 5.550215000000000032e+01 2.002485000000000127e+03
6.800000000000000488e-02 1.897415000000000074e-01 4.263630000000000475e-01 5.703625000000000256e+01 2.002740000000000009e+03
6.900000000000000577e-02 1.898050000000000015e-01 1.193360999999999894e+00 5.916339999999999577e+01 2.003174999999999955e+03
7.000000000000000666e-02 1.898929999999999785e-01 2.212055999999999578e+00 6.184414999999999907e+01 2.003779999999999973e+03
7.100000000000000755e-02 1.900034999999999918e-01 3.459419000000000022e+00 6.501850000000000307e+01 2.004554999999999836e+03
7.200000000000000844e-02 1.901335000000000108e-01 4.905489999999999462e+00 6.861029999999999518e+01 2.005474999999999909e+03
7.300000000000000933e-02 1.902814999999999923e-01 6.515175000000000161e+00 7.253244999999999720e+01 2.006519999999999982e+03
7.399999999999999634e-02 1.904425000000000145e-01 8.250185000000000102e+00 7.669245000000000800e+01 2.007674999999999955e+03
7.499999999999999722e-02 1.906144999999999923e-01 1.007112000000000052e+01 8.099760000000000559e+01 2.008904999999999973e+03
7.599999999999999811e-02 1.907929999999999904e-01 1.193916499999999914e+01 8.536070000000000846e+01 2.010184999999999945e+03
7.699999999999999900e-02 1.909744999999999915e-01 1.381806000000000090e+01 8.970380000000000109e+01 2.011500000000000000e+03
7.799999999999999989e-02 1.911565000000000070e-01 1.567544999999999966e+01 9.396200000000000330e+01 2.012815000000000055e+03
7.900000000000000078e-02 1.913360000000000061e-01 1.748414999999999964e+01 9.808575000000000443e+01 2.014119999999999891e+03
8.000000000000000167e-02 1.915109999999999868e-01 1.922269999999999968e+01 1.020425500000000056e+02 2.015394999999999982e+03
8.100000000000000255e-02 1.916805000000000037e-01 2.087565000000000026e+01 1.058155500000000018e+02 2.016634999999999991e+03
8.200000000000000344e-02 1.918429999999999858e-01 2.243325000000000102e+01 1.094025000000000034e+02 2.017835000000000036e+03
8.300000000000000433e-02 1.920000000000000040e-01 2.389110000000000156e+01 1.128139999999999930e+02 2.018985000000000127e+03
8.400000000000000522e-02 1.921495000000000009e-01 2.524864999999999782e+01 1.160685000000000002e+02 2.020095000000000027e+03
8.500000000000000611e-02 1.922940000000000205e-01 2.650864999999999938e+01 1.191899999999999977e+02 2.021159999999999854e+03
8.600000000000000699e-02 1.924334999999999796e-01 2.767580000000000240e+01 1.222040000000000077e+02 2.022190000000000055e+03
8.700000000000000788e-02 1.925685000000000036e-01 2.875540000000000163e+01 1.251329999999999956e+02 2.023190000000000055e+03
8.800000000000000877e-02 1.927004999999999968e-01 2.975280000000000058e+01 1.279950000000000045e+02 2.024170000000000073e+03
8.899999999999999578e-02 1.928290000000000004e-01 3.067265000000000086e+01 1.308034999999999854e+02 2.025130000000000109e+03
8.999999999999999667e-02 1.929560000000000164e-01 3.151814999999999856e+01 1.335634999999999764e+02 2.026059999999999945e+03
9.099999999999999756e-02 1.930795000000000150e-01 3.229129999999999967e+01 1.362735000000000127e+02 2.026984999999999900e+03
9.199999999999999845e-02 1.932014999999999982e-01 3.299224999999999852e+01 1.389259999999999877e+02 2.027890000000000100e+03
9.299999999999999933e-02 1.933199999999999918e-01 3.362000000000000455e+01 1.415084999999999980e+02 2.028780000000000200e+03
9.400000000000000022e-02 1.934359999999999968e-01 3.417204999999999870e+01 1.440029999999999859e+02 2.029640000000000100e+03
9.500000000000000111e-02 1.935475000000000112e-01 3.464509999999999934e+01 1.463899999999999864e+02 2.030469999999999800e+03
9.600000000000000200e-02 1.936539999999999928e-01 3.503490000000000038e+01 1.486479999999999961e+02 2.031264999999999873e+03
9.700000000000000289e-02 1.937550000000000106e-01 3.533689999999999998e+01 1.507570000000000050e+02 2.032025000000000091e+03
9.800000000000000377e-02 1.938495000000000079e-01 3.554625000000000057e+01 1.526945000000000050e+02 2.032735000000000127e+03
9.900000000000000466e-02 1.939369999999999983e-01 3.565824999999999534e+01 1.544404999999999859e+02 2.033389999999999873e+03
1.000000000000000056e-01 1.940155000000000074e-01 3.566854999999999620e+01 1.559775000000000205e+02 2.033980000000000018e+03
1.010000000000000064e-01 1.940854999999999941e-01 3.557354999999999734e+01 1.572909999999999968e+02 2.034510000000000218e+03
1.020000000000000073e-01 1.941459999999999853e-01 3.537064999999999770e+01 1.583679999999999950e+02 2.034965000000000146e+03
1.030000000000000082e-01 1.941964999999999941e-01 3.505854999999999677e+01 1.592009999999999934e+02 2.035349999999999909e+03
1.040000000000000091e-01 1.942365000000000064e-01 3.463765000000000072e+01 1.597870000000000061e+02 2.035659999999999854e+03
1.050000000000000100e-01 1.942659999999999942e-01 3.411020000000000607e+01 1.601265000000000214e+02 2.035889999999999873e+03
1.059999999999999970e-01 1.942844999999999989e-01 3.348035000000000139e+01 1.602264999999999873e+02 2.036039999999999964e+03
1.069999999999999979e-01 1.942939999999999945e-01 3.275445000000000562e+01 1.600985000000000014e+02 2.036119999999999891e+03
1.079999999999999988e-01 1.942929999999999935e-01 3.194080000000000297e+01 1.597595000000000027e+02 2.036119999999999891e+03
1.089999999999999997e-01 1.942829999999999835e-01 3.104950000000000188e+01 1.592300000000000182e+02 2.036059999999999945e+03
1.100000000000000006e-01 1.942649999999999932e-01 3.009224999999999994e+01 1.585355000000000132e+02 2.035934999999999945e+03
1.110000000000000014e-01 1.942400000000000237e-01 2.908190000000000097e+01 1.577030000000000030e+02 2.035759999999999991e+03
1.120000000000000023e-01 1.942089999999999927e-01 2.803174999999999883e+01 1.567615000000000123e+02 2.035534999999999854e+03
1.130000000000000032e-01 1.941734999999999989e-01 2.695560000000000045e+01 1.557400000000000091e+02 2.035269999999999982e+03
1.140000000000000041e-01 1.941335000000000144e-01 2.586684999999999945e+01 1.546659999999999968e+02 2.034980000000000018e+03
1.150000000000000050e-01 1.940910000000000135e-01 2.477824999999999989e+01 1.535660000000000025e+02 2.034674999999999955e+03
1.160000000000000059e-01 1.940469999999999973e-01 2.370145000000000124e+01 1.524629999999999939e+02 2.034349999999999909e+03
1.170000000000000068e-01 1.940024999999999944e-01 2.264665000000000106e+01 1.513765000000000214e+02 2.034019999999999982e+03
1.180000000000000077e-01 1.939580000000000193e-01 2.162245000000000061e+01 1.503209999999999980e+02 2.033690000000000055e+03
1.190000000000000085e-01 1.939144999999999897e-01 2.063540000000000063e+01 1.493079999999999927e+02 2.033365000000000009e+03
1.200000000000000094e-01 1.938725000000000032e-01 1.969030000000000058e+01 1.483444999999999823e+02 2.033050000000000182e+03
1.209999999999999964e-01 1.938320000000000043e-01 1.878969999999999985e+01 1.474314999999999998e+02 2.032744999999999891e+03
1.219999999999999973e-01 1.937924999999999787e-01 1.793440000000000012e+01 1.465664999999999907e+02 2.032454999999999927e+03
1.229999999999999982e-01 1.937554999999999972e-01 1.712290000000000134e+01 1.457439999999999998e+02 2.032170000000000073e+03
1.239999999999999991e-01 1.937190000000000023e-01 1.635229999999999961e+01 1.449529999999999745e+02 2.031900000000000091e+03
1.250000000000000000e-01 1.936840000000000228e-01 1.561805000000000021e+01 1.441825000000000045e+02 2.031634999999999991e+03
1.260000000000000009e-01 1.936499999999999888e-01 1.491434999999999889e+01 1.434159999999999968e+02 2.031375000000000000e+03
1.270000000000000018e-01 1.936150000000000093e-01 1.423454999999999870e+01 1.426379999999999768e+02 2.031119999999999891e+03
1.280000000000000027e-01 1.935795000000000154e-01 1.357140000000000057e+01 1.418319999999999936e+02 2.030849999999999909e+03
1.290000000000000036e-01 1.935434999999999794e-01 1.291750000000000043e+01 1.409809999999999945e+02 2.030575000000000045e+03
1.300000000000000044e-01 1.935049999999999826e-01 1.226559999999999917e+01 1.400699999999999932e+02 2.030289999999999964e+03
1.310000000000000053e-01 1.934635000000000105e-01 1.160919999999999952e+01 1.390854999999999961e+02 2.029985000000000127e+03
1.320000000000000062e-01 1.934190000000000076e-01 1.094250000000000078e+01 1.380175000000000125e+02 2.029660000000000082e+03
1.330000000000000071e-01 1.933715000000000017e-01 1.026118499999999933e+01 1.368575000000000159e+02 2.029309999999999945e+03
1.340000000000000080e-01 1.933205000000000062e-01 9.562179999999999680e+00 1.356034999999999968e+02 2.028925000000000182e+03
1.350000000000000089e-01 1.932650000000000201e-01 8.844339999999998980e+00 1.342560000000000002e+02 2.028519999999999982e+03
1.360000000000000098e-01 1.932065000000000032e-01 8.108100000000000307e+00 1.328190000000000168e+02 2.028085000000000036e+03
1.370000000000000107e-01 1.931439999999999824e-01 7.355859999999999843e+00 1.313025000000000091e+02 2.027625000000000000e+03
1.380000000000000115e-01 1.930779999999999996e-01 6.591760000000000730e+00 1.297205000000000155e+02 2.027144999999999982e+03
1.390000000000000124e-01 1.930095000000000005e-01 5.821514999999999773e+00 1.280889999999999986e+02 2.026639999999999873e+03
1.400000000000000133e-01 1.929394999999999860e-01 5.052249999999999908e+00 1.264285000000000139e+02 2.026125000000000000e+03
1.410000000000000142e-01 1.928679999999999839e-01 4.292130000000000223e+00 1.247615000000000123e+02 2.025599999999999909e+03
1.420000000000000151e-01 1.927960000000000229e-01 3.550035000000000274e+00 1.231094999999999970e+02 2.025069999999999936e+03
1.430000000000000160e-01 1.927254999999999940e-01 2.835116000000000192e+00 1.214975000000000023e+02 2.024549999999999955e+03
1.440000000000000169e-01 1.926559999999999939e-01 2.156413499999999761e+00 1.199465000000000003e+02 2.024039999999999964e+03
1.450000000000000178e-01 1.925890000000000102e-01 1.522408500000000053e+00 1.184774999999999920e+02 2.023545000000000073e+03
1.459999999999999909e-01 1.925250000000000017e-01 9.407034999999999147e-01 1.171080000000000041e+02 2.023075000000000045e+03
1.469999999999999918e-01 1.924655000000000116e-01 4.176499999999999657e-01 1.158530000000000086e+02 2.022634999999999991e+03
1.479999999999999927e-01 1.924109999999999987e-01 -4.184500000000002107e-02 1.147214999999999918e+02 2.022224999999999909e+03
1.489999999999999936e-01 1.923604999999999898e-01 -4.345180000000000708e-01 1.137210000000000036e+02 2.021849999999999909e+03
1.499999999999999944e-01 1.923159999999999870e-01 -7.588209999999999678e-01 1.128530000000000086e+02 2.021514999999999873e+03
1.509999999999999953e-01 1.922764999999999891e-01 -1.014894999999999881e+00 1.121150000000000091e+02 2.021220000000000027e+03
1.519999999999999962e-01 1.922429999999999972e-01 -1.204524499999999998e+00 1.115020000000000095e+02 2.020965000000000146e+03
1.529999999999999971e-01 1.922139999999999960e-01 -1.330979000000000134e+00 1.110060000000000002e+02 2.020744999999999891e+03
1.539999999999999980e-01 1.921900000000000275e-01 -1.398813000000000084e+00 1.106140000000000043e+02 2.020565000000000055e+03
1.549999999999999989e-01 1.921700000000000075e-01 -1.413650499999999921e+00 1.103130000000000024e+02 2.020409999999999854e+03
1.559999999999999998e-01 1.921545000000000059e-01 -1.381925000000000070e+00 1.100885000000000105e+02 2.020289999999999964e+03
1.570000000000000007e-01 1.921414999999999929e-01 -1.310620000000000118e+00 1.099249999999999972e+02 2.020190000000000055e+03
1.580000000000000016e-01 1.921315000000000106e-01 -1.206999999999999851e+00 1.098075000000000045e+02 2.020110000000000127e+03
1.590000000000000024e-01 1.921239999999999892e-01 -1.078396999999999828e+00 1.097210000000000036e+02 2.020050000000000182e+03
