# t [s], A [cm^2], U [cm/s], P [cPa], c [cm/s]
1.000000000000000021e-03 5.868370000000000530e-01 4.107950000000006041e-03 9.311584999999999468e+01 1.515284999999999854e+03
2.000000000000000042e-03 5.868280000000000163e-01 -2.674694999999999937e-03 9.309605000000000530e+01 1.515284999999999854e+03
3.000000000000000062e-03 5.868550000000000155e-01 4.411650000000000293e-02 9.313990000000001146e+01 1.515295000000000073e+03
4.000000000000000083e-03 5.869060000000000388e-01 1.348352000000000162e-01 9.324809999999999377e+01 1.515320000000000164e+03
5.000000000000000104e-03 5.869170000000000220e-01 1.664120000000000044e-01 9.328370000000001028e+01 1.515335000000000036e+03
6.000000000000000125e-03 5.868769999999999820e-01 1.113930000000000059e-01 9.318424999999999159e+01 1.515315000000000055e+03
7.000000000000000146e-03 5.868295000000000039e-01 3.950150000000002271e-02 9.301439999999999486e+01 1.515269999999999982e+03
8.000000000000000167e-03 5.867875000000000174e-01 -2.845749999999996893e-02 9.281109999999999616e+01 1.515220000000000027e+03
9.000000000000001055e-03 5.867189999999999905e-01 -1.511184999999999889e-01 9.251550000000000296e+01 1.515150000000000091e+03
1.000000000000000194e-02 5.866095000000000059e-01 -3.595450000000000035e-01 9.207659999999999911e+01 1.515050000000000182e+03
1.099999999999999936e-02 5.864544999999999897e-01 -6.584100000000000508e-01 9.146549999999999159e+01 1.514909999999999854e+03
1.200000000000000025e-02 5.862429999999999586e-01 -1.062794999999999934e+00 9.063949999999999818e+01 1.514710000000000036e+03
1.300000000000000114e-02 5.859644999999999992e-01 -1.579124999999999890e+00 8.956094999999999118e+01 1.514454999999999927e+03
1.400000000000000203e-02 5.856325000000000003e-01 -2.168109999999999982e+00 8.824609999999999843e+01 1.514130000000000109e+03
1.499999999999999944e-02 5.852850000000000552e-01 -2.742900000000000116e+00 8.678085000000000093e+01 1.513759999999999991e+03
1.600000000000000033e-02 5.849630000000000107e-01 -3.204344999999999999e+00 8.528844999999999743e+01 1.513365000000000009e+03
1.700000000000000122e-02 5.846930000000000183e-01 -3.480439999999999756e+00 8.387930000000000064e+01 1.512980000000000018e+03
1.800000000000000211e-02 5.844789999999999708e-01 -3.545925160000000353e+00 8.261560000000000059e+01 1.512615000000000009e+03
1.900000000000000300e-02 5.843045000000000044e-01 -3.419672000000000267e+00 8.150175000000000125e+01 1.512279999999999973e+03
2.000000000000000042e-02 5.841450000000000253e-01 -3.148768000000000011e+00 8.049594999999999345e+01 1.511960000000000036e+03
2.100000000000000130e-02 5.839735000000000342e-01 -2.788698899999999981e+00 7.953225000000000477e+01 1.511644999999999982e+03
2.200000000000000219e-02 5.837719999999999576e-01 -2.386001999999999956e+00 7.854510000000000502e+01 1.511329999999999927e+03
2.299999999999999961e-02 5.835335000000000383e-01 -1.967115000000000169e+00 7.748875000000001023e+01 1.511000000000000000e+03
2.400000000000000050e-02 5.832614999999999883e-01 -1.535385000000000222e+00 7.634864999999999213e+01 1.510640000000000100e+03
2.500000000000000139e-02 5.829699999999999882e-01 -1.076344999999999885e+00 7.514015000000000555e+01 1.510269999999999982e+03
2.600000000000000228e-02 5.826744999999999841e-01 -5.686849999999998850e-01 7.389804999999999779e+01 1.509889999999999873e+03
2.700000000000000316e-02 5.823864999999999181e-01 3.309999999999924114e-03 7.266059999999998809e+01 1.509505000000000109e+03
2.800000000000000058e-02 5.821100000000000163e-01 6.402749999999999275e-01 7.145410000000001105e+01 1.509125000000000000e+03
2.900000000000000147e-02 5.818419999999999703e-01 1.323529999999999873e+00 7.028265000000000384e+01 1.508750000000000000e+03
3.000000000000000236e-02 5.815700000000000314e-01 2.016504999999999992e+00 6.912524999999999409e+01 1.508384999999999991e+03
3.099999999999999978e-02 5.812779999999999614e-01 2.670760000000000023e+00 6.793930000000000291e+01 1.508009999999999991e+03
3.200000000000000067e-02 5.809480000000000199e-01 3.234850000000000225e+00 6.667019999999999413e+01 1.507615000000000009e+03
3.300000000000000155e-02 5.805675000000000141e-01 3.664149999999999352e+00 6.526404999999999745e+01 1.507199999999999818e+03
3.400000000000000244e-02 5.801294999999999646e-01 3.929554999999999687e+00 6.368115000000000236e+01 1.506740000000000009e+03
3.500000000000000333e-02 5.796360000000000401e-01 4.023035000000000139e+00 6.190654999999999575e+01 1.506235000000000127e+03
3.600000000000000422e-02 5.790994999999999893e-01 3.958895000000000053e+00 5.995609999999999928e+01 1.505684999999999945e+03
3.700000000000000511e-02 5.785384999999999556e-01 3.770100000000000229e+00 5.787565000000000026e+01 1.505105000000000018e+03
3.799999999999999906e-02 5.779750000000000165e-01 3.501539999999999875e+00 5.573409999999999798e+01 1.504514999999999873e+03
3.899999999999999994e-02 5.774340000000000028e-01 3.202205000000000190e+00 5.361364999999999981e+01 1.503914999999999964e+03
4.000000000000000083e-02 5.769355000000000455e-01 2.917609999999999815e+00 5.159850000000000136e+01 1.503339999999999918e+03
4.100000000000000172e-02 5.764949999999999797e-01 2.685130000000000017e+00 4.976545000000000130e+01 1.502804999999999836e+03
4.200000000000000261e-02 5.761245000000000394e-01 2.531750000000000167e+00 4.817754999999999654e+01 1.502329999999999927e+03
4.300000000000000350e-02 5.758299999999999530e-01 2.474050000000000082e+00 4.688070000000000448e+01 1.501929999999999836e+03
4.400000000000000439e-02 5.756145000000000289e-01 2.520170000000000243e+00 4.590359999999999729e+01 1.501605000000000018e+03
4.499999999999999833e-02 5.754764999999999464e-01 2.672631499999999605e+00 4.526024999999999920e+01 1.501375000000000000e+03
4.599999999999999922e-02 5.754155000000000797e-01 2.931410000000000071e+00 4.495320000000000249e+01 1.501234999999999900e+03
4.700000000000000011e-02 5.754295000000000382e-01 3.296454999999999913e+00 4.497834999999999894e+01 1.501184999999999945e+03
4.800000000000000100e-02 5.755170000000000563e-01 3.769325000000000259e+00 4.532820000000000249e+01 1.501224999999999909e+03
4.900000000000000189e-02 5.756769999999999943e-01 4.353634999999999700e+00 4.599465000000000003e+01 1.501360000000000127e+03
5.000000000000000278e-02 5.759100000000000330e-01 5.054370000000000474e+00 4.697005000000000052e+01 1.501579999999999927e+03
5.100000000000000366e-02 5.762135000000000451e-01 5.876434999999999853e+00 4.824670000000000414e+01 1.501889999999999873e+03
5.200000000000000455e-02 5.765884999999999483e-01 6.822829999999999728e+00 4.981595000000000084e+01 1.502284999999999854e+03
5.300000000000000544e-02 5.770299999999999319e-01 7.893024999999999736e+00 5.166584999999999894e+01 1.502755000000000109e+03
5.399999999999999939e-02 5.775345000000000617e-01 9.081834999999999880e+00 5.377989999999999782e+01 1.503309999999999945e+03
5.500000000000000028e-02 5.780960000000000543e-01 1.037903500000000001e+01 5.613584999999999781e+01 1.503930000000000064e+03
5.600000000000000117e-02 5.787060000000000537e-01 1.176957999999999949e+01 5.870570000000000022e+01 1.504614999999999782e+03
5.700000000000000205e-02 5.793555000000000232e-01 1.323463000000000100e+01 6.145615000000000094e+01 1.505365000000000009e+03
5.800000000000000294e-02 5.800349999999999673e-01 1.475291999999999959e+01 6.434999999999999432e+01 1.506150000000000091e+03
5.900000000000000383e-02 5.807345000000000423e-01 1.630220500000000072e+01 6.734844999999999970e+01 1.506980000000000018e+03
6.000000000000000472e-02 5.814445000000000308e-01 1.786086999999999847e+01 7.041280000000000427e+01 1.507835000000000036e+03
6.099999999999999867e-02 5.821579999999999533e-01 1.940899999999999892e+01 7.350685000000000002e+01 1.508710000000000036e+03
6.199999999999999956e-02 5.828674999999999828e-01 2.092950000000000088e+01 7.659850000000000136e+01 1.509590000000000146e+03
6.300000000000000044e-02 5.835679999999999756e-01 2.240844999999999843e+01 7.966114999999999213e+01 1.510474999999999909e+03
6.400000000000000133e-02 5.842555000000000387e-01 2.383539999999999992e+01 8.267425000000000068e+01 1.511355000000000018e+03
6.500000000000000222e-02 5.849290000000000322e-01 2.520315000000000083e+01 8.562350000000000705e+01 1.512214999999999918e+03
6.600000000000000311e-02 5.855870000000000797e-01 2.650730000000000075e+01 8.850090000000000146e+01 1.513065000000000055e+03
6.700000000000000400e-02 5.862294999999999590e-01 2.774584999999999724e+01 9.130244999999999322e+01 1.513900000000000091e+03
6.800000000000000488e-02 5.868579999999999908e-01 2.891869999999999763e+01 9.403034999999999854e+01 1.514714999999999918e+03
6.900000000000000577e-02 5.874730000000000230e-01 3.002694999999999936e+01 9.668844999999998890e+01 1.515514999999999873e+03
7.000000000000000666e-02 5.880760000000000431e-01 3.107239999999999824e+01 9.928305000000000291e+01 1.516295000000000073e+03
7.100000000000000755e-02 5.886700000000000266e-01 3.205740000000000123e+01 1.018217999999999961e+02 1.517059999999999945e+03
7.200000000000000844e-02 5.892549999999999732e-01 3.298404999999999632e+01 1.043115999999999985e+02 1.517819999999999936e+03
7.300000000000000933e-02 5.898330000000000517e-01 3.385410000000000252e+01 1.067582000000000022e+02 1.518559999999999945e+03
7.399999999999999634e-02 5.904044999999999987e-01 3.466859999999999786e+01 1.091670000000000016e+02 1.519295000000000073e+03
7.499999999999999722e-02 5.909685000000000077e-01 3.542784999999999940e+01 1.115384999999999991e+02 1.520014999999999873e+03
7.599999999999999811e-02 5.915245000000000086e-01 3.613114999999999810e+01 1.138725000000000023e+02 1.520724999999999909e+03
7.699999999999999900e-02 5.920714999999999728e-01 3.677684999999999604e+01 1.161659999999999968e+02 1.521425000000000182e+03
7.799999999999999989e-02 5.926069999999999949e-01 3.736260000000000048e+01 1.184120000000000061e+02 1.522115000000000009e+03
7.900000000000000078e-02 5.931294999999999762e-01 3.788535000000000252e+01 1.206024999999999920e+02 1.522785000000000082e+03
8.000000000000000167e-02 5.936365000000000114e-01 3.834170000000000300e+01 1.227270000000000039e+02 1.523440000000000055e+03
8.100000000000000255e-02 5.941235000000000266e-01 3.872825000000000273e+01 1.247735000000000127e+02 1.524075000000000045e+03
8.200000000000000344e-02 5.945890000000000342e-01 3.904184999999999661e+01 1.267319999999999993e+02 1.524684999999999945e+03
8.300000000000000433e-02 5.950305000000000177e-01 3.927960000000000207e+01 1.285894999999999868e+02 1.525264999999999873e+03
8.400000000000000522e-02 5.954450000000000021e-01 3.943949999999999534e+01 1.303354999999999961e+02 1.525815000000000055e+03
8.500000000000000611e-02 5.958309999999999995e-01 3.952015000000000100e+01 1.319604999999999961e+02 1.526329999999999927e+03
8.600000000000000699e-02 5.961864999999999526e-01 3.952105000000000246e+01 1.334579999999999984e+02 1.526809999999999945e+03
8.700000000000000788e-02 5.965110000000000134e-01 3.944249999999999545e+01 1.348204999999999814e+02 1.527255000000000109e+03
8.800000000000000877e-02 5.968035000000000423e-01 3.928570000000000562e+01 1.360450000000000159e+02 1.527654999999999973e+03
8.899999999999999578e-02 5.970630000000000104e-01 3.905270000000000152e+01 1.371290000000000191e+02 1.528019999999999982e+03
8.999999999999999667e-02 5.972910000000000164e-01 3.874634999999999962e+01 1.380740000000000123e+02 1.528340000000000146e+03
9.099999999999999756e-02 5.974874999999999492e-01 3.837040000000000362e+01 1.388805000000000121e+02 1.528625000000000000e+03
9.199999999999999845e-02 5.976529999999999898e-01 3.792920000000000158e+01 1.395534999999999854e+02 1.528864999999999782e+03
9.299999999999999933e-02 5.977885000000000559e-01 3.742815000000000225e+01 1.400985000000000014e+02 1.529070000000000164e+03
9.400000000000000022e-02 5.978980000000000405e-01 3.687295000000000300e+01 1.405229999999999961e+02 1.529235000000000127e+03
9.500000000000000111e-02 5.979814999999999436e-01 3.627040000000000219e+01 1.408354999999999961e+02 1.529365000000000009e+03
9.600000000000000200e-02 5.980419999999999625e-01 3.562765000000000271e+01 1.410469999999999970e+02 1.529460000000000036e+03
9.700000000000000289e-02 5.980829999999999202e-01 3.495224999999999937e+01 1.411680000000000064e+02 1.529529999999999973e+03
9.800000000000000377e-02 5.981060000000000265e-01 3.425215000000000032e+01 1.412115000000000009e+02 1.529574999999999818e+03
9.900000000000000466e-02 5.981145000000001044e-01 3.353520000000000323e+01 1.411885000000000048e+02 1.529599999999999909e+03
1.000000000000000056e-01 5.981119999999999770e-01 3.280904999999999916e+01 1.411129999999999995e+02 1.529599999999999909e+03
1.010000000000000064e-01 5.980999999999999650e-01 3.208109999999999928e+01 1.409960000000000093e+02 1.529585000000000036e+03
1.020000000000000073e-01 5.980814999999999326e-01 3.135775000000000290e+01 1.408495000000000061e+02 1.529559999999999945e+03
1.030000000000000082e-01 5.980590000000000073e-01 3.064480000000000004e+01 1.406834999999999809e+02 1.529529999999999973e+03
1.040000000000000091e-01 5.980334999999999956e-01 2.994679999999999964e+01 1.405060000000000002e+02 1.529485000000000127e+03
1.050000000000000100e-01 5.980069999999999553e-01 2.926699999999999946e+01 1.403240000000000123e+02 1.529440000000000055e+03
1.059999999999999970e-01 5.979799999999999560e-01 2.860754999999999981e+01 1.401419999999999959e+02 1.529389999999999873e+03
1.069999999999999979e-01 5.979514999999999691e-01 2.796925000000000239e+01 1.399630000000000223e+02 1.529340000000000146e+03
1.079999999999999988e-01 5.979235000000000522e-01 2.735164999999999935e+01 1.397860000000000014e+02 1.529289999999999964e+03
1.089999999999999997e-01 5.978939999999999255e-01 2.675335000000000107e+01 1.396115000000000066e+02 1.529234999999999900e+03
1.100000000000000006e-01 5.978624999999999634e-01 2.617195000000000249e+01 1.394354999999999905e+02 1.529184999999999945e+03
1.110000000000000014e-01 5.978284999999999849e-01 2.560439999999999827e+01 1.392539999999999907e+02 1.529130000000000109e+03
1.120000000000000023e-01 5.977894999999999737e-01 2.504710000000000036e+01 1.390614999999999952e+02 1.529075000000000045e+03
1.130000000000000032e-01 5.977449999999999708e-01 2.449620000000000175e+01 1.388530000000000086e+02 1.529009999999999991e+03
1.140000000000000041e-01 5.976934999999999887e-01 2.394770000000000110e+01 1.386214999999999975e+02 1.528940000000000055e+03
1.150000000000000050e-01 5.976335000000000397e-01 2.339789999999999992e+01 1.383619999999999948e+02 1.528865000000000009e+03
1.160000000000000059e-01 5.975645000000000540e-01 2.284319999999999951e+01 1.380695000000000050e+02 1.528780000000000200e+03
1.170000000000000068e-01 5.974850000000000438e-01 2.228059999999999974e+01 1.377390000000000043e+02 1.528684999999999945e+03
1.180000000000000077e-01 5.973950000000000093e-01 2.170750000000000313e+01 1.373675000000000068e+02 1.528575000000000045e+03
1.190000000000000085e-01 5.972939999999999916e-01 2.112209999999999965e+01 1.369530000000000030e+02 1.528460000000000036e+03
1.200000000000000094e-01 5.971819999999999906e-01 2.052345000000000041e+01 1.364944999999999879e+02 1.528329999999999927e+03
1.209999999999999964e-01 5.970600000000000351e-01 1.991114999999999924e+01 1.359929999999999950e+02 1.528190000000000055e+03
1.219999999999999973e-01 5.969280000000000141e-01 1.928589999999999804e+01 1.354505000000000052e+02 1.528034999999999854e+03
1.229999999999999982e-01 5.967879999999999852e-01 1.864920000000000044e+01 1.348714999999999975e+02 1.527869999999999891e+03
1.239999999999999991e-01 5.966399999999999482e-01 1.800315000000000154e+01 1.342595000000000027e+02 1.527694999999999936e+03
1.250000000000000000e-01 5.964869999999999894e-01 1.735079999999999956e+01 1.336215000000000259e+02 1.527514999999999873e+03
1.260000000000000009e-01 5.963304999999999856e-01 1.669565000000000055e+01 1.329654999999999916e+02 1.527329999999999927e+03
1.270000000000000018e-01 5.961719999999999242e-01 1.604180000000000206e+01 1.322975000000000136e+02 1.527134999999999991e+03
1.280000000000000027e-01 5.960140000000000438e-01 1.539379999999999882e+01 1.316285000000000025e+02 1.526945000000000164e+03
1.290000000000000036e-01 5.958589999999999165e-01 1.475629999999999953e+01 1.309660000000000082e+02 1.526750000000000000e+03
1.300000000000000044e-01 5.957080000000000153e-01 1.413392500000000140e+01 1.303179999999999836e+02 1.526555000000000064e+03
1.310000000000000053e-01 5.955645000000000522e-01 1.353143999999999991e+01 1.296949999999999932e+02 1.526369999999999891e+03
1.320000000000000062e-01 5.954289999999999861e-01 1.295319999999999894e+01 1.291034999999999968e+02 1.526194999999999936e+03
1.330000000000000071e-01 5.953029999999999156e-01 1.240313000000000088e+01 1.285504999999999995e+02 1.526025000000000091e+03
1.340000000000000080e-01 5.951889999999999681e-01 1.188469500000000068e+01 1.280434999999999945e+02 1.525865000000000009e+03
1.350000000000000089e-01 5.950864999999999627e-01 1.140069500000000069e+01 1.275854999999999961e+02 1.525724999999999909e+03
1.360000000000000098e-01 5.949969999999999981e-01 1.095331000000000010e+01 1.271810000000000116e+02 1.525594999999999800e+03
1.370000000000000107e-01 5.949210000000000331e-01 1.054376000000000069e+01 1.268315000000000055e+02 1.525480000000000018e+03
1.380000000000000115e-01 5.948584999999999567e-01 1.017267000000000010e+01 1.265384999999999991e+02 1.525380000000000109e+03
1.390000000000000124e-01 5.948080000000000034e-01 9.839874999999999261e+00 1.262999999999999972e+02 1.525295000000000073e+03
1.400000000000000133e-01 5.947694999999999510e-01 9.544360000000001065e+00 1.261140000000000043e+02 1.525230000000000018e+03
1.410000000000000142e-01 5.947419999999999929e-01 9.284660000000000579e+00 1.259774999999999920e+02 1.525174999999999955e+03
1.420000000000000151e-01 5.947244999999999893e-01 9.058664999999999523e+00 1.258865000000000123e+02 1.525134999999999991e+03
1.430000000000000160e-01 5.947165000000000923e-01 8.863794999999999646e+00 1.258354999999999961e+02 1.525099999999999909e+03
1.440000000000000169e-01 5.947149999999999936e-01 8.697169999999999845e+00 1.258185000000000002e+02 1.525085000000000036e+03
1.450000000000000178e-01 5.947200000000000264e-01 8.555704999999999671e+00 1.258310000000000031e+02 1.525079999999999927e+03
1.459999999999999909e-01 5.947289999999999521e-01 8.436270000000000380e+00 1.258654999999999973e+02 1.525074999999999818e+03
1.469999999999999918e-01 5.947415000000000340e-01 8.335684999999999789e+00 1.259170000000000016e+02 1.525085000000000036e+03
1.479999999999999927e-01 5.947565000000000213e-01 8.250880000000000436e+00 1.259799999999999898e+02 1.525090000000000146e+03
1.489999999999999936e-01 5.947719999999999674e-01 8.178960000000000008e+00 1.260500000000000114e+02 1.525105000000000018e+03
1.499999999999999944e-01 5.947879999999999834e-01 8.117259999999999920e+00 1.261219999999999999e+02 1.525119999999999891e+03
1.509999999999999953e-01 5.948029999999999706e-01 8.063349999999999795e+00 1.261919999999999931e+02 1.525134999999999991e+03
1.519999999999999962e-01 5.948169999999999291e-01 8.015095000000000525e+00 1.262579999999999956e+02 1.525150000000000091e+03
1.529999999999999971e-01 5.948290000000000521e-01 7.970640000000000391e+00 1.263170000000000073e+02 1.525164999999999964e+03
1.539999999999999980e-01 5.948390000000000066e-01 7.928415000000000212e+00 1.263675000000000068e+02 1.525174999999999955e+03
1.549999999999999989e-01 5.948465000000000558e-01 7.887134999999999785e+00 1.264080000000000013e+02 1.525184999999999945e+03
1.559999999999999998e-01 5.948519999999999364e-01 7.845775000000000610e+00 1.264380000000000024e+02 1.525194999999999936e+03
1.570000000000000007e-01 5.948554999999999815e-01 7.803554999999999353e+00 1.264574999999999960e+02 1.525194999999999936e+03
1.580000000000000016e-01 5.948560000000000514e-01 7.759924999999999962e+00 1.264664999999999964e+02 1.525204999999999927e+03
1.590000000000000024e-01 5.948544999999999527e-01 7.714570000000000149e+00 1.264660000000000082e+02 1.525204999999999927e+03
