# t [s], A [cm^2], U [cm/s], P [cPa], c [cm/s]
1.000000000000000021e-03 7.225340000000000096e-01 4.941899999999999071e-03 1.008460000000000036e+02 1.657694999999999936e+03
2.000000000000000042e-03 7.225234999999999852e-01 5.825100000000000590e-04 1.008199999999999932e+02 1.657690000000000055e+03
3.000000000000000062e-03 7.225894999999999957e-01 1.062608500000000039e-01 1.009375000000000000e+02 1.657719999999999800e+03
4.000000000000000083e-03 7.226394999999999902e-01 1.966058500000000264e-01 1.010529500000000098e+02 1.657744999999999891e+03
5.000000000000000104e-03 7.226015000000000077e-01 1.575358500000000050e-01 1.009715000000000060e+02 1.657730000000000018e+03
6.000000000000000125e-03 7.225280000000000591e-01 5.705299999999996485e-02 1.007325000000000017e+02 1.657679999999999836e+03
7.000000000000000146e-03 7.224604999999999499e-01 -4.405350000000002320e-02 1.004244999999999948e+02 1.657610000000000127e+03
8.000000000000000167e-03 7.223465000000000025e-01 -2.318900000000000405e-01 9.995369999999999777e+01 1.657505000000000109e+03
9.000000000000001055e-03 7.221589999999999954e-01 -5.536550000000000082e-01 9.922894999999999754e+01 1.657345000000000027e+03
1.000000000000000194e-02 7.218910000000000604e-01 -1.015664999999999818e+00 9.819964999999999122e+01 1.657115000000000009e+03
1.099999999999999936e-02 7.215199999999999392e-01 -1.641239999999999810e+00 9.679095000000000937e+01 1.656795000000000073e+03
1.200000000000000025e-02 7.210434999999999484e-01 -2.415270000000000028e+00 9.497114999999999441e+01 1.656375000000000000e+03
1.300000000000000114e-02 7.205114999999999714e-01 -3.228940000000000143e+00 9.284329999999999927e+01 1.655875000000000000e+03
1.400000000000000203e-02 7.200059999999999238e-01 -3.915739499999999929e+00 9.062825000000000841e+01 1.655325000000000045e+03
1.499999999999999944e-02 7.195890000000000342e-01 -4.335863500000000315e+00 8.855770000000001119e+01 1.654795000000000073e+03
1.600000000000000033e-02 7.192799999999999194e-01 -4.432655999999999707e+00 8.677689999999999770e+01 1.654305000000000064e+03
1.700000000000000122e-02 7.190509999999999957e-01 -4.236894999999999634e+00 8.530649999999999977e+01 1.653875000000000000e+03
1.800000000000000211e-02 7.188529999999999642e-01 -3.836050000000000182e+00 8.406190000000000850e+01 1.653490000000000009e+03
1.900000000000000300e-02 7.186354999999999826e-01 -3.331859999999999822e+00 8.290569999999999595e+01 1.653119999999999891e+03
2.000000000000000042e-02 7.183645000000000724e-01 -2.803017500000000162e+00 8.170650000000000546e+01 1.652744999999999891e+03
2.100000000000000130e-02 7.180339999999999501e-01 -2.283640500000000184e+00 8.038560000000001082e+01 1.652349999999999909e+03
2.200000000000000219e-02 7.176595000000000057e-01 -1.763439999999999674e+00 7.893439999999999657e+01 1.651920000000000073e+03
2.299999999999999961e-02 7.172690000000000454e-01 -1.207154999999999978e+00 7.740074999999998795e+01 1.651480000000000018e+03
2.400000000000000050e-02 7.168875000000000108e-01 -5.823750000000000870e-01 7.585275000000000034e+01 1.651029999999999973e+03
2.500000000000000139e-02 7.165255000000000374e-01 1.171999999999999709e-01 7.434010000000000673e+01 1.650585000000000036e+03
2.600000000000000228e-02 7.161735000000000184e-01 8.610749999999998128e-01 7.286724999999999852e+01 1.650144999999999982e+03
2.700000000000000316e-02 7.158065000000000122e-01 1.585220000000000073e+00 7.138564999999999827e+01 1.649704999999999927e+03
2.800000000000000058e-02 7.153914999999999580e-01 2.206179999999999808e+00 6.980434999999999945e+01 1.649244999999999891e+03
2.900000000000000147e-02 7.148974999999999635e-01 2.641034999999999577e+00 6.801509999999998968e+01 1.648740000000000009e+03
3.000000000000000236e-02 7.143025000000000624e-01 2.828034999999999854e+00 6.592385000000000161e+01 1.648170000000000073e+03
3.099999999999999978e-02 7.136039999999999051e-01 2.742385000000000073e+00 6.348069999999999879e+01 1.647519999999999982e+03
3.200000000000000067e-02 7.128189999999999804e-01 2.402539999999999676e+00 6.069935000000000258e+01 1.646799999999999955e+03
3.300000000000000155e-02 7.119834999999999914e-01 1.865744999999999987e+00 5.766040000000000276e+01 1.646019999999999982e+03
3.400000000000000244e-02 7.111404999999999532e-01 1.214599999999999902e+00 5.449835000000000207e+01 1.645200000000000045e+03
3.500000000000000333e-02 7.103369999999999962e-01 5.400600000000004286e-01 5.137864999999999327e+01 1.644380000000000109e+03
3.600000000000000422e-02 7.096149999999999958e-01 -7.392999999999982919e-02 4.847079999999999700e+01 1.643605000000000018e+03
3.700000000000000511e-02 7.090060000000000251e-01 -5.605199999999999072e-01 4.592650000000000432e+01 1.642900000000000091e+03
3.799999999999999906e-02 7.085304999999999520e-01 -8.742600000000000371e-01 4.386414999999999509e+01 1.642305000000000064e+03
3.899999999999999994e-02 7.081994999999999818e-01 -9.900549999999999073e-01 4.236285000000000167e+01 1.641845000000000027e+03
4.000000000000000083e-02 7.080144999999999911e-01 -8.985999999999999543e-01 4.146340000000000003e+01 1.641529999999999973e+03
4.100000000000000172e-02 7.079735000000000333e-01 -6.003085000000000226e-01 4.117499999999999716e+01 1.641365000000000009e+03
4.200000000000000261e-02 7.080699999999999772e-01 -9.954099999999999060e-02 4.148470000000000368e+01 1.641360000000000127e+03
4.300000000000000350e-02 7.082979999999999832e-01 5.994399999999998618e-01 4.236730000000000018e+01 1.641509999999999991e+03
4.400000000000000439e-02 7.086520000000000596e-01 1.493985000000000118e+00 4.379160000000000252e+01 1.641799999999999955e+03
4.499999999999999833e-02 7.091259999999999231e-01 2.582169999999999632e+00 4.572475000000000023e+01 1.642230000000000018e+03
4.599999999999999922e-02 7.097134999999999971e-01 3.860275000000000567e+00 4.813195000000000334e+01 1.642789999999999964e+03
4.700000000000000011e-02 7.104049999999999532e-01 5.319725000000000037e+00 5.097444999999999737e+01 1.643469999999999800e+03
4.800000000000000100e-02 7.111905000000000587e-01 6.944835000000000313e+00 5.420674999999999955e+01 1.644264999999999873e+03
4.900000000000000189e-02 7.120545000000000346e-01 8.711793500000000634e+00 5.777485000000000070e+01 1.645154999999999973e+03
5.000000000000000278e-02 7.129810000000000869e-01 1.058930500000000130e+01 6.161574999999999847e+01 1.646125000000000000e+03
5.100000000000000366e-02 7.139510000000000023e-01 1.254043499999999867e+01 6.565899999999999181e+01 1.647159999999999854e+03
5.200000000000000455e-02 7.149455000000000116e-01 1.452566500000000005e+01 6.983044999999999902e+01 1.648244999999999891e+03
5.300000000000000544e-02 7.159459999999999713e-01 1.650587000000000160e+01 7.405655000000000143e+01 1.649360000000000127e+03
5.399999999999999939e-02 7.169375000000000053e-01 1.844523000000000224e+01 7.826885000000000048e+01 1.650480000000000018e+03
5.500000000000000028e-02 7.179065000000000030e-01 2.031344999999999956e+01 8.240829999999999700e+01 1.651599999999999909e+03
5.600000000000000117e-02 7.188440000000000385e-01 2.208715000000000117e+01 8.642815000000000225e+01 1.652700000000000045e+03
5.700000000000000205e-02 7.197454999999999270e-01 2.375000000000000000e+01 9.029600000000000648e+01 1.653765000000000100e+03
5.800000000000000294e-02 7.206075000000000674e-01 2.529294999999999760e+01 9.399370000000000402e+01 1.654804999999999836e+03
5.900000000000000383e-02 7.214315000000000033e-01 2.671300000000000097e+01 9.751634999999998854e+01 1.655800000000000182e+03
6.000000000000000472e-02 7.222199999999999731e-01 2.801225000000000165e+01 1.008699500000000029e+02 1.656755000000000109e+03
6.099999999999999867e-02 7.229780000000000095e-01 2.919660000000000011e+01 1.040706000000000131e+02 1.657674999999999955e+03
6.199999999999999956e-02 7.237109999999999932e-01 3.027459999999999951e+01 1.071392500000000041e+02 1.658559999999999945e+03
6.300000000000000044e-02 7.244245000000000267e-01 3.125625000000000142e+01 1.101009999999999991e+02 1.659420000000000073e+03
6.400000000000000133e-02 7.251244999999999497e-01 3.215194999999999936e+01 1.129809999999999945e+02 1.660255000000000109e+03
6.500000000000000222e-02 7.258149999999999880e-01 3.297149999999999892e+01 1.158015000000000043e+02 1.661069999999999936e+03
6.600000000000000311e-02 7.265004999999999935e-01 3.372330000000000183e+01 1.185825000000000102e+02 1.661875000000000000e+03
6.700000000000000400e-02 7.271825000000000649e-01 3.441355000000000075e+01 1.213370000000000033e+02 1.662670000000000073e+03
6.800000000000000488e-02 7.278620000000000090e-01 3.504595000000000482e+01 1.240699999999999932e+02 1.663454999999999927e+03
6.900000000000000577e-02 7.285364999999999203e-01 3.562134999999999962e+01 1.267795000000000130e+02 1.664235000000000127e+03
7.000000000000000666e-02 7.292019999999999058e-01 3.613779999999999859e+01 1.294555000000000007e+02 1.665005000000000109e+03
7.100000000000000755e-02 7.298549999999999205e-01 3.659125000000000227e+01 1.320824999999999818e+02 1.665759999999999991e+03
7.200000000000000844e-02 7.304889999999999439e-01 3.697570000000000334e+01 1.346385000000000218e+02 1.666500000000000000e+03
7.300000000000000933e-02 7.310974999999999557e-01 3.728409999999999513e+01 1.370974999999999966e+02 1.667215000000000146e+03
7.399999999999999634e-02 7.316750000000000753e-01 3.750910000000000366e+01 1.394325000000000045e+02 1.667900000000000091e+03
7.499999999999999722e-02 7.322130000000000027e-01 3.764395000000000380e+01 1.416170000000000186e+02 1.668545000000000073e+03
7.599999999999999811e-02 7.327075000000000671e-01 3.768260000000000076e+01 1.436260000000000048e+02 1.669144999999999982e+03
7.699999999999999900e-02 7.331529999999999436e-01 3.762080000000000268e+01 1.454379999999999882e+02 1.669690000000000055e+03
7.799999999999999989e-02 7.335464999999999902e-01 3.745600000000000307e+01 1.470360000000000014e+02 1.670180000000000064e+03
7.900000000000000078e-02 7.338854999999999684e-01 3.718779999999999575e+01 1.484099999999999966e+02 1.670615000000000009e+03
8.000000000000000167e-02 7.341699999999999893e-01 3.681784999999999997e+01 1.495525000000000091e+02 1.670985000000000127e+03
8.100000000000000255e-02 7.343990000000000240e-01 3.634999999999999432e+01 1.504650000000000034e+02 1.671289999999999964e+03
8.200000000000000344e-02 7.345749999999999780e-01 3.579035000000000366e+01 1.511519999999999868e+02 1.671539999999999964e+03
8.300000000000000433e-02 7.347000000000000197e-01 3.514670000000000272e+01 1.516254999999999882e+02 1.671724999999999909e+03
8.400000000000000522e-02 7.347795000000000298e-01 3.442889999999999873e+01 1.519004999999999939e+02 1.671849999999999909e+03
8.500000000000000611e-02 7.348170000000000535e-01 3.364815000000000111e+01 1.519964999999999975e+02 1.671924999999999955e+03
8.600000000000000699e-02 7.348190000000000000e-01 3.281665000000000276e+01 1.519360000000000070e+02 1.671954999999999927e+03
8.700000000000000788e-02 7.347900000000000542e-01 3.194764999999999944e+01 1.517450000000000045e+02 1.671949999999999818e+03
8.800000000000000877e-02 7.347375000000000433e-01 3.105464999999999876e+01 1.514495000000000005e+02 1.671900000000000091e+03
8.899999999999999578e-02 7.346675000000000288e-01 3.015084999999999837e+01 1.510745000000000005e+02 1.671824999999999818e+03
8.999999999999999667e-02 7.345855000000000024e-01 2.924895000000000067e+01 1.506474999999999795e+02 1.671735000000000127e+03
9.099999999999999756e-02 7.344969999999999555e-01 2.836030000000000229e+01 1.501924999999999955e+02 1.671630000000000109e+03
9.199999999999999845e-02 7.344074999999999909e-01 2.749470000000000169e+01 1.497295000000000016e+02 1.671515000000000100e+03
9.299999999999999933e-02 7.343195000000000139e-01 2.666009999999999991e+01 1.492774999999999750e+02 1.671400000000000091e+03
9.400000000000000022e-02 7.342370000000000285e-01 2.586189999999999856e+01 1.488499999999999943e+02 1.671284999999999854e+03
9.500000000000000111e-02 7.341610000000000635e-01 2.510325000000000273e+01 1.484555000000000007e+02 1.671174999999999955e+03
9.600000000000000200e-02 7.340919999999999668e-01 2.438479999999999848e+01 1.480989999999999895e+02 1.671075000000000045e+03
9.700000000000000289e-02 7.340299999999999603e-01 2.370479999999999876e+01 1.477810000000000059e+02 1.670980000000000018e+03
9.800000000000000377e-02 7.339735000000000564e-01 2.305955000000000155e+01 1.474959999999999809e+02 1.670889999999999873e+03
9.900000000000000466e-02 7.339204999999999757e-01 2.244344999999999857e+01 1.472370000000000232e+02 1.670809999999999945e+03
1.000000000000000056e-01 7.338679999999999648e-01 2.184975000000000023e+01 1.469929999999999950e+02 1.670735000000000127e+03
1.010000000000000064e-01 7.338130000000000486e-01 2.127069999999999794e+01 1.467520000000000095e+02 1.670659999999999854e+03
1.020000000000000073e-01 7.337519999999999598e-01 2.069814999999999827e+01 1.464995000000000118e+02 1.670579999999999927e+03
1.030000000000000082e-01 7.336829999999999741e-01 2.012384999999999735e+01 1.462214999999999918e+02 1.670500000000000000e+03
1.040000000000000091e-01 7.336024999999999352e-01 1.954029999999999845e+01 1.459054999999999893e+02 1.670414999999999964e+03
1.050000000000000100e-01 7.335074999999999790e-01 1.894044999999999845e+01 1.455405000000000086e+02 1.670309999999999945e+03
1.059999999999999970e-01 7.333965000000000067e-01 1.831879999999999953e+01 1.451154999999999973e+02 1.670195000000000164e+03
1.069999999999999979e-01 7.332684999999999897e-01 1.767115000000000080e+01 1.446250000000000000e+02 1.670065000000000055e+03
1.079999999999999988e-01 7.331235000000000390e-01 1.699510000000000076e+01 1.440649999999999977e+02 1.669914999999999964e+03
1.089999999999999997e-01 7.329620000000000024e-01 1.629005000000000081e+01 1.434359999999999786e+02 1.669750000000000000e+03
1.100000000000000006e-01 7.327839999999999909e-01 1.555720000000000169e+01 1.427415000000000020e+02 1.669569999999999936e+03
1.110000000000000014e-01 7.325935000000000086e-01 1.479974999999999952e+01 1.419875000000000114e+02 1.669369999999999891e+03
1.120000000000000023e-01 7.323925000000000018e-01 1.402259500000000081e+01 1.411860000000000070e+02 1.669154999999999973e+03
1.130000000000000032e-01 7.321839999999999460e-01 1.323214500000000093e+01 1.403485000000000014e+02 1.668930000000000064e+03
1.140000000000000041e-01 7.319729999999999848e-01 1.243602999999999881e+01 1.394904999999999973e+02 1.668700000000000045e+03
1.150000000000000050e-01 7.317629999999999413e-01 1.164289000000000129e+01 1.386295000000000073e+02 1.668470000000000027e+03
1.160000000000000059e-01 7.315590000000000703e-01 1.086170500000000061e+01 1.377830000000000155e+02 1.668244999999999891e+03
1.170000000000000068e-01 7.313640000000000141e-01 1.010180499999999881e+01 1.369685000000000059e+02 1.668014999999999873e+03
1.180000000000000077e-01 7.311829999999999163e-01 9.372085000000000221e+00 1.362035000000000196e+02 1.667799999999999955e+03
1.190000000000000085e-01 7.310195000000000443e-01 8.680699999999999861e+00 1.355024999999999977e+02 1.667599999999999909e+03
1.200000000000000094e-01 7.308764999999999290e-01 8.034890000000000754e+00 1.348795000000000073e+02 1.667420000000000073e+03
1.209999999999999964e-01 7.307550000000000434e-01 7.440384999999999138e+00 1.343444999999999823e+02 1.667259999999999991e+03
1.219999999999999973e-01 7.306580000000000297e-01 6.901404999999999568e+00 1.339039999999999964e+02 1.667125000000000000e+03
1.229999999999999982e-01 7.305844999999999700e-01 6.420420000000000016e+00 1.335625000000000000e+02 1.667015000000000100e+03
1.239999999999999991e-01 7.305349999999999344e-01 5.998065000000000424e+00 1.333195000000000050e+02 1.666930000000000064e+03
1.250000000000000000e-01 7.305075000000000873e-01 5.633259999999999934e+00 1.331709999999999923e+02 1.666865000000000009e+03
1.260000000000000009e-01 7.305010000000000669e-01 5.323280000000000456e+00 1.331109999999999900e+02 1.666829999999999927e+03
1.270000000000000018e-01 7.305114999999999803e-01 5.063990000000000435e+00 1.331290000000000191e+02 1.666819999999999936e+03
1.280000000000000027e-01 7.305369999999999919e-01 4.850125000000000242e+00 1.332129999999999939e+02 1.666825000000000045e+03
1.290000000000000036e-01 7.305740000000000567e-01 4.675534999999999997e+00 1.333499999999999943e+02 1.666840000000000146e+03
1.300000000000000044e-01 7.306189999999999074e-01 4.533559999999999590e+00 1.335264999999999986e+02 1.666875000000000000e+03
1.310000000000000053e-01 7.306675000000000253e-01 4.417289999999999495e+00 1.337264999999999873e+02 1.666914999999999964e+03
1.320000000000000062e-01 7.307185000000000485e-01 4.319899999999999629e+00 1.339370000000000118e+02 1.666965000000000146e+03
1.330000000000000071e-01 7.307669999999999444e-01 4.234880000000000422e+00 1.341449999999999818e+02 1.667009999999999991e+03
1.340000000000000080e-01 7.308110000000000994e-01 4.156245000000000189e+00 1.343385000000000105e+02 1.667054999999999836e+03
1.350000000000000089e-01 7.308485000000000120e-01 4.078725000000000378e+00 1.345079999999999814e+02 1.667099999999999909e+03
1.360000000000000098e-01 7.308784999999999865e-01 3.997840000000000060e+00 1.346454999999999984e+02 1.667139999999999873e+03
1.370000000000000107e-01 7.308989999999999654e-01 3.910010000000000208e+00 1.347459999999999809e+02 1.667164999999999964e+03
1.380000000000000115e-01 7.309090000000000309e-01 3.812540000000000262e+00 1.348054999999999950e+02 1.667179999999999836e+03
1.390000000000000124e-01 7.309094999999999898e-01 3.703649999999999665e+00 1.348209999999999980e+02 1.667190000000000055e+03
1.400000000000000133e-01 7.308999999999999941e-01 3.582379999999999676e+00 1.347944999999999993e+02 1.667184999999999945e+03
1.410000000000000142e-01 7.308814999999999618e-01 3.448574999999999946e+00 1.347275000000000205e+02 1.667175000000000182e+03
1.420000000000000151e-01 7.308535000000000448e-01 3.302735000000000198e+00 1.346209999999999809e+02 1.667150000000000091e+03
1.430000000000000160e-01 7.308185000000000375e-01 3.145959999999999646e+00 1.344805000000000064e+02 1.667119999999999891e+03
1.440000000000000169e-01 7.307770000000000099e-01 2.979800000000000004e+00 1.343100000000000023e+02 1.667075000000000045e+03
1.450000000000000178e-01 7.307295000000000318e-01 2.806154999999999955e+00 1.341145000000000209e+02 1.667030000000000200e+03
1.459999999999999909e-01 7.306779999999999387e-01 2.627134999999999998e+00 1.338985000000000127e+02 1.666980000000000018e+03
1.469999999999999918e-01 7.306234999999999813e-01 2.444960000000000022e+00 1.336675000000000182e+02 1.666920000000000073e+03
1.479999999999999927e-01 7.305675000000000363e-01 2.261840000000000295e+00 1.334254999999999995e+02 1.666855000000000018e+03
1.489999999999999936e-01 7.305094999999999228e-01 2.079875000000000362e+00 1.331775000000000091e+02 1.666789999999999964e+03
1.499999999999999944e-01 7.304515000000000313e-01 1.900966999999999851e+00 1.329254999999999995e+02 1.666719999999999800e+03
1.509999999999999953e-01 7.303935000000000288e-01 1.726790500000000117e+00 1.326730000000000018e+02 1.666654999999999973e+03
1.519999999999999962e-01 7.303359999999999852e-01 1.558704000000000089e+00 1.324219999999999970e+02 1.666590000000000146e+03
1.529999999999999971e-01 7.302789999999999004e-01 1.397775999999999907e+00 1.321734999999999900e+02 1.666519999999999982e+03
1.539999999999999980e-01 7.302230000000000665e-01 1.244749000000000105e+00 1.319279999999999973e+02 1.666454999999999927e+03
1.549999999999999989e-01 7.301670000000000105e-01 1.100100499999999926e+00 1.316845000000000141e+02 1.666384999999999991e+03
1.559999999999999998e-01 7.301115000000000244e-01 9.640589999999999993e-01 1.314440000000000168e+02 1.666315000000000055e+03
1.570000000000000007e-01 7.300564999999999971e-01 8.366453000000000362e-01 1.312040000000000077e+02 1.666250000000000000e+03
1.580000000000000016e-01 7.300005000000000521e-01 7.177585999999999133e-01 1.309650000000000034e+02 1.666184999999999945e+03
1.590000000000000024e-01 7.299444999999999961e-01 6.071959999999999580e-01 1.307235000000000014e+02 1.666115000000000009e+03
