# t [s], A [cm^2], U [cm/s], P [cPa], c [cm/s]
1.000000000000000021e-03 4.690050000000000052e-01 3.116600000000004089e-03 9.200910000000000366e+01 1.501240000000000009e+03
2.000000000000000042e-03 4.689984999999999848e-01 -1.189169999999999811e-03 9.199120000000000630e+01 1.501230000000000018e+03
3.000000000000000062e-03 4.690254999999999841e-01 5.779775000000000190e-02 9.204614999999999725e+01 1.501250000000000000e+03
4.000000000000000083e-03 4.690650000000000097e-01 1.457504999999999773e-01 9.215135000000000787e+01 1.501279999999999973e+03
5.000000000000000104e-03 4.690684999999999993e-01 1.621025000000000105e-01 9.217119999999999891e+01 1.501289999999999964e+03
6.000000000000000125e-03 4.690374999999999961e-01 1.023250000000000132e-01 9.206584999999999752e+01 1.501269999999999982e+03
7.000000000000000146e-03 4.690035000000000176e-01 3.035650000000000848e-02 9.189410000000000878e+01 1.501224999999999909e+03
8.000000000000000167e-03 4.689665000000000639e-01 -5.229050000000001752e-02 9.166864999999999952e+01 1.501164999999999964e+03
9.000000000000001055e-03 4.689034999999999731e-01 -1.993510000000000004e-01 9.132949999999999591e+01 1.501079999999999927e+03
1.000000000000000194e-02 4.688049999999999717e-01 -4.348999999999999533e-01 9.082925000000000182e+01 1.500950000000000045e+03
1.099999999999999936e-02 4.686654999999999571e-01 -7.660049999999999359e-01 9.013405000000000200e+01 1.500764999999999873e+03
1.200000000000000025e-02 4.684755000000000447e-01 -1.206765000000000088e+00 8.920074999999999932e+01 1.500509999999999991e+03
1.300000000000000114e-02 4.682310000000000083e-01 -1.753830000000000222e+00 8.800310000000000343e+01 1.500179999999999836e+03
1.400000000000000203e-02 4.679464999999999875e-01 -2.357215000000000060e+00 8.657304999999999495e+01 1.499775000000000091e+03
1.499999999999999944e-02 4.676529999999999854e-01 -2.927020000000000177e+00 8.500685000000000002e+01 1.499325000000000045e+03
1.600000000000000033e-02 4.673829999999999929e-01 -3.368996999999999797e+00 8.343004999999999427e+01 1.498849999999999909e+03
1.700000000000000122e-02 4.671545000000000281e-01 -3.619041500000000244e+00 8.195120000000000005e+01 1.498384999999999991e+03
1.800000000000000211e-02 4.669694999999999818e-01 -3.658422850000000004e+00 8.063075000000000614e+01 1.497944999999999936e+03
1.900000000000000300e-02 4.668174999999999963e-01 -3.509580499999999770e+00 7.947335000000001060e+01 1.497535000000000082e+03
2.000000000000000042e-02 4.666770000000000085e-01 -3.220555500000000126e+00 7.843885000000000218e+01 1.497154999999999973e+03
2.100000000000000130e-02 4.665305000000000146e-01 -2.846224649999999912e+00 7.746324999999998795e+01 1.496785000000000082e+03
2.200000000000000219e-02 4.663629999999999720e-01 -2.432001499999999705e+00 7.648165000000000191e+01 1.496414999999999964e+03
2.299999999999999961e-02 4.661695000000000144e-01 -2.003645000000000120e+00 7.544745000000000346e+01 1.496034999999999854e+03
2.400000000000000050e-02 4.659534999999999649e-01 -1.565125000000000099e+00 7.434260000000000446e+01 1.495634999999999991e+03
2.500000000000000139e-02 4.657224999999999837e-01 -1.104264999999999830e+00 7.317650000000000432e+01 1.495215000000000146e+03
2.600000000000000228e-02 4.654874999999999985e-01 -6.033200000000000784e-01 7.197634999999999650e+01 1.494789999999999964e+03
2.700000000000000316e-02 4.652555000000000440e-01 -5.024999999999968381e-02 7.077234999999998877e+01 1.494355000000000018e+03
2.800000000000000058e-02 4.650300000000000544e-01 5.530750000000002053e-01 6.958424999999999727e+01 1.493930000000000064e+03
2.900000000000000147e-02 4.648059999999999969e-01 1.187680000000000291e+00 6.841249999999999432e+01 1.493500000000000000e+03
3.000000000000000236e-02 4.645750000000000157e-01 1.819475000000000176e+00 6.723619999999999663e+01 1.493070000000000164e+03
3.099999999999999978e-02 4.643264999999999754e-01 2.405139999999999834e+00 6.601670000000000016e+01 1.492630000000000109e+03
3.200000000000000067e-02 4.640480000000000160e-01 2.900369999999999671e+00 6.470680000000000121e+01 1.492164999999999964e+03
3.300000000000000155e-02 4.637320000000000331e-01 3.268504999999999328e+00 6.326189999999999714e+01 1.491670000000000073e+03
3.400000000000000244e-02 4.633740000000000081e-01 3.487780000000000324e+00 6.165170000000000528e+01 1.491130000000000109e+03
3.500000000000000333e-02 4.629774999999999308e-01 3.555555000000000021e+00 5.986934999999999718e+01 1.490545000000000073e+03
3.600000000000000422e-02 4.625519999999999632e-01 3.488629999999999676e+00 5.793564999999999543e+01 1.489920000000000073e+03
3.700000000000000511e-02 4.621109999999999940e-01 3.320034999999999403e+00 5.589794999999999447e+01 1.489269999999999982e+03
3.799999999999999906e-02 4.616730000000000000e-01 3.092829999999999746e+00 5.382455000000000211e+01 1.488599999999999909e+03
3.899999999999999994e-02 4.612539999999999973e-01 2.853444999999999787e+00 5.179554999999999865e+01 1.487934999999999945e+03
4.000000000000000083e-02 4.608720000000000594e-01 2.645559999999999690e+00 4.989329999999999643e+01 1.487309999999999945e+03
4.100000000000000172e-02 4.605390000000000317e-01 2.505655000000000410e+00 4.819415000000000049e+01 1.486735000000000127e+03
4.200000000000000261e-02 4.602649999999999797e-01 2.461330000000000240e+00 4.676234999999999786e+01 1.486224999999999909e+03
4.300000000000000350e-02 4.600560000000000205e-01 2.530884999999999607e+00 4.564665000000000106e+01 1.485815000000000055e+03
4.400000000000000439e-02 4.599159999999999915e-01 2.724957999999999991e+00 4.488015000000000043e+01 1.485494999999999891e+03
4.499999999999999833e-02 4.598459999999999770e-01 3.048699500000000118e+00 4.448154999999999859e+01 1.485295000000000073e+03
4.599999999999999922e-02 4.598464999999999359e-01 3.504220000000000113e+00 4.445799999999999841e+01 1.485210000000000036e+03
4.700000000000000011e-02 4.599155000000000326e-01 4.092589999999999506e+00 4.480870000000000175e+01 1.485244999999999891e+03
4.800000000000000100e-02 4.600535000000000041e-01 4.815050000000000274e+00 4.552769999999999584e+01 1.485390000000000100e+03
4.900000000000000189e-02 4.602589999999999737e-01 5.673309999999999853e+00 4.660625000000000284e+01 1.485659999999999854e+03
5.000000000000000278e-02 4.605299999999999949e-01 6.668985000000000163e+00 4.803350000000000364e+01 1.486045000000000073e+03
5.100000000000000366e-02 4.608654999999999835e-01 7.802414999999999878e+00 4.979699999999999704e+01 1.486539999999999964e+03
5.200000000000000455e-02 4.612625000000000197e-01 9.071469999999999700e+00 5.188119999999999976e+01 1.487139999999999873e+03
5.300000000000000544e-02 4.617169999999999885e-01 1.047041500000000092e+01 5.426699999999999591e+01 1.487845000000000027e+03
5.399999999999999939e-02 4.622249999999999970e-01 1.198912499999999959e+01 5.693044999999999334e+01 1.488639999999999873e+03
5.500000000000000028e-02 4.627795000000000103e-01 1.361336999999999975e+01 5.984270000000000067e+01 1.489529999999999973e+03
5.600000000000000117e-02 4.633734999999999937e-01 1.532483999999999824e+01 6.296979999999999222e+01 1.490490000000000009e+03
5.700000000000000205e-02 4.639990000000000503e-01 1.710264500000000254e+01 6.627424999999999500e+01 1.491519999999999982e+03
5.800000000000000294e-02 4.646485000000000198e-01 1.892427999999999955e+01 6.971604999999999563e+01 1.492610000000000127e+03
5.900000000000000383e-02 4.653135000000000465e-01 2.076709999999999923e+01 7.325480000000000302e+01 1.493740000000000009e+03
6.000000000000000472e-02 4.659864999999999702e-01 2.260940000000000083e+01 7.685150000000000148e+01 1.494900000000000091e+03
6.099999999999999867e-02 4.666624999999999801e-01 2.443179999999999907e+01 8.047069999999999368e+01 1.496079999999999927e+03
6.199999999999999956e-02 4.673355000000000148e-01 2.621770000000000067e+01 8.408114999999999384e+01 1.497264999999999873e+03
6.300000000000000044e-02 4.680020000000000291e-01 2.795370000000000132e+01 8.765864999999999441e+01 1.498449999999999818e+03
6.400000000000000133e-02 4.686589999999999923e-01 2.962980000000000302e+01 9.118354999999999677e+01 1.499639999999999873e+03
6.500000000000000222e-02 4.693040000000000544e-01 3.123910000000000053e+01 9.464329999999999643e+01 1.500805000000000064e+03
6.600000000000000311e-02 4.699380000000000224e-01 3.277750000000000341e+01 9.803130000000000166e+01 1.501965000000000146e+03
6.700000000000000400e-02 4.705599999999999783e-01 3.424330000000000496e+01 1.013458499999999987e+02 1.503105000000000018e+03
6.800000000000000488e-02 4.711720000000000352e-01 3.563629999999999853e+01 1.045895999999999901e+02 1.504224999999999909e+03
6.900000000000000577e-02 4.717734999999999568e-01 3.695784999999999343e+01 1.077669999999999959e+02 1.505325000000000045e+03
7.000000000000000666e-02 4.723669999999999813e-01 3.820980000000000132e+01 1.108855000000000075e+02 1.506409999999999854e+03
7.100000000000000755e-02 4.729535000000000267e-01 3.939430000000000121e+01 1.139525000000000006e+02 1.507484999999999900e+03
7.200000000000000844e-02 4.735340000000000105e-01 4.051340000000000430e+01 1.169739999999999895e+02 1.508539999999999964e+03
7.300000000000000933e-02 4.741090000000000027e-01 4.156855000000000189e+01 1.199559999999999889e+02 1.509590000000000146e+03
7.399999999999999634e-02 4.746785000000000032e-01 4.256040000000000134e+01 1.229009999999999962e+02 1.510625000000000000e+03
7.499999999999999722e-02 4.752425000000000122e-01 4.348879999999999768e+01 1.258104999999999905e+02 1.511650000000000091e+03
7.599999999999999811e-02 4.757995000000000418e-01 4.435240000000000293e+01 1.286810000000000116e+02 1.512659999999999854e+03
7.699999999999999900e-02 4.763490000000000224e-01 4.514905000000000257e+01 1.315065000000000168e+02 1.513659999999999854e+03
7.799999999999999989e-02 4.768875000000000197e-01 4.587574999999999648e+01 1.342789999999999964e+02 1.514644999999999982e+03
7.900000000000000078e-02 4.774140000000000050e-01 4.652875000000000227e+01 1.369870000000000232e+02 1.515610000000000127e+03
8.000000000000000167e-02 4.779260000000000175e-01 4.710410000000000252e+01 1.396184999999999832e+02 1.516545000000000073e+03
8.100000000000000255e-02 4.784194999999999975e-01 4.759779999999999944e+01 1.421585000000000036e+02 1.517460000000000036e+03
8.200000000000000344e-02 4.788925000000000542e-01 4.800600000000000023e+01 1.445939999999999941e+02 1.518340000000000146e+03
8.300000000000000433e-02 4.793425000000000047e-01 4.832545000000000357e+01 1.469105000000000132e+02 1.519184999999999945e+03
8.400000000000000522e-02 4.797675000000000134e-01 4.855355000000000132e+01 1.490949999999999989e+02 1.519985000000000127e+03
8.500000000000000611e-02 4.801655000000000229e-01 4.868869999999999720e+01 1.511374999999999886e+02 1.520740000000000009e+03
8.600000000000000699e-02 4.805340000000000167e-01 4.873029999999999973e+01 1.530280000000000200e+02 1.521450000000000045e+03
8.700000000000000788e-02 4.808734999999999538e-01 4.867874999999999375e+01 1.547609999999999957e+02 1.522105000000000018e+03
8.800000000000000877e-02 4.811824999999999575e-01 4.853565000000000396e+01 1.563305000000000007e+02 1.522704999999999927e+03
8.899999999999999578e-02 4.814605000000000135e-01 4.830365000000000464e+01 1.577370000000000232e+02 1.523255000000000109e+03
8.999999999999999667e-02 4.817085000000000394e-01 4.798644999999999783e+01 1.589809999999999945e+02 1.523750000000000000e+03
9.099999999999999756e-02 4.819259999999999655e-01 4.758879999999999910e+01 1.600654999999999859e+02 1.524184999999999945e+03
9.199999999999999845e-02 4.821159999999999890e-01 4.711659999999999826e+01 1.609965000000000259e+02 1.524575000000000045e+03
9.299999999999999933e-02 4.822790000000000132e-01 4.657625000000000171e+01 1.617824999999999989e+02 1.524904999999999973e+03
9.400000000000000022e-02 4.824169999999999847e-01 4.597504999999999598e+01 1.624325000000000045e+02 1.525190000000000055e+03
9.500000000000000111e-02 4.825320000000000165e-01 4.532110000000000127e+01 1.629575000000000102e+02 1.525425000000000182e+03
9.600000000000000200e-02 4.826265000000000138e-01 4.462265000000000015e+01 1.633704999999999927e+02 1.525625000000000000e+03
9.700000000000000289e-02 4.827024999999999788e-01 4.388835000000000264e+01 1.636854999999999905e+02 1.525784999999999854e+03
9.800000000000000377e-02 4.827624999999999833e-01 4.312689999999999912e+01 1.639144999999999754e+02 1.525909999999999854e+03
9.900000000000000466e-02 4.828095000000000026e-01 4.234675000000000011e+01 1.640724999999999909e+02 1.526009999999999991e+03
1.000000000000000056e-01 4.828454999999999830e-01 4.155599999999999739e+01 1.641714999999999804e+02 1.526079999999999927e+03
1.010000000000000064e-01 4.828734999999999555e-01 4.076210000000000377e+01 1.642250000000000227e+02 1.526135000000000218e+03
1.020000000000000073e-01 4.828945000000000043e-01 3.997169999999999845e+01 1.642439999999999998e+02 1.526164999999999964e+03
1.030000000000000082e-01 4.829105000000000203e-01 3.919034999999999513e+01 1.642389999999999759e+02 1.526184999999999945e+03
1.040000000000000091e-01 4.829225000000000323e-01 3.842244999999999777e+01 1.642169999999999845e+02 1.526204999999999927e+03
1.050000000000000100e-01 4.829324999999999868e-01 3.767119999999999891e+01 1.641845000000000141e+02 1.526204999999999927e+03
1.059999999999999970e-01 4.829395000000000215e-01 3.693845000000000312e+01 1.641449999999999818e+02 1.526204999999999927e+03
1.069999999999999979e-01 4.829449999999999577e-01 3.622490000000000521e+01 1.641005000000000109e+02 1.526195000000000164e+03
1.079999999999999988e-01 4.829479999999999884e-01 3.552989999999999782e+01 1.640515000000000043e+02 1.526184999999999945e+03
1.089999999999999997e-01 4.829485000000000028e-01 3.485200000000000387e+01 1.639945000000000164e+02 1.526164999999999964e+03
1.100000000000000006e-01 4.829459999999999864e-01 3.418880000000000052e+01 1.639279999999999973e+02 1.526150000000000091e+03
1.110000000000000014e-01 4.829379999999999784e-01 3.353719999999999857e+01 1.638464999999999918e+02 1.526119999999999891e+03
1.120000000000000023e-01 4.829255000000000075e-01 3.289369999999999550e+01 1.637445000000000164e+02 1.526090000000000146e+03
1.130000000000000032e-01 4.829065000000000163e-01 3.225455000000000183e+01 1.636159999999999854e+02 1.526049999999999955e+03
1.140000000000000041e-01 4.828795000000000170e-01 3.161589999999999634e+01 1.634555000000000007e+02 1.525994999999999891e+03
1.150000000000000050e-01 4.828445000000000098e-01 3.097404999999999831e+01 1.632570000000000050e+02 1.525934999999999945e+03
1.160000000000000059e-01 4.828005000000000213e-01 3.032569999999999766e+01 1.630160000000000196e+02 1.525855000000000018e+03
1.170000000000000068e-01 4.827460000000000084e-01 2.966790000000000305e+01 1.627284999999999968e+02 1.525764999999999873e+03
1.180000000000000077e-01 4.826814999999999856e-01 2.899834999999999852e+01 1.623910000000000196e+02 1.525659999999999854e+03
1.190000000000000085e-01 4.826064999999999938e-01 2.831555000000000177e+01 1.620014999999999930e+02 1.525530000000000200e+03
1.200000000000000094e-01 4.825214999999999921e-01 2.761834999999999951e+01 1.615604999999999905e+02 1.525389999999999873e+03
1.209999999999999964e-01 4.824264999999999803e-01 2.690684999999999860e+01 1.610685000000000002e+02 1.525235000000000127e+03
1.219999999999999973e-01 4.823224999999999874e-01 2.618175000000000097e+01 1.605280000000000200e+02 1.525059999999999945e+03
1.229999999999999982e-01 4.822099999999999720e-01 2.544460000000000122e+01 1.599424999999999955e+02 1.524869999999999891e+03
1.239999999999999991e-01 4.820900000000000185e-01 2.469760000000000133e+01 1.593174999999999955e+02 1.524664999999999964e+03
1.250000000000000000e-01 4.819640000000000590e-01 2.394384999999999764e+01 1.586594999999999800e+02 1.524449999999999818e+03
1.260000000000000009e-01 4.818335000000000257e-01 2.318684999999999974e+01 1.579755000000000109e+02 1.524230000000000018e+03
1.270000000000000018e-01 4.817000000000000171e-01 2.243070000000000164e+01 1.572740000000000009e+02 1.523994999999999891e+03
1.280000000000000027e-01 4.815654999999999797e-01 2.167999999999999972e+01 1.565625000000000000e+02 1.523764999999999873e+03
1.290000000000000036e-01 4.814309999999999978e-01 2.093935000000000102e+01 1.558509999999999991e+02 1.523519999999999982e+03
1.300000000000000044e-01 4.812994999999999912e-01 2.021354999999999791e+01 1.551474999999999795e+02 1.523285000000000082e+03
1.310000000000000053e-01 4.811710000000000154e-01 1.950734999999999886e+01 1.544610000000000127e+02 1.523050000000000182e+03
1.320000000000000062e-01 4.810479999999999756e-01 1.882509999999999906e+01 1.537989999999999782e+02 1.522819999999999936e+03
1.330000000000000071e-01 4.809320000000000261e-01 1.817099999999999937e+01 1.531694999999999993e+02 1.522599999999999909e+03
1.340000000000000080e-01 4.808230000000000004e-01 1.754865000000000208e+01 1.525779999999999745e+02 1.522394999999999982e+03
1.350000000000000089e-01 4.807230000000000114e-01 1.696095000000000041e+01 1.520304999999999893e+02 1.522195000000000164e+03
1.360000000000000098e-01 4.806320000000000037e-01 1.641015000000000157e+01 1.515300000000000011e+02 1.522009999999999991e+03
1.370000000000000107e-01 4.805504999999999916e-01 1.589795000000000158e+01 1.510785000000000196e+02 1.521845000000000027e+03
1.380000000000000115e-01 4.804779999999999607e-01 1.542494999999999905e+01 1.506784999999999854e+02 1.521694999999999936e+03
1.390000000000000124e-01 4.804154999999999953e-01 1.499130000000000074e+01 1.503279999999999745e+02 1.521559999999999945e+03
1.400000000000000133e-01 4.803614999999999968e-01 1.459615000000000151e+01 1.500254999999999939e+02 1.521434999999999945e+03
1.410000000000000142e-01 4.803155000000000063e-01 1.423830000000000062e+01 1.497694999999999936e+02 1.521329999999999927e+03
1.420000000000000151e-01 4.802770000000000095e-01 1.391569999999999929e+01 1.495545000000000186e+02 1.521244999999999891e+03
1.430000000000000160e-01 4.802454999999999918e-01 1.362620000000000076e+01 1.493759999999999764e+02 1.521164999999999964e+03
1.440000000000000169e-01 4.802190000000000070e-01 1.336694999999999922e+01 1.492300000000000182e+02 1.521099999999999909e+03
1.450000000000000178e-01 4.801974999999999438e-01 1.313519999999999932e+01 1.491105000000000018e+02 1.521039999999999964e+03
1.459999999999999909e-01 4.801789999999999670e-01 1.292794999999999916e+01 1.490130000000000052e+02 1.520994999999999891e+03
1.469999999999999918e-01 4.801634999999999653e-01 1.274224999999999852e+01 1.489309999999999832e+02 1.520950000000000045e+03
1.479999999999999927e-01 4.801495000000000068e-01 1.257525000000000048e+01 1.488595000000000255e+02 1.520914999999999964e+03
1.489999999999999936e-01 4.801365000000000216e-01 1.242435000000000045e+01 1.487959999999999923e+02 1.520880000000000109e+03
1.499999999999999944e-01 4.801239999999999952e-01 1.228689999999999927e+01 1.487350000000000136e+02 1.520849999999999909e+03
1.509999999999999953e-01 4.801115000000000244e-01 1.216080000000000005e+01 1.486750000000000114e+02 1.520819999999999936e+03
1.519999999999999962e-01 4.800980000000000247e-01 1.204410000000000025e+01 1.486125000000000114e+02 1.520789999999999964e+03
1.529999999999999971e-01 4.800834999999999964e-01 1.193511499999999970e+01 1.485459999999999923e+02 1.520764999999999873e+03
1.539999999999999980e-01 4.800685000000000091e-01 1.183228000000000080e+01 1.484739999999999895e+02 1.520730000000000018e+03
1.549999999999999989e-01 4.800530000000000075e-01 1.173448000000000135e+01 1.483965000000000032e+02 1.520700000000000045e+03
1.559999999999999998e-01 4.800355000000000039e-01 1.164068499999999950e+01 1.483129999999999882e+02 1.520670000000000073e+03
1.570000000000000007e-01 4.800170000000000270e-01 1.154997499999999988e+01 1.482230000000000132e+02 1.520634999999999991e+03
1.580000000000000016e-01 4.799980000000000357e-01 1.146172999999999931e+01 1.481279999999999859e+02 1.520599999999999909e+03
1.590000000000000024e-01 4.799774999999999459e-01 1.137539999999999907e+01 1.480275000000000034e+02 1.520565000000000055e+03
