# t [s], A [cm^2], U [cm/s], P [cPa], c [cm/s]
1.000000000000000021e-03 7.111220000000000319e-01 5.734299999999997732e-03 9.033249999999999602e+01 1.708389999999999873e+03
2.000000000000000042e-03 7.111095000000000610e-01 -4.541395000000000154e-03 9.030029999999999291e+01 1.708384999999999991e+03
3.000000000000000062e-03 7.111629999999999896e-01 8.643774999999997988e-02 9.040170000000000528e+01 1.708405000000000200e+03
4.000000000000000083e-03 7.112160000000000704e-01 1.874649999999999928e-01 9.053084999999998672e+01 1.708434999999999945e+03
5.000000000000000104e-03 7.111885000000000012e-01 1.674867499999999898e-01 9.047615000000000407e+01 1.708425000000000182e+03
6.000000000000000125e-03 7.111169999999999991e-01 7.087750000000000994e-02 9.025145000000000550e+01 1.708380000000000109e+03
7.000000000000000146e-03 7.110594999999999555e-01 -9.826499999999960266e-03 8.998445000000000960e+01 1.708320000000000164e+03
8.000000000000000167e-03 7.109730000000000771e-01 -1.525449999999999862e-01 8.959819999999999141e+01 1.708240000000000009e+03
9.000000000000001055e-03 7.108240000000000114e-01 -4.172099999999999698e-01 8.899564999999999770e+01 1.708115000000000009e+03
1.000000000000000194e-02 7.106079999999999064e-01 -8.109300000000000397e-01 8.813124999999999432e+01 1.707934999999999945e+03
1.099999999999999936e-02 7.103040000000000465e-01 -1.361099999999999977e+00 8.693039999999999168e+01 1.707684999999999945e+03
1.200000000000000025e-02 7.099040000000000905e-01 -2.068270000000000053e+00 8.534510000000000218e+01 1.707349999999999909e+03
1.300000000000000114e-02 7.094499999999999140e-01 -2.839904999999999902e+00 8.345770000000000266e+01 1.706934999999999945e+03
1.400000000000000203e-02 7.090175000000000782e-01 -3.518009999999999859e+00 8.147454999999999359e+01 1.706494999999999891e+03
1.499999999999999944e-02 7.086665000000000880e-01 -3.964871000000000034e+00 7.961775000000000091e+01 1.706059999999999945e+03
1.600000000000000033e-02 7.084129999999999594e-01 -4.122790999999999428e+00 7.802315000000000111e+01 1.705659999999999854e+03
1.700000000000000122e-02 7.082304999999999851e-01 -4.019009999999999749e+00 7.670390000000000441e+01 1.705309999999999945e+03
1.800000000000000211e-02 7.080714999999999648e-01 -3.734020000000000117e+00 7.557429999999999382e+01 1.704994999999999891e+03
1.900000000000000300e-02 7.078900000000000192e-01 -3.359550000000000036e+00 7.450400000000000489e+01 1.704690000000000055e+03
2.000000000000000042e-02 7.076584999999999681e-01 -2.963515500000000191e+00 7.337534999999999741e+01 1.704380000000000109e+03
2.100000000000000130e-02 7.073730000000000295e-01 -2.571337499999999832e+00 7.212505000000000166e+01 1.704034999999999854e+03
2.200000000000000219e-02 7.070505000000000262e-01 -2.167324999999999946e+00 7.075735000000000241e+01 1.703679999999999836e+03
2.299999999999999961e-02 7.067200000000000149e-01 -1.713405000000000067e+00 6.932859999999999445e+01 1.703304999999999836e+03
2.400000000000000050e-02 7.064049999999999496e-01 -1.175500000000000211e+00 6.791075000000000728e+01 1.702929999999999836e+03
2.500000000000000139e-02 7.061140000000000194e-01 -5.458650000000000446e-01 6.655395000000000039e+01 1.702565000000000055e+03
2.600000000000000228e-02 7.058385000000000353e-01 1.464550000000000018e-01 6.526044999999999163e+01 1.702204999999999927e+03
2.700000000000000316e-02 7.055534999999999446e-01 8.385150000000001214e-01 6.397769999999999868e+01 1.701855000000000018e+03
2.800000000000000058e-02 7.052255000000000607e-01 1.447060000000000235e+00 6.260960000000000036e+01 1.701485000000000127e+03
2.900000000000000147e-02 7.048225000000000184e-01 1.888244999999999951e+00 6.104234999999999900e+01 1.701085000000000036e+03
3.000000000000000236e-02 7.043245000000000200e-01 2.098340000000000316e+00 5.917634999999999934e+01 1.700625000000000000e+03
3.099999999999999978e-02 7.037269999999999914e-01 2.049869999999999859e+00 5.695700000000000074e+01 1.700085000000000036e+03
3.200000000000000067e-02 7.030460000000000598e-01 1.758105000000000473e+00 5.439379999999999882e+01 1.699480000000000018e+03
3.300000000000000155e-02 7.023150000000000226e-01 1.275909999999999656e+00 5.156234999999999502e+01 1.698819999999999936e+03
3.400000000000000244e-02 7.015735000000000721e-01 6.794649999999995416e-01 4.858950000000000102e+01 1.698115000000000009e+03
3.500000000000000333e-02 7.008630000000000138e-01 5.068000000000072447e-02 4.562784999999999513e+01 1.697409999999999854e+03
3.600000000000000422e-02 7.002190000000000358e-01 -5.378599999999997827e-01 4.282934999999999803e+01 1.696724999999999909e+03
3.700000000000000511e-02 6.996640000000000637e-01 -1.032035000000000036e+00 4.032404999999999973e+01 1.696099999999999909e+03
3.799999999999999906e-02 6.992119999999999447e-01 -1.398819999999999730e+00 3.820770000000000266e+01 1.695555000000000064e+03
3.899999999999999994e-02 6.988674999999999748e-01 -1.623709999999999987e+00 3.653865000000000407e+01 1.695109999999999900e+03
4.000000000000000083e-02 6.986289999999999445e-01 -1.704909999999999926e+00 3.534154999999999802e+01 1.694764999999999873e+03
4.100000000000000172e-02 6.984909999999999730e-01 -1.646555499999999839e+00 3.461645000000000039e+01 1.694529999999999973e+03
4.200000000000000261e-02 6.984494999999999454e-01 -1.452675500000000008e+00 3.434919999999999618e+01 1.694405000000000200e+03
4.300000000000000350e-02 6.985010000000000385e-01 -1.123394500000000074e+00 3.452069999999999794e+01 1.694389999999999873e+03
4.400000000000000439e-02 6.986440000000000428e-01 -6.539799999999998947e-01 3.511330000000000240e+01 1.694474999999999909e+03
4.499999999999999833e-02 6.988769999999999705e-01 -3.664499999999981661e-02 3.611260000000000048e+01 1.694664999999999964e+03
4.599999999999999922e-02 6.992000000000000437e-01 7.359499999999998820e-01 3.750565000000000282e+01 1.694949999999999818e+03
4.700000000000000011e-02 6.996099999999999541e-01 1.666754999999999765e+00 3.927655000000000030e+01 1.695324999999999818e+03
4.800000000000000100e-02 7.001015000000000432e-01 2.751204999999999679e+00 4.140254999999999797e+01 1.695800000000000182e+03
4.900000000000000189e-02 7.006645000000000234e-01 3.975700000000000234e+00 4.385005000000000308e+01 1.696345000000000027e+03
5.000000000000000278e-02 7.012880000000000225e-01 5.317874999999999908e+00 4.657399999999999807e+01 1.696970000000000027e+03
5.100000000000000366e-02 7.019545000000000368e-01 6.748492000000000601e+00 4.951874999999999716e+01 1.697644999999999982e+03
5.200000000000000455e-02 7.026499999999999968e-01 8.234168000000000376e+00 5.262149999999999750e+01 1.698375000000000000e+03
5.300000000000000544e-02 7.033590000000000675e-01 9.740615000000001800e+00 5.581685000000000230e+01 1.699135000000000218e+03
5.399999999999999939e-02 7.040664999999999285e-01 1.123585999999999885e+01 5.904174999999999329e+01 1.699905000000000200e+03
5.500000000000000028e-02 7.047615000000000407e-01 1.269232000000000049e+01 6.224009999999999820e+01 1.700684999999999945e+03
5.600000000000000117e-02 7.054359999999999520e-01 1.408844500000000011e+01 6.536639999999999873e+01 1.701460000000000036e+03
5.700000000000000205e-02 7.060845000000000038e-01 1.540915500000000016e+01 6.838750000000000284e+01 1.702215000000000146e+03
5.800000000000000294e-02 7.067054999999999865e-01 1.664580000000000126e+01 7.128334999999999866e+01 1.702945000000000164e+03
5.900000000000000383e-02 7.072985000000000522e-01 1.779500000000000171e+01 7.404625000000000057e+01 1.703650000000000091e+03
6.000000000000000472e-02 7.078659999999999952e-01 1.885800000000000054e+01 7.667900000000000205e+01 1.704329999999999927e+03
6.099999999999999867e-02 7.084120000000000417e-01 1.983885000000000076e+01 7.919275000000000375e+01 1.704984999999999900e+03
6.199999999999999956e-02 7.089410000000000434e-01 2.074385000000000190e+01 8.160425000000000750e+01 1.705605000000000018e+03
6.300000000000000044e-02 7.094559999999999755e-01 2.158014999999999972e+01 8.393319999999999936e+01 1.706214999999999918e+03
6.400000000000000133e-02 7.099625000000000519e-01 2.235500000000000043e+01 8.619974999999999454e+01 1.706804999999999836e+03
6.500000000000000222e-02 7.104634999999999145e-01 2.307469999999999999e+01 8.842210000000000036e+01 1.707384999999999991e+03
6.600000000000000311e-02 7.109609999999999541e-01 2.374419999999999931e+01 9.061459999999999582e+01 1.707954999999999927e+03
6.700000000000000400e-02 7.114564999999999362e-01 2.436639999999999873e+01 9.278650000000000375e+01 1.708525000000000091e+03
6.800000000000000488e-02 7.119495000000000129e-01 2.494219999999999970e+01 9.494059999999998922e+01 1.709085000000000036e+03
6.900000000000000577e-02 7.124384999999999746e-01 2.547019999999999840e+01 9.707335000000000491e+01 1.709634999999999991e+03
7.000000000000000666e-02 7.129194999999999283e-01 2.594735000000000014e+01 9.917605000000000359e+01 1.710184999999999945e+03
7.100000000000000755e-02 7.133890000000000509e-01 2.636899999999999977e+01 1.012332999999999998e+02 1.710720000000000027e+03
7.200000000000000844e-02 7.138430000000000053e-01 2.673004999999999853e+01 1.032284999999999968e+02 1.711244999999999891e+03
7.300000000000000933e-02 7.142770000000000508e-01 2.702499999999999858e+01 1.051409999999999911e+02 1.711744999999999891e+03
7.399999999999999634e-02 7.146854999999999736e-01 2.724889999999999901e+01 1.069514999999999958e+02 1.712224999999999909e+03
7.499999999999999722e-02 7.150665000000000493e-01 2.739759999999999707e+01 1.086405000000000030e+02 1.712674999999999955e+03
7.599999999999999811e-02 7.154160000000000519e-01 2.746815000000000140e+01 1.101930000000000121e+02 1.713095000000000027e+03
7.699999999999999900e-02 7.157299999999999773e-01 2.745850000000000080e+01 1.115930000000000035e+02 1.713474999999999909e+03
7.799999999999999989e-02 7.160079999999999778e-01 2.736814999999999998e+01 1.128315000000000055e+02 1.713819999999999936e+03
7.900000000000000078e-02 7.162485000000000657e-01 2.719760000000000133e+01 1.139000000000000057e+02 1.714125000000000000e+03
8.000000000000000167e-02 7.164504999999999901e-01 2.694869999999999877e+01 1.147965000000000089e+02 1.714384999999999991e+03
8.100000000000000255e-02 7.166144999999999321e-01 2.662444999999999951e+01 1.155210000000000008e+02 1.714605000000000018e+03
8.200000000000000344e-02 7.167419999999999902e-01 2.622915000000000063e+01 1.160759999999999934e+02 1.714775000000000091e+03
8.300000000000000433e-02 7.168339999999999712e-01 2.576829999999999998e+01 1.164685000000000059e+02 1.714909999999999854e+03
8.400000000000000522e-02 7.168930000000000025e-01 2.524875000000000114e+01 1.167085000000000008e+02 1.715005000000000109e+03
8.500000000000000611e-02 7.169220000000000592e-01 2.467855000000000132e+01 1.168094999999999999e+02 1.715055000000000064e+03
8.600000000000000699e-02 7.169244999999999646e-01 2.406689999999999685e+01 1.167860000000000014e+02 1.715085000000000036e+03
8.700000000000000788e-02 7.169045000000000556e-01 2.342370000000000019e+01 1.166560000000000059e+02 1.715075000000000045e+03
8.800000000000000877e-02 7.168665000000000731e-01 2.275954999999999728e+01 1.164385000000000048e+02 1.715050000000000182e+03
8.899999999999999578e-02 7.168155000000000499e-01 2.208494999999999919e+01 1.161535000000000082e+02 1.715000000000000000e+03
8.999999999999999667e-02 7.167550000000000310e-01 2.141009999999999991e+01 1.158209999999999980e+02 1.714930000000000064e+03
9.099999999999999756e-02 7.166890000000000205e-01 2.074425000000000097e+01 1.154594999999999914e+02 1.714849999999999909e+03
9.199999999999999845e-02 7.166209999999999525e-01 2.009534999999999982e+01 1.150859999999999985e+02 1.714769999999999982e+03
9.299999999999999933e-02 7.165544999999999831e-01 1.946974999999999767e+01 1.147139999999999986e+02 1.714684999999999945e+03
9.400000000000000022e-02 7.164900000000000713e-01 1.887184999999999846e+01 1.143555000000000064e+02 1.714594999999999800e+03
9.500000000000000111e-02 7.164295000000000524e-01 1.830399999999999849e+01 1.140165000000000077e+02 1.714509999999999991e+03
9.600000000000000200e-02 7.163730000000000375e-01 1.776664999999999850e+01 1.137015000000000100e+02 1.714430000000000064e+03
9.700000000000000289e-02 7.163199999999999568e-01 1.725835000000000008e+01 1.134089999999999918e+02 1.714349999999999909e+03
9.800000000000000377e-02 7.162699999999999623e-01 1.677615000000000123e+01 1.131375000000000028e+02 1.714275000000000091e+03
9.900000000000000466e-02 7.162195000000000089e-01 1.631569999999999965e+01 1.128789999999999907e+02 1.714204999999999927e+03
1.000000000000000056e-01 7.161695000000000144e-01 1.587185000000000024e+01 1.126264999999999930e+02 1.714139999999999873e+03
1.010000000000000064e-01 7.161150000000000571e-01 1.543864999999999910e+01 1.123704999999999927e+02 1.714070000000000164e+03
1.020000000000000073e-01 7.160549999999999971e-01 1.501009999999999955e+01 1.121009999999999991e+02 1.714000000000000000e+03
1.030000000000000082e-01 7.159880000000000688e-01 1.458010000000000161e+01 1.118075000000000045e+02 1.713924999999999955e+03
1.040000000000000091e-01 7.159115000000000339e-01 1.414320000000000022e+01 1.114809999999999945e+02 1.713840000000000146e+03
1.050000000000000100e-01 7.158240000000000158e-01 1.369444999999999979e+01 1.111140000000000043e+02 1.713744999999999891e+03
1.059999999999999970e-01 7.157244999999999857e-01 1.322985999999999862e+01 1.106995000000000005e+02 1.713644999999999982e+03
1.069999999999999979e-01 7.156130000000000546e-01 1.274679000000000073e+01 1.102344999999999970e+02 1.713529999999999973e+03
1.079999999999999988e-01 7.154890000000000416e-01 1.224385499999999993e+01 1.097175000000000011e+02 1.713405000000000200e+03
1.089999999999999997e-01 7.153534999999999755e-01 1.172115499999999955e+01 1.091510000000000105e+02 1.713264999999999873e+03
1.100000000000000006e-01 7.152080000000000659e-01 1.118033499999999947e+01 1.085374999999999943e+02 1.713119999999999891e+03
1.110000000000000014e-01 7.150549999999999962e-01 1.062441000000000102e+01 1.078865000000000123e+02 1.712960000000000036e+03
1.120000000000000023e-01 7.148965000000000458e-01 1.005781499999999973e+01 1.072065000000000055e+02 1.712799999999999955e+03
1.130000000000000032e-01 7.147360000000000380e-01 9.485994999999999067e+00 1.065095000000000027e+02 1.712625000000000000e+03
1.140000000000000041e-01 7.145759999999999890e-01 8.915365000000001316e+00 1.058089999999999975e+02 1.712450000000000045e+03
1.150000000000000050e-01 7.144200000000000550e-01 8.352970000000000894e+00 1.051204999999999927e+02 1.712279999999999973e+03
1.160000000000000059e-01 7.142720000000000180e-01 7.805994999999999351e+00 1.044574000000000069e+02 1.712115000000000009e+03
1.170000000000000068e-01 7.141349999999999643e-01 7.281579999999999941e+00 1.038353500000000054e+02 1.711954999999999927e+03
1.180000000000000077e-01 7.140119999999999800e-01 6.786414999999999864e+00 1.032670999999999992e+02 1.711809999999999945e+03
1.190000000000000085e-01 7.139044999999999419e-01 6.326515000000000555e+00 1.027654500000000013e+02 1.711674999999999955e+03
1.200000000000000094e-01 7.138160000000000061e-01 5.906839999999999868e+00 1.023399000000000001e+02 1.711559999999999945e+03
1.209999999999999964e-01 7.137465000000000614e-01 5.531105000000000160e+00 1.019972999999999956e+02 1.711464999999999918e+03
1.219999999999999973e-01 7.136974999999999847e-01 5.201704999999999579e+00 1.017425000000000068e+02 1.711384999999999991e+03
1.229999999999999982e-01 7.136685000000000390e-01 4.919570000000000221e+00 1.015760999999999967e+02 1.711335000000000036e+03
1.239999999999999991e-01 7.136580000000000146e-01 4.684225000000000527e+00 1.014967000000000041e+02 1.711299999999999955e+03
1.250000000000000000e-01 7.136664999999999814e-01 4.493859999999999744e+00 1.014995000000000118e+02 1.711284999999999854e+03
1.260000000000000009e-01 7.136905000000000054e-01 4.345494999999999663e+00 1.015780000000000030e+02 1.711289999999999964e+03
1.270000000000000018e-01 7.137280000000000291e-01 4.235189999999999344e+00 1.017235000000000014e+02 1.711315000000000055e+03
1.280000000000000027e-01 7.137774999999999537e-01 4.158260000000000289e+00 1.019235000000000042e+02 1.711349999999999909e+03
1.290000000000000036e-01 7.138349999999999973e-01 4.109539999999999971e+00 1.021690000000000111e+02 1.711394999999999982e+03
1.300000000000000044e-01 7.138990000000000613e-01 4.083645000000000636e+00 1.024465000000000003e+02 1.711454999999999927e+03
1.310000000000000053e-01 7.139660000000001006e-01 4.075165000000000148e+00 1.027454999999999927e+02 1.711525000000000091e+03
1.320000000000000062e-01 7.140345000000000164e-01 4.078875000000000028e+00 1.030540000000000020e+02 1.711595000000000027e+03
1.330000000000000071e-01 7.141020000000000145e-01 4.089890000000000470e+00 1.033624999999999972e+02 1.711664999999999964e+03
1.340000000000000080e-01 7.141665000000000374e-01 4.103790000000000049e+00 1.036624999999999943e+02 1.711740000000000009e+03
1.350000000000000089e-01 7.142275000000000151e-01 4.116690000000000182e+00 1.039459999999999980e+02 1.711799999999999955e+03
1.360000000000000098e-01 7.142834999999999601e-01 4.125315000000000509e+00 1.042069999999999936e+02 1.711869999999999891e+03
1.370000000000000107e-01 7.143325000000000369e-01 4.127019999999999911e+00 1.044420000000000073e+02 1.711925000000000182e+03
1.380000000000000115e-01 7.143755000000000521e-01 4.119780000000000442e+00 1.046475000000000080e+02 1.711985000000000127e+03
1.390000000000000124e-01 7.144114999999999771e-01 4.102240000000000109e+00 1.048215000000000003e+02 1.712029999999999973e+03
1.400000000000000133e-01 7.144410000000001038e-01 4.073615000000000208e+00 1.049645000000000010e+02 1.712065000000000055e+03
1.410000000000000142e-01 7.144634999999999181e-01 4.033714999999999939e+00 1.050769999999999982e+02 1.712099999999999909e+03
1.420000000000000151e-01 7.144804999999999628e-01 3.982859999999999623e+00 1.051599999999999966e+02 1.712125000000000000e+03
1.430000000000000160e-01 7.144920000000000160e-01 3.921829999999999927e+00 1.052169999999999987e+02 1.712139999999999873e+03
1.440000000000000169e-01 7.144989999999999952e-01 3.851770000000000138e+00 1.052500000000000000e+02 1.712159999999999854e+03
1.450000000000000178e-01 7.145019999999999705e-01 3.774115000000000109e+00 1.052639999999999958e+02 1.712164999999999964e+03
1.459999999999999909e-01 7.145015000000000116e-01 3.690485000000000237e+00 1.052609999999999957e+02 1.712170000000000073e+03
1.469999999999999918e-01 7.144989999999999952e-01 3.602570000000000050e+00 1.052450000000000045e+02 1.712170000000000073e+03
1.479999999999999927e-01 7.144949999999999912e-01 3.512050000000000338e+00 1.052194999999999965e+02 1.712164999999999964e+03
1.489999999999999936e-01 7.144900000000000695e-01 3.420494999999999841e+00 1.051880000000000024e+02 1.712160000000000082e+03
1.499999999999999944e-01 7.144839999999998970e-01 3.329254999999999853e+00 1.051514999999999986e+02 1.712155000000000200e+03
1.509999999999999953e-01 7.144779999999999465e-01 3.239460000000000228e+00 1.051125000000000114e+02 1.712144999999999982e+03
1.519999999999999962e-01 7.144714999999999261e-01 3.151924999999999866e+00 1.050720000000000027e+02 1.712139999999999873e+03
1.529999999999999971e-01 7.144654999999999756e-01 3.067154999999999632e+00 1.050304999999999893e+02 1.712130000000000109e+03
1.539999999999999980e-01 7.144584999999999964e-01 2.985364999999999824e+00 1.049874999999999972e+02 1.712119999999999891e+03
1.549999999999999989e-01 7.144504999999999884e-01 2.906495000000000051e+00 1.049414999999999907e+02 1.712109999999999900e+03
1.559999999999999998e-01 7.144420000000000215e-01 2.830275000000000318e+00 1.048915000000000077e+02 1.712094999999999800e+03
1.570000000000000007e-01 7.144310000000000382e-01 2.756275000000000031e+00 1.048359999999999985e+02 1.712085000000000036e+03
1.580000000000000016e-01 7.144189999999999152e-01 2.684000000000000163e+00 1.047729999999999961e+02 1.712069999999999936e+03
1.590000000000000024e-01 7.144040000000000390e-01 2.612935000000000230e+00 1.047005000000000052e+02 1.712054999999999836e+03
