# t [s], A [cm^2], U [cm/s], P [cPa], c [cm/s]
1.000000000000000021e-03 1.888825000000000087e-01 1.881885000000000085e-01 8.675575000000000614e+01 2.150684999999999945e+03
2.000000000000000042e-03 1.888449999999999851e-01 1.400014999999999787e+00 8.405744999999998868e+01 2.150375000000000000e+03
3.000000000000000062e-03 1.887355000000000005e-01 2.942313500000000026e+00 8.021070000000000277e+01 2.149515000000000327e+03
4.000000000000000083e-03 1.885824999999999863e-01 4.698584219999999867e+00 7.586509999999999820e+01 2.148329999999999927e+03
5.000000000000000104e-03 1.884160000000000001e-01 6.615944999999999965e+00 7.183619999999999095e+01 2.147055000000000291e+03
6.000000000000000125e-03 1.882550000000000057e-01 8.556395000000000195e+00 6.849025000000000318e+01 2.145835000000000036e+03
7.000000000000000146e-03 1.881039999999999934e-01 1.031613000000000113e+01 6.565825000000000955e+01 2.144704999999999927e+03
8.000000000000000167e-03 1.879645000000000066e-01 1.179187000000000118e+01 6.309684999999999633e+01 2.143684999999999945e+03
9.000000000000001055e-03 1.878404999999999936e-01 1.300937499999999858e+01 6.083729999999999905e+01 2.142795000000000073e+03
1.000000000000000194e-02 1.877360000000000140e-01 1.400635000000000119e+01 5.897804999999999609e+01 2.142055000000000291e+03
1.099999999999999936e-02 1.876510000000000122e-01 1.479925000000000068e+01 5.752275000000000205e+01 2.141454999999999927e+03
1.200000000000000025e-02 1.875835000000000141e-01 1.539864999999999995e+01 5.641750000000000398e+01 2.140994999999999891e+03
1.300000000000000114e-02 1.875310000000000032e-01 1.580324999999999847e+01 5.555785000000000196e+01 2.140630000000000109e+03
1.400000000000000203e-02 1.874879999999999880e-01 1.601415000000000077e+01 5.480984999999999729e+01 2.140344999999999800e+03
1.499999999999999944e-02 1.874514999999999931e-01 1.608279999999999887e+01 5.414189999999999969e+01 2.140110000000000127e+03
1.600000000000000033e-02 1.874259999999999815e-01 1.613220000000000098e+01 5.374399999999999977e+01 2.139954999999999927e+03
1.700000000000000122e-02 1.874210000000000043e-01 1.631265000000000143e+01 5.396949999999999648e+01 2.139925000000000182e+03
1.800000000000000211e-02 1.874445000000000139e-01 1.672310000000000230e+01 5.511880000000000024e+01 2.140095000000000255e+03
1.900000000000000300e-02 1.874989999999999990e-01 1.735645000000000238e+01 5.722655000000000314e+01 2.140484999999999673e+03
2.000000000000000042e-02 1.875795000000000101e-01 1.810074999999999790e+01 5.999264999999999759e+01 2.141055000000000291e+03
2.100000000000000130e-02 1.876724999999999921e-01 1.878885000000000005e+01 6.288219999999999743e+01 2.141724999999999909e+03
2.200000000000000219e-02 1.877610000000000112e-01 1.926485000000000269e+01 6.532394999999999641e+01 2.142380000000000109e+03
2.299999999999999961e-02 1.878319999999999990e-01 1.943699999999999761e+01 6.690590000000000259e+01 2.142909999999999854e+03
2.400000000000000050e-02 1.878759999999999875e-01 1.929929999999999879e+01 6.749039999999999395e+01 2.143255000000000109e+03
2.500000000000000139e-02 1.878934999999999911e-01 1.891924999999999812e+01 6.721665000000000134e+01 2.143400000000000091e+03
2.600000000000000228e-02 1.878900000000000015e-01 1.840060000000000073e+01 6.640505000000000280e+01 2.143395000000000437e+03
2.700000000000000316e-02 1.878734999999999988e-01 1.784029999999999916e+01 6.541470000000001050e+01 2.143284999999999854e+03
2.800000000000000058e-02 1.878524999999999778e-01 1.729560000000000031e+01 6.451210000000000377e+01 2.143139999999999873e+03
2.900000000000000147e-02 1.878319999999999990e-01 1.677199999999999847e+01 6.379734999999999445e+01 2.142989999999999782e+03
3.000000000000000236e-02 1.878124999999999933e-01 1.623254999999999981e+01 6.320374999999999943e+01 2.142844999999999800e+03
3.099999999999999978e-02 1.877904999999999991e-01 1.562154999999999916e+01 6.255834999999999724e+01 2.142695000000000164e+03
3.200000000000000067e-02 1.877630000000000132e-01 1.489395000000000024e+01 6.167535000000000167e+01 2.142494999999999891e+03
3.300000000000000155e-02 1.877250000000000030e-01 1.403940000000000055e+01 6.044745000000000346e+01 2.142230000000000018e+03
3.400000000000000244e-02 1.876769999999999827e-01 1.309430000000000049e+01 5.890570000000000306e+01 2.141889999999999873e+03
3.500000000000000333e-02 1.876214999999999966e-01 1.213788999999999874e+01 5.722890000000000299e+01 2.141500000000000000e+03
3.600000000000000422e-02 1.875669999999999837e-01 1.127292999999999878e+01 5.570114999999999839e+01 2.141110000000000127e+03
3.700000000000000511e-02 1.875219999999999942e-01 1.059899499999999861e+01 5.463169999999999504e+01 2.140779999999999745e+03
3.799999999999999906e-02 1.874954999999999816e-01 1.018610999999999933e+01 5.426614999999999611e+01 2.140570000000000164e+03
3.899999999999999994e-02 1.874919999999999920e-01 1.005752000000000024e+01 5.471734999999999616e+01 2.140534999999999854e+03
4.000000000000000083e-02 1.875145000000000006e-01 1.018506000000000000e+01 5.593500000000000227e+01 2.140670000000000073e+03
4.100000000000000172e-02 1.875580000000000025e-01 1.049720999999999904e+01 5.771824999999999761e+01 2.140969999999999800e+03
4.200000000000000261e-02 1.876165000000000194e-01 1.089578500000000005e+01 5.976395000000000124e+01 2.141375000000000000e+03
4.300000000000000350e-02 1.876794999999999991e-01 1.127570000000000050e+01 6.173114999999999952e+01 2.141819999999999709e+03
4.400000000000000439e-02 1.877375000000000016e-01 1.154289999999999949e+01 6.330615000000000236e+01 2.142244999999999891e+03
4.499999999999999833e-02 1.877814999999999901e-01 1.162720000000000020e+01 6.425235000000000696e+01 2.142569999999999709e+03
4.599999999999999922e-02 1.878055000000000141e-01 1.148819999999999908e+01 6.443684999999999263e+01 2.142750000000000000e+03
4.700000000000000011e-02 1.878049999999999997e-01 1.111455000000000126e+01 6.383330000000000126e+01 2.142760000000000218e+03
4.800000000000000100e-02 1.877800000000000025e-01 1.051821999999999946e+01 6.250339999999999918e+01 2.142590000000000146e+03
4.900000000000000189e-02 1.877320000000000100e-01 9.726630000000000109e+00 6.056759999999999877e+01 2.142260000000000218e+03
5.000000000000000278e-02 1.876645000000000119e-01 8.774419999999999220e+00 5.817225000000000534e+01 2.141779999999999745e+03
5.100000000000000366e-02 1.875815000000000121e-01 7.697325000000000195e+00 5.546235000000000070e+01 2.141190000000000055e+03
5.200000000000000455e-02 1.874875000000000014e-01 6.528760000000000119e+00 5.256425000000000125e+01 2.140515000000000327e+03
5.300000000000000544e-02 1.873859999999999970e-01 5.299094999999999445e+00 4.957985000000000042e+01 2.139784999999999854e+03
5.399999999999999939e-02 1.872805000000000164e-01 4.037080999999999698e+00 4.658955000000000268e+01 2.139019999999999982e+03
5.500000000000000028e-02 1.871730000000000060e-01 2.772048999999999985e+00 4.366114999999999924e+01 2.138250000000000000e+03
5.600000000000000117e-02 1.870674999999999977e-01 1.535994999999999777e+00 4.086039999999999850e+01 2.137489999999999782e+03
5.700000000000000205e-02 1.869660000000000211e-01 3.647499999999999076e-01 3.825860000000000127e+01 2.136755000000000109e+03
5.800000000000000294e-02 1.868719999999999826e-01 -7.022149999999999226e-01 3.593710000000000093e+01 2.136064999999999600e+03
5.900000000000000383e-02 1.867880000000000096e-01 -1.623337999999999948e+00 3.398579999999999757e+01 2.135454999999999927e+03
6.000000000000000472e-02 1.867179999999999951e-01 -2.357572499999999849e+00 3.249770000000000181e+01 2.134939999999999600e+03
6.099999999999999867e-02 1.866649999999999976e-01 -2.867570000000000174e+00 3.156034999999999968e+01 2.134545000000000073e+03
6.199999999999999956e-02 1.866319999999999923e-01 -3.122825000000000184e+00 3.124699999999999989e+01 2.134289999999999964e+03
6.300000000000000044e-02 1.866214999999999957e-01 -3.102260000000000240e+00 3.160759999999999792e+01 2.134194999999999709e+03
6.400000000000000133e-02 1.866345000000000087e-01 -2.795955000000000190e+00 3.266349999999999909e+01 2.134265000000000327e+03
6.500000000000000222e-02 1.866720000000000046e-01 -2.205857500000000027e+00 3.440455000000000041e+01 2.134519999999999982e+03
6.600000000000000311e-02 1.867334999999999967e-01 -1.345422000000000118e+00 3.678985000000000127e+01 2.134944999999999709e+03
6.700000000000000400e-02 1.868179999999999841e-01 -2.384699999999999598e-01 3.975114999999999554e+01 2.135529999999999745e+03
6.800000000000000488e-02 1.869230000000000058e-01 1.082689999999999930e+00 4.319859999999999900e+01 2.136264999999999873e+03
6.900000000000000577e-02 1.870445000000000024e-01 2.579508500000000204e+00 4.702779999999999916e+01 2.137130000000000109e+03
7.000000000000000666e-02 1.871800000000000130e-01 4.209770500000000304e+00 5.112729999999999819e+01 2.138100000000000364e+03
7.100000000000000755e-02 1.873255000000000059e-01 5.930139999999999745e+00 5.538654999999999973e+01 2.139144999999999982e+03
7.200000000000000844e-02 1.874780000000000058e-01 7.698729999999999407e+00 5.970255000000000223e+01 2.140239999999999782e+03
7.300000000000000933e-02 1.876325000000000076e-01 9.477270000000000749e+00 6.398659999999999570e+01 2.141360000000000127e+03
7.399999999999999634e-02 1.877874999999999961e-01 1.123300500000000035e+01 6.816830000000000211e+01 2.142480000000000018e+03
7.499999999999999722e-02 1.879399999999999959e-01 1.293982000000000099e+01 7.219849999999999568e+01 2.143590000000000146e+03
7.599999999999999811e-02 1.880880000000000052e-01 1.457900000000000063e+01 7.605010000000000048e+01 2.144670000000000073e+03
7.699999999999999900e-02 1.882309999999999817e-01 1.613879999999999981e+01 7.971649999999999636e+01 2.145719999999999800e+03
7.799999999999999989e-02 1.883694999999999953e-01 1.761404999999999887e+01 8.320834999999999582e+01 2.146730000000000018e+03
7.900000000000000078e-02 1.885014999999999885e-01 1.900479999999999947e+01 8.654909999999999570e+01 2.147710000000000036e+03
8.000000000000000167e-02 1.886300000000000199e-01 2.031484999999999985e+01 8.976945000000000618e+01 2.148649999999999636e+03
8.100000000000000255e-02 1.887544999999999917e-01 2.155024999999999835e+01 9.290250000000000341e+01 2.149569999999999709e+03
8.200000000000000344e-02 1.888759999999999883e-01 2.271795000000000186e+01 9.597854999999999848e+01 2.150470000000000255e+03
8.300000000000000433e-02 1.889959999999999973e-01 2.382450000000000045e+01 9.902299999999999613e+01 2.151355000000000018e+03
8.400000000000000522e-02 1.891145000000000187e-01 2.487529999999999930e+01 1.020511500000000069e+02 2.152235000000000127e+03
8.500000000000000611e-02 1.892324999999999979e-01 2.587405000000000044e+01 1.050720000000000027e+02 2.153105000000000018e+03
8.600000000000000699e-02 1.893500000000000183e-01 2.682264999999999944e+01 1.080824999999999960e+02 2.153975000000000364e+03
8.700000000000000788e-02 1.894665000000000099e-01 2.772084999999999866e+01 1.110755000000000052e+02 2.154835000000000036e+03
8.800000000000000877e-02 1.895820000000000005e-01 2.856689999999999685e+01 1.140345000000000084e+02 2.155694999999999709e+03
8.899999999999999578e-02 1.896964999999999901e-01 2.935710000000000264e+01 1.169395000000000095e+02 2.156539999999999964e+03
8.999999999999999667e-02 1.898084999999999911e-01 3.008644999999999925e+01 1.197659999999999911e+02 2.157369999999999891e+03
9.099999999999999756e-02 1.899175000000000169e-01 3.074905000000000044e+01 1.224885000000000019e+02 2.158175000000000182e+03
9.199999999999999845e-02 1.900219999999999965e-01 3.133784999999999954e+01 1.250794999999999959e+02 2.158954999999999927e+03
9.299999999999999933e-02 1.901214999999999988e-01 3.184535000000000338e+01 1.275120000000000005e+02 2.159695000000000164e+03
9.400000000000000022e-02 1.902154999999999818e-01 3.226395000000000124e+01 1.297584999999999980e+02 2.160399999999999636e+03
9.500000000000000111e-02 1.903024999999999856e-01 3.258615000000000350e+01 1.317950000000000159e+02 2.161045000000000073e+03
9.600000000000000200e-02 1.903814999999999813e-01 3.280519999999999925e+01 1.335980000000000132e+02 2.161635000000000218e+03
9.700000000000000289e-02 1.904514999999999958e-01 3.291550000000000153e+01 1.351499999999999773e+02 2.162170000000000073e+03
9.800000000000000377e-02 1.905129999999999879e-01 3.291315000000000168e+01 1.364365000000000236e+02 2.162630000000000109e+03
9.900000000000000466e-02 1.905644999999999978e-01 3.279640000000000555e+01 1.374505000000000052e+02 2.163014999999999873e+03
1.000000000000000056e-01 1.906059999999999977e-01 3.256595000000000084e+01 1.381910000000000025e+02 2.163335000000000036e+03
1.010000000000000064e-01 1.906370000000000009e-01 3.222534999999999883e+01 1.386649999999999920e+02 2.163574999999999818e+03
1.020000000000000073e-01 1.906589999999999951e-01 3.178075000000000117e+01 1.388859999999999957e+02 2.163750000000000000e+03
1.030000000000000082e-01 1.906714999999999938e-01 3.124074999999999847e+01 1.388750000000000000e+02 2.163845000000000255e+03
1.040000000000000091e-01 1.906754999999999978e-01 3.061650000000000205e+01 1.386580000000000155e+02 2.163889999999999873e+03
1.050000000000000100e-01 1.906720000000000081e-01 2.992065000000000197e+01 1.382655000000000030e+02 2.163864999999999782e+03
1.059999999999999970e-01 1.906614999999999838e-01 2.916725000000000279e+01 1.377309999999999945e+02 2.163800000000000182e+03
1.069999999999999979e-01 1.906459999999999821e-01 2.837089999999999890e+01 1.370894999999999868e+02 2.163694999999999709e+03
1.079999999999999988e-01 1.906265000000000043e-01 2.754629999999999868e+01 1.363729999999999905e+02 2.163555000000000291e+03
1.089999999999999997e-01 1.906039999999999957e-01 2.670749999999999957e+01 1.356144999999999925e+02 2.163389999999999873e+03
1.100000000000000006e-01 1.905789999999999984e-01 2.586755000000000138e+01 1.348425000000000011e+02 2.163204999999999927e+03
1.110000000000000014e-01 1.905534999999999868e-01 2.503810000000000002e+01 1.340810000000000173e+02 2.163019999999999982e+03
1.120000000000000023e-01 1.905275000000000163e-01 2.422879999999999967e+01 1.333480000000000132e+02 2.162835000000000036e+03
1.130000000000000032e-01 1.905024999999999913e-01 2.344720000000000226e+01 1.326585000000000036e+02 2.162644999999999982e+03
1.140000000000000041e-01 1.904779999999999807e-01 2.269865000000000066e+01 1.320185000000000173e+02 2.162465000000000146e+03
1.150000000000000050e-01 1.904554999999999998e-01 2.198594999999999899e+01 1.314314999999999998e+02 2.162295000000000073e+03
1.160000000000000059e-01 1.904345000000000065e-01 2.130980000000000274e+01 1.308930000000000007e+02 2.162135000000000218e+03
1.170000000000000068e-01 1.904139999999999999e-01 2.066839999999999833e+01 1.303949999999999818e+02 2.161980000000000018e+03
1.180000000000000077e-01 1.903954999999999953e-01 2.005825000000000102e+01 1.299250000000000114e+02 2.161840000000000146e+03
1.190000000000000085e-01 1.903775000000000051e-01 1.947400000000000020e+01 1.294669999999999845e+02 2.161704999999999927e+03
1.200000000000000094e-01 1.903590000000000004e-01 1.890899999999999892e+01 1.290015000000000214e+02 2.161565000000000055e+03
1.209999999999999964e-01 1.903404999999999958e-01 1.835594999999999999e+01 1.285099999999999909e+02 2.161425000000000182e+03
1.219999999999999973e-01 1.903205000000000036e-01 1.780700000000000216e+01 1.279719999999999942e+02 2.161275000000000091e+03
1.229999999999999982e-01 1.902995000000000103e-01 1.725450000000000017e+01 1.273694999999999879e+02 2.161114999999999782e+03
1.239999999999999991e-01 1.902754999999999863e-01 1.669140000000000157e+01 1.266864999999999952e+02 2.160939999999999600e+03
1.250000000000000000e-01 1.902480000000000004e-01 1.611180000000000234e+01 1.259090000000000060e+02 2.160744999999999891e+03
1.260000000000000009e-01 1.902185000000000126e-01 1.551109999999999900e+01 1.250289999999999964e+02 2.160519999999999982e+03
1.270000000000000018e-01 1.901845000000000063e-01 1.488654999999999973e+01 1.240439999999999969e+02 2.160269999999999982e+03
1.280000000000000027e-01 1.901470000000000105e-01 1.423734999999999928e+01 1.229540000000000077e+02 2.159994999999999891e+03
1.290000000000000036e-01 1.901054999999999828e-01 1.356475000000000009e+01 1.217675000000000125e+02 2.159690000000000055e+03
1.300000000000000044e-01 1.900609999999999800e-01 1.287209999999999965e+01 1.204950000000000045e+02 2.159364999999999782e+03
1.310000000000000053e-01 1.900135000000000018e-01 1.216460000000000008e+01 1.191554999999999893e+02 2.159015000000000327e+03
1.320000000000000062e-01 1.899635000000000074e-01 1.144939499999999910e+01 1.177690000000000055e+02 2.158650000000000091e+03
1.330000000000000071e-01 1.899124999999999841e-01 1.073465000000000025e+01 1.163599999999999994e+02 2.158269999999999982e+03
1.340000000000000080e-01 1.898604999999999876e-01 1.002963500000000074e+01 1.149540000000000077e+02 2.157890000000000327e+03
1.350000000000000089e-01 1.898084999999999911e-01 9.343925000000000480e+00 1.135769999999999982e+02 2.157505000000000109e+03
1.360000000000000098e-01 1.897570000000000090e-01 8.687134999999999607e+00 1.122540000000000049e+02 2.157130000000000109e+03
1.370000000000000107e-01 1.897085000000000021e-01 8.068274999999999864e+00 1.110090000000000003e+02 2.156764999999999873e+03
1.380000000000000115e-01 1.896614999999999829e-01 7.495449999999999946e+00 1.098615000000000066e+02 2.156425000000000182e+03
1.390000000000000124e-01 1.896185000000000231e-01 6.975400000000000489e+00 1.088275000000000006e+02 2.156099999999999909e+03
1.400000000000000133e-01 1.895795000000000119e-01 6.513320000000000221e+00 1.079184999999999945e+02 2.155809999999999945e+03
1.410000000000000142e-01 1.895450000000000190e-01 6.112684999999999924e+00 1.071414999999999935e+02 2.155550000000000182e+03
1.420000000000000151e-01 1.895155000000000034e-01 5.775174999999999947e+00 1.064979999999999905e+02 2.155324999999999818e+03
1.430000000000000160e-01 1.894899999999999918e-01 5.500725000000000087e+00 1.059865000000000066e+02 2.155135000000000218e+03
1.440000000000000169e-01 1.894689999999999985e-01 5.287644999999999484e+00 1.056004999999999967e+02 2.154980000000000018e+03
1.450000000000000178e-01 1.894534999999999969e-01 5.132775000000000531e+00 1.053305000000000007e+02 2.154850000000000364e+03
1.459999999999999909e-01 1.894409999999999983e-01 5.031710000000000349e+00 1.051649999999999920e+02 2.154760000000000218e+03
1.469999999999999918e-01 1.894329999999999903e-01 4.979045000000000165e+00 1.050894999999999868e+02 2.154694999999999709e+03
1.479999999999999927e-01 1.894279999999999853e-01 4.968600000000000350e+00 1.050904999999999916e+02 2.154650000000000091e+03
1.489999999999999936e-01 1.894259999999999833e-01 4.993724999999999525e+00 1.051500000000000057e+02 2.154630000000000109e+03
1.499999999999999944e-01 1.894259999999999833e-01 5.047480000000000189e+00 1.052545000000000073e+02 2.154630000000000109e+03
1.509999999999999953e-01 1.894279999999999853e-01 5.122930000000000206e+00 1.053880000000000052e+02 2.154640000000000327e+03
1.519999999999999962e-01 1.894310000000000160e-01 5.213305000000000078e+00 1.055370000000000061e+02 2.154659999999999854e+03
1.529999999999999971e-01 1.894345000000000057e-01 5.312205000000000510e+00 1.056885000000000048e+02 2.154685000000000400e+03
1.539999999999999980e-01 1.894385000000000097e-01 5.413809999999999789e+00 1.058315000000000055e+02 2.154710000000000036e+03
1.549999999999999989e-01 1.894425000000000137e-01 5.512940000000000396e+00 1.059559999999999889e+02 2.154739999999999782e+03
1.559999999999999998e-01 1.894460000000000033e-01 5.605245000000000033e+00 1.060550000000000068e+02 2.154764999999999873e+03
1.570000000000000007e-01 1.894489999999999785e-01 5.687234999999999374e+00 1.061230000000000047e+02 2.154784999999999854e+03
1.580000000000000016e-01 1.894504999999999939e-01 5.756334999999999980e+00 1.061574999999999989e+02 2.154800000000000182e+03
1.590000000000000024e-01 1.894509999999999805e-01 5.810900000000000176e+00 1.061569999999999965e+02 2.154805000000000291e+03
