# t [s], A [cm^2], U [cm/s], P [cPa], c [cm/s]
1.000000000000000021e-03 1.386824999999999863e-01 2.044314999999999882e-01 9.218035000000000423e+01 1.868730000000000018e+03
2.000000000000000042e-03 1.386640000000000095e-01 1.496754499999999988e+00 8.962019999999999698e+01 1.868539999999999964e+03
3.000000000000000062e-03 1.385890000000000177e-01 3.115045499999999912e+00 8.624184999999999945e+01 1.867780000000000200e+03
4.000000000000000083e-03 1.384724999999999984e-01 4.922597650000000158e+00 8.235945000000000960e+01 1.866639999999999873e+03
5.000000000000000104e-03 1.383349999999999858e-01 6.875294999999999490e+00 7.857419999999999050e+01 1.865299999999999955e+03
6.000000000000000125e-03 1.381930000000000103e-01 8.895229999999999748e+00 7.526104999999999734e+01 1.863924999999999955e+03
7.000000000000000146e-03 1.380545000000000244e-01 1.085326500000000038e+01 7.246059999999999945e+01 1.862599999999999909e+03
8.000000000000000167e-03 1.379225000000000034e-01 1.262954500000000024e+01 7.001024999999999920e+01 1.861355000000000018e+03
9.000000000000001055e-03 1.377990000000000048e-01 1.418162999999999840e+01 6.779415000000000191e+01 1.860204999999999927e+03
1.000000000000000194e-02 1.376864999999999895e-01 1.552674999999999983e+01 6.582784999999999798e+01 1.859174999999999955e+03
1.099999999999999936e-02 1.375875000000000015e-01 1.668655000000000044e+01 6.415309999999999491e+01 1.858275000000000091e+03
1.200000000000000025e-02 1.375029999999999863e-01 1.767105000000000103e+01 6.276685000000000514e+01 1.857514999999999873e+03
1.300000000000000114e-02 1.374305000000000110e-01 1.848610000000000042e+01 6.163325000000000387e+01 1.856875000000000000e+03
1.400000000000000203e-02 1.373705000000000065e-01 1.913469999999999871e+01 6.069880000000000564e+01 1.856340000000000146e+03
1.499999999999999944e-02 1.373195000000000110e-01 1.961909999999999954e+01 5.989685000000000059e+01 1.855900000000000091e+03
1.600000000000000033e-02 1.372765000000000235e-01 1.995579999999999998e+01 5.917950000000000443e+01 1.855529999999999973e+03
1.700000000000000122e-02 1.372400000000000009e-01 2.019125000000000014e+01 5.856900000000000261e+01 1.855224999999999909e+03
1.800000000000000211e-02 1.372114999999999863e-01 2.040044999999999931e+01 5.817895000000000039e+01 1.854994999999999891e+03
1.900000000000000300e-02 1.371959999999999846e-01 2.066434999999999889e+01 5.817614999999999981e+01 1.854869999999999891e+03
2.000000000000000042e-02 1.371959999999999846e-01 2.103974999999999795e+01 5.870104999999999507e+01 1.854875000000000000e+03
2.100000000000000130e-02 1.372145000000000170e-01 2.153760000000000119e+01 5.979295000000000471e+01 1.855049999999999955e+03
2.200000000000000219e-02 1.372495000000000243e-01 2.212024999999999864e+01 6.135709999999999553e+01 1.855369999999999891e+03
2.299999999999999961e-02 1.372980000000000034e-01 2.271564999999999657e+01 6.318495000000000061e+01 1.855809999999999945e+03
2.400000000000000050e-02 1.373524999999999885e-01 2.324080000000000013e+01 6.501205000000000211e+01 1.856315000000000055e+03
2.500000000000000139e-02 1.374070000000000014e-01 2.362555000000000049e+01 6.658885000000000787e+01 1.856820000000000164e+03
2.600000000000000228e-02 1.374549999999999939e-01 2.382910000000000039e+01 6.774004999999999654e+01 1.857275000000000091e+03
2.700000000000000316e-02 1.374925000000000175e-01 2.384595000000000198e+01 6.839624999999999488e+01 1.857630000000000109e+03
2.800000000000000058e-02 1.375175000000000147e-01 2.370129999999999981e+01 6.859329999999999927e+01 1.857880000000000109e+03
2.900000000000000147e-02 1.375315000000000010e-01 2.343864999999999910e+01 6.844355000000000189e+01 1.858025000000000091e+03
3.000000000000000236e-02 1.375369999999999926e-01 2.310510000000000019e+01 6.809189999999999543e+01 1.858085000000000036e+03
3.099999999999999978e-02 1.375355000000000050e-01 2.273760000000000048e+01 6.767044999999998822e+01 1.858085000000000036e+03
3.200000000000000067e-02 1.375315000000000010e-01 2.235575000000000045e+01 6.726599999999999113e+01 1.858049999999999955e+03
3.300000000000000155e-02 1.375254999999999950e-01 2.196039999999999992e+01 6.690620000000001255e+01 1.858005000000000109e+03
3.400000000000000244e-02 1.375184999999999880e-01 2.153835000000000122e+01 6.656600000000000250e+01 1.857944999999999936e+03
3.500000000000000333e-02 1.375095000000000067e-01 2.107114999999999938e+01 6.618834999999999980e+01 1.857860000000000127e+03
3.600000000000000422e-02 1.374974999999999947e-01 2.054415000000000191e+01 6.571240000000000236e+01 1.857759999999999991e+03
3.700000000000000511e-02 1.374815000000000065e-01 1.995429999999999993e+01 6.510004999999999598e+01 1.857619999999999891e+03
3.799999999999999906e-02 1.374609999999999999e-01 1.931490000000000151e+01 6.435460000000000491e+01 1.857440000000000055e+03
3.899999999999999994e-02 1.374370000000000036e-01 1.865480000000000160e+01 6.352694999999999936e+01 1.857224999999999909e+03
4.000000000000000083e-02 1.374114999999999920e-01 1.801474999999999937e+01 6.270844999999999914e+01 1.857000000000000000e+03
4.100000000000000172e-02 1.373865000000000225e-01 1.743939999999999912e+01 6.201269999999999527e+01 1.856775000000000091e+03
4.200000000000000261e-02 1.373665000000000025e-01 1.696914999999999907e+01 6.155140000000000100e+01 1.856585000000000036e+03
4.300000000000000350e-02 1.373535000000000172e-01 1.663204999999999956e+01 6.140999999999999659e+01 1.856460000000000036e+03
4.400000000000000439e-02 1.373495000000000132e-01 1.643864999999999910e+01 6.162944999999999851e+01 1.856425000000000182e+03
4.499999999999999833e-02 1.373560000000000059e-01 1.638085000000000235e+01 6.219740000000000180e+01 1.856474999999999909e+03
4.599999999999999922e-02 1.373729999999999951e-01 1.643310000000000315e+01 6.305039999999999623e+01 1.856615000000000009e+03
4.700000000000000011e-02 1.373975000000000057e-01 1.655709999999999837e+01 6.408465000000001055e+01 1.856825000000000045e+03
4.800000000000000100e-02 1.374274999999999802e-01 1.670819999999999794e+01 6.517355000000000587e+01 1.857095000000000027e+03
4.900000000000000189e-02 1.374589999999999979e-01 1.684105000000000274e+01 6.618670000000000186e+01 1.857375000000000000e+03
5.000000000000000278e-02 1.374890000000000001e-01 1.691559999999999775e+01 6.700704999999999245e+01 1.857639999999999873e+03
5.100000000000000366e-02 1.375129999999999963e-01 1.690010000000000190e+01 6.754429999999999268e+01 1.857869999999999891e+03
5.200000000000000455e-02 1.375299999999999856e-01 1.677380000000000138e+01 6.774155000000000371e+01 1.858025000000000091e+03
5.300000000000000544e-02 1.375365000000000060e-01 1.652655000000000030e+01 6.757685000000000741e+01 1.858090000000000146e+03
5.399999999999999939e-02 1.375335000000000030e-01 1.615765000000000029e+01 6.705904999999999916e+01 1.858065000000000055e+03
5.500000000000000028e-02 1.375190000000000023e-01 1.567379999999999995e+01 6.622075000000000955e+01 1.857940000000000055e+03
5.600000000000000117e-02 1.374944999999999917e-01 1.508670000000000044e+01 6.510960000000000036e+01 1.857724999999999909e+03
5.700000000000000205e-02 1.374609999999999999e-01 1.441104999999999947e+01 6.378050000000000352e+01 1.857425000000000182e+03
5.800000000000000294e-02 1.374199999999999866e-01 1.366280000000000072e+01 6.228900000000000148e+01 1.857055000000000064e+03
5.900000000000000383e-02 1.373725000000000085e-01 1.285875000000000057e+01 6.068784999999999741e+01 1.856625000000000000e+03
6.000000000000000472e-02 1.373209999999999986e-01 1.201586999999999961e+01 5.902499999999999858e+01 1.856159999999999854e+03
6.099999999999999867e-02 1.372654999999999847e-01 1.115183000000000035e+01 5.734489999999999554e+01 1.855664999999999964e+03
6.199999999999999956e-02 1.372095000000000120e-01 1.028537999999999997e+01 5.568965000000000032e+01 1.855144999999999982e+03
6.300000000000000044e-02 1.371525000000000105e-01 9.436804999999999666e+00 5.410170000000000101e+01 1.854634999999999991e+03
6.400000000000000133e-02 1.370969999999999966e-01 8.628074999999999051e+00 5.262524999999999409e+01 1.854125000000000000e+03
6.500000000000000222e-02 1.370450000000000002e-01 7.882874999999999410e+00 5.130755000000000621e+01 1.853655000000000200e+03
6.600000000000000311e-02 1.369980000000000087e-01 7.225934999999999775e+00 5.019880000000000564e+01 1.853220000000000027e+03
6.700000000000000400e-02 1.369569999999999954e-01 6.682424999999999393e+00 4.935030000000000427e+01 1.852845000000000027e+03
6.800000000000000488e-02 1.369249999999999912e-01 6.276640000000000441e+00 4.881269999999999953e+01 1.852545000000000073e+03
6.900000000000000577e-02 1.369024999999999825e-01 6.030945000000000000e+00 4.863315000000000055e+01 1.852329999999999927e+03
7.000000000000000666e-02 1.368920000000000137e-01 5.964520000000000266e+00 4.885190000000000055e+01 1.852224999999999909e+03
7.100000000000000755e-02 1.368945000000000023e-01 6.092330000000000467e+00 4.950005000000000166e+01 1.852240000000000009e+03
7.200000000000000844e-02 1.369115000000000193e-01 6.424324999999999619e+00 5.059694999999999965e+01 1.852380000000000109e+03
7.300000000000000933e-02 1.369440000000000102e-01 6.964909999999999712e+00 5.214915000000000589e+01 1.852659999999999854e+03
7.399999999999999634e-02 1.369914999999999883e-01 7.712825000000000486e+00 5.415005000000000024e+01 1.853075000000000045e+03
7.499999999999999722e-02 1.370540000000000092e-01 8.661260000000000403e+00 5.657994999999999663e+01 1.853634999999999991e+03
7.599999999999999811e-02 1.371320000000000039e-01 9.798455000000000581e+00 5.940779999999999461e+01 1.854329999999999927e+03
7.699999999999999900e-02 1.372240000000000126e-01 1.110810999999999993e+01 6.259304999999999808e+01 1.855150000000000091e+03
7.799999999999999989e-02 1.373284999999999922e-01 1.257067999999999941e+01 6.608795000000000641e+01 1.856094999999999800e+03
7.900000000000000078e-02 1.374444999999999972e-01 1.416394999999999982e+01 6.984040000000000248e+01 1.857144999999999982e+03
8.000000000000000167e-02 1.375709999999999988e-01 1.586444999999999972e+01 7.379650000000000887e+01 1.858285000000000082e+03
8.100000000000000255e-02 1.377049999999999941e-01 1.764809999999999945e+01 7.790324999999999989e+01 1.859509999999999991e+03
8.200000000000000344e-02 1.378459999999999963e-01 1.949164999999999992e+01 8.211109999999999332e+01 1.860789999999999964e+03
8.300000000000000433e-02 1.379920000000000035e-01 2.137304999999999922e+01 8.637555000000000405e+01 1.862125000000000000e+03
8.400000000000000522e-02 1.381410000000000138e-01 2.327230000000000132e+01 9.065895000000000437e+01 1.863494999999999891e+03
8.500000000000000611e-02 1.382924999999999849e-01 2.517214999999999847e+01 9.493100000000001160e+01 1.864884999999999991e+03
8.600000000000000699e-02 1.384444999999999981e-01 2.705799999999999983e+01 9.917015000000000668e+01 1.866289999999999964e+03
8.700000000000000788e-02 1.385965000000000114e-01 2.891814999999999714e+01 1.033608499999999992e+02 1.867699999999999818e+03
8.800000000000000877e-02 1.387484999999999968e-01 3.074360000000000070e+01 1.074953500000000020e+02 1.869110000000000127e+03
8.899999999999999578e-02 1.388995000000000091e-01 3.252795000000000414e+01 1.115715000000000003e+02 1.870505000000000109e+03
8.999999999999999667e-02 1.390494999999999925e-01 3.426650000000000063e+01 1.155904999999999916e+02 1.871900000000000091e+03
9.099999999999999756e-02 1.391979999999999884e-01 3.595635000000000048e+01 1.195564999999999998e+02 1.873284999999999854e+03
9.199999999999999845e-02 1.393449999999999966e-01 3.759539999999999793e+01 1.234735000000000014e+02 1.874659999999999854e+03
9.299999999999999933e-02 1.394905000000000173e-01 3.918229999999999791e+01 1.273460000000000036e+02 1.876025000000000091e+03
9.400000000000000022e-02 1.396350000000000091e-01 4.071569999999999823e+01 1.311770000000000209e+02 1.877380000000000109e+03
9.500000000000000111e-02 1.397785000000000000e-01 4.219409999999999883e+01 1.349664999999999964e+02 1.878724999999999909e+03
9.600000000000000200e-02 1.399199999999999888e-01 4.361565000000000225e+01 1.387110000000000127e+02 1.880055000000000064e+03
9.700000000000000289e-02 1.400605000000000044e-01 4.497814999999999941e+01 1.424050000000000011e+02 1.881375000000000000e+03
9.800000000000000377e-02 1.401990000000000181e-01 4.627839999999999776e+01 1.460399999999999920e+02 1.882690000000000055e+03
9.900000000000000466e-02 1.403360000000000163e-01 4.751315000000000310e+01 1.496059999999999945e+02 1.883980000000000018e+03
1.000000000000000056e-01 1.404699999999999838e-01 4.867825000000000557e+01 1.530879999999999939e+02 1.885244999999999891e+03
1.010000000000000064e-01 1.406014999999999904e-01 4.976940000000000452e+01 1.564730000000000132e+02 1.886490000000000009e+03
1.020000000000000073e-01 1.407299999999999940e-01 5.078194999999999482e+01 1.597454999999999927e+02 1.887704999999999927e+03
1.030000000000000082e-01 1.408535000000000204e-01 5.171115000000000350e+01 1.628890000000000100e+02 1.888884999999999991e+03
1.040000000000000091e-01 1.409739999999999882e-01 5.255225000000000080e+01 1.658884999999999934e+02 1.890025000000000091e+03
1.050000000000000100e-01 1.410890000000000200e-01 5.330049999999999955e+01 1.687289999999999850e+02 1.891119999999999891e+03
1.059999999999999970e-01 1.411979999999999902e-01 5.395170000000000243e+01 1.713960000000000150e+02 1.892159999999999854e+03
1.069999999999999979e-01 1.413014999999999965e-01 5.450189999999999912e+01 1.738770000000000095e+02 1.893154999999999973e+03
1.079999999999999988e-01 1.413989999999999969e-01 5.494790000000000418e+01 1.761599999999999966e+02 1.894079999999999927e+03
1.089999999999999997e-01 1.414885000000000170e-01 5.528710000000000235e+01 1.782359999999999900e+02 1.894949999999999818e+03
1.100000000000000006e-01 1.415719999999999756e-01 5.551794999999999902e+01 1.800975000000000250e+02 1.895744999999999891e+03
1.110000000000000014e-01 1.416469999999999951e-01 5.564005000000000223e+01 1.817415000000000020e+02 1.896470000000000027e+03
1.120000000000000023e-01 1.417150000000000076e-01 5.565404999999999802e+01 1.831649999999999920e+02 1.897125000000000000e+03
1.130000000000000032e-01 1.417749999999999844e-01 5.556199999999999761e+01 1.843704999999999927e+02 1.897704999999999927e+03
1.140000000000000041e-01 1.418274999999999952e-01 5.536730000000000018e+01 1.853619999999999948e+02 1.898214999999999918e+03
1.150000000000000050e-01 1.418719999999999981e-01 5.507474999999999454e+01 1.861480000000000246e+02 1.898644999999999982e+03
1.160000000000000059e-01 1.419084999999999930e-01 5.469039999999999679e+01 1.867395000000000209e+02 1.899015000000000100e+03
1.170000000000000068e-01 1.419390000000000096e-01 5.422159999999999513e+01 1.871500000000000057e+02 1.899309999999999945e+03
1.180000000000000077e-01 1.419619999999999771e-01 5.367665000000000219e+01 1.873960000000000150e+02 1.899539999999999964e+03
1.190000000000000085e-01 1.419789999999999941e-01 5.306454999999999700e+01 1.874950000000000045e+02 1.899710000000000036e+03
1.200000000000000094e-01 1.419905000000000195e-01 5.239504999999999768e+01 1.874660000000000082e+02 1.899829999999999927e+03
1.209999999999999964e-01 1.419969999999999843e-01 5.167794999999999561e+01 1.873285000000000196e+02 1.899900000000000091e+03
1.219999999999999973e-01 1.419989999999999863e-01 5.092300000000000182e+01 1.871014999999999873e+02 1.899925000000000182e+03
1.229999999999999982e-01 1.419974999999999987e-01 5.013985000000000269e+01 1.868034999999999854e+02 1.899914999999999964e+03
1.239999999999999991e-01 1.419924999999999937e-01 4.933724999999999739e+01 1.864504999999999768e+02 1.899875000000000000e+03
1.250000000000000000e-01 1.419854999999999867e-01 4.852339999999999520e+01 1.860579999999999927e+02 1.899809999999999945e+03
1.260000000000000009e-01 1.419759999999999911e-01 4.770544999999999902e+01 1.856384999999999934e+02 1.899724999999999909e+03
1.270000000000000018e-01 1.419644999999999935e-01 4.688929999999999865e+01 1.852019999999999982e+02 1.899619999999999891e+03
1.280000000000000027e-01 1.419519999999999949e-01 4.607994999999999663e+01 1.847554999999999836e+02 1.899505000000000109e+03
1.290000000000000036e-01 1.419390000000000096e-01 4.528079999999999927e+01 1.843034999999999854e+02 1.899375000000000000e+03
1.300000000000000044e-01 1.419249999999999956e-01 4.449434999999999718e+01 1.838485000000000014e+02 1.899240000000000009e+03
1.310000000000000053e-01 1.419104999999999950e-01 4.372175000000000011e+01 1.833905000000000030e+02 1.899105000000000018e+03
1.320000000000000062e-01 1.418955000000000077e-01 4.296309999999999718e+01 1.829270000000000209e+02 1.898960000000000036e+03
1.330000000000000071e-01 1.418800000000000061e-01 4.221765000000000612e+01 1.824534999999999911e+02 1.898809999999999945e+03
1.340000000000000080e-01 1.418634999999999757e-01 4.148375000000000057e+01 1.819660000000000082e+02 1.898650000000000091e+03
1.350000000000000089e-01 1.418464999999999865e-01 4.075900000000000034e+01 1.814574999999999818e+02 1.898490000000000009e+03
1.360000000000000098e-01 1.418285000000000240e-01 4.004075000000000273e+01 1.809209999999999923e+02 1.898315000000000055e+03
1.370000000000000107e-01 1.418099999999999916e-01 3.932585000000000264e+01 1.803499999999999943e+02 1.898134999999999991e+03
1.380000000000000115e-01 1.417895000000000127e-01 3.861110000000000042e+01 1.797364999999999782e+02 1.897944999999999936e+03
1.390000000000000124e-01 1.417674999999999907e-01 3.789329999999999643e+01 1.790745000000000005e+02 1.897730000000000018e+03
1.400000000000000133e-01 1.417440000000000089e-01 3.716955000000000098e+01 1.783594999999999970e+02 1.897505000000000109e+03
1.410000000000000142e-01 1.417180000000000106e-01 3.643704999999999927e+01 1.775844999999999914e+02 1.897265000000000100e+03
1.420000000000000151e-01 1.416910000000000114e-01 3.569379999999999598e+01 1.767489999999999952e+02 1.897005000000000109e+03
1.430000000000000160e-01 1.416609999999999814e-01 3.493805000000000405e+01 1.758485000000000014e+02 1.896719999999999800e+03
1.440000000000000169e-01 1.416295000000000193e-01 3.416904999999999859e+01 1.748845000000000027e+02 1.896414999999999964e+03
1.450000000000000178e-01 1.415954999999999853e-01 3.338660000000000139e+01 1.738575000000000159e+02 1.896095000000000027e+03
1.459999999999999909e-01 1.415585000000000038e-01 3.259120000000000061e+01 1.727715000000000032e+02 1.895750000000000000e+03
1.469999999999999918e-01 1.415204999999999935e-01 3.178429999999999822e+01 1.716310000000000002e+02 1.895384999999999991e+03
1.479999999999999927e-01 1.414799999999999947e-01 3.096804999999999808e+01 1.704424999999999955e+02 1.895005000000000109e+03
1.489999999999999936e-01 1.414380000000000082e-01 3.014539999999999864e+01 1.692144999999999868e+02 1.894605000000000018e+03
1.499999999999999944e-01 1.413944999999999785e-01 2.931974999999999909e+01 1.679560000000000173e+02 1.894190000000000055e+03
1.509999999999999953e-01 1.413495000000000168e-01 2.849540000000000006e+01 1.666779999999999973e+02 1.893769999999999982e+03
1.519999999999999962e-01 1.413039999999999852e-01 2.767674999999999841e+01 1.653915000000000077e+02 1.893335000000000036e+03
1.529999999999999971e-01 1.412579999999999947e-01 2.686870000000000047e+01 1.641075000000000159e+02 1.892900000000000091e+03
1.539999999999999980e-01 1.412114999999999898e-01 2.607620000000000005e+01 1.628389999999999986e+02 1.892460000000000036e+03
1.549999999999999989e-01 1.411654999999999993e-01 2.530424999999999969e+01 1.615964999999999918e+02 1.892029999999999973e+03
1.559999999999999998e-01 1.411205000000000098e-01 2.455760000000000076e+01 1.603915000000000077e+02 1.891599999999999909e+03
1.570000000000000007e-01 1.410764999999999936e-01 2.384060000000000201e+01 1.592339999999999804e+02 1.891180000000000064e+03
1.580000000000000016e-01 1.410335000000000061e-01 2.315735000000000099e+01 1.581320000000000050e+02 1.890769999999999982e+03
1.590000000000000024e-01 1.409924999999999928e-01 2.251109999999999900e+01 1.570930000000000177e+02 1.890380000000000109e+03
