# t [s], A [cm^2], U [cm/s], P [cPa], c [cm/s]
1.000000000000000021e-03 1.184510000000000007e-01 4.385884999999999923e-01 1.023752000000000066e+02 1.928154999999999973e+03
2.000000000000000042e-03 1.184230000000000005e-01 2.154807499999999987e+00 9.879310000000000969e+01 1.927719999999999800e+03
3.000000000000000062e-03 1.183355000000000101e-01 4.206169999999999298e+00 9.416104999999998881e+01 1.926434999999999945e+03
4.000000000000000083e-03 1.182109999999999966e-01 6.468216500000000480e+00 8.928040000000000020e+01 1.924644999999999982e+03
5.000000000000000104e-03 1.180724999999999969e-01 8.867770000000000152e+00 8.496500000000000341e+01 1.922674999999999955e+03
6.000000000000000125e-03 1.179359999999999853e-01 1.124410500000000113e+01 8.145420000000000016e+01 1.920740000000000009e+03
7.000000000000000146e-03 1.178049999999999931e-01 1.341039999999999921e+01 7.851609999999999445e+01 1.918925000000000182e+03
8.000000000000000167e-03 1.176834999999999964e-01 1.528328000000000131e+01 7.590489999999999782e+01 1.917255000000000109e+03
9.000000000000001055e-03 1.175724999999999965e-01 1.688654999999999973e+01 7.361254999999999882e+01 1.915769999999999982e+03
1.000000000000000194e-02 1.174769999999999981e-01 1.825329999999999941e+01 7.169519999999999982e+01 1.914480000000000018e+03
1.099999999999999936e-02 1.173944999999999989e-01 1.939639999999999986e+01 7.013089999999999691e+01 1.913389999999999873e+03
1.200000000000000025e-02 1.173249999999999987e-01 2.032594999999999885e+01 6.885984999999999445e+01 1.912490000000000009e+03
1.300000000000000114e-02 1.172679999999999972e-01 2.105075000000000074e+01 6.781255000000000166e+01 1.911750000000000000e+03
1.400000000000000203e-02 1.172199999999999909e-01 2.157889999999999731e+01 6.690670000000000073e+01 1.911139999999999873e+03
1.499999999999999944e-02 1.171794999999999920e-01 2.194375000000000142e+01 6.610339999999999350e+01 1.910634999999999991e+03
1.600000000000000033e-02 1.171460000000000001e-01 2.222764999999999702e+01 6.549524999999999864e+01 1.910230000000000018e+03
1.700000000000000122e-02 1.171240000000000059e-01 2.254809999999999803e+01 6.531319999999999482e+01 1.909960000000000036e+03
1.800000000000000211e-02 1.171179999999999999e-01 2.300854999999999961e+01 6.581510000000000105e+01 1.909894999999999982e+03
1.900000000000000300e-02 1.171309999999999990e-01 2.364825000000000088e+01 6.712614999999999554e+01 1.910079999999999927e+03
2.000000000000000042e-02 1.171635000000000038e-01 2.442115000000000080e+01 6.913835000000000264e+01 1.910519999999999982e+03
2.100000000000000130e-02 1.172120000000000106e-01 2.521385000000000076e+01 7.152074999999999250e+01 1.911164999999999964e+03
2.200000000000000219e-02 1.172674999999999967e-01 2.588769999999999882e+01 7.382515000000000782e+01 1.911914999999999964e+03
2.299999999999999961e-02 1.173204999999999942e-01 2.632580000000000098e+01 7.563134999999999764e+01 1.912634999999999991e+03
2.400000000000000050e-02 1.173634999999999956e-01 2.646659999999999968e+01 7.666955000000000098e+01 1.913235000000000127e+03
2.500000000000000139e-02 1.173915000000000097e-01 2.631499999999999773e+01 7.688124999999999432e+01 1.913635000000000218e+03
2.600000000000000228e-02 1.174034999999999940e-01 2.593070000000000164e+01 7.640550000000000352e+01 1.913825000000000045e+03
2.700000000000000316e-02 1.174014999999999920e-01 2.540189999999999770e+01 7.550620000000000687e+01 1.913825000000000045e+03
2.800000000000000058e-02 1.173909999999999954e-01 2.481479999999999819e+01 7.447284999999999400e+01 1.913694999999999936e+03
2.900000000000000147e-02 1.173754999999999937e-01 2.422990000000000066e+01 7.353204999999999814e+01 1.913509999999999991e+03
3.000000000000000236e-02 1.173605000000000065e-01 2.367139999999999844e+01 7.279579999999999984e+01 1.913315000000000055e+03
3.099999999999999978e-02 1.173470000000000069e-01 2.312989999999999924e+01 7.225559999999998695e+01 1.913134999999999991e+03
3.200000000000000067e-02 1.173349999999999949e-01 2.257620000000000005e+01 7.181534999999999513e+01 1.912974999999999909e+03
3.300000000000000155e-02 1.173224999999999962e-01 2.197804999999999964e+01 7.134604999999999109e+01 1.912815000000000055e+03
3.400000000000000244e-02 1.173079999999999956e-01 2.131685000000000230e+01 7.074254999999999427e+01 1.912625000000000000e+03
3.500000000000000333e-02 1.172905000000000059e-01 2.059819999999999851e+01 6.996659999999999968e+01 1.912400000000000091e+03
3.600000000000000422e-02 1.172690000000000121e-01 1.985455000000000325e+01 6.906524999999999181e+01 1.912119999999999891e+03
3.700000000000000511e-02 1.172465000000000035e-01 1.913935000000000031e+01 6.816204999999999359e+01 1.911819999999999936e+03
3.799999999999999906e-02 1.172245000000000092e-01 1.851520000000000010e+01 6.742515000000000214e+01 1.911534999999999854e+03
3.899999999999999994e-02 1.172070000000000056e-01 1.803880000000000194e+01 6.702214999999999634e+01 1.911299999999999955e+03
4.000000000000000083e-02 1.171984999999999971e-01 1.774734999999999729e+01 6.707535000000000025e+01 1.911170000000000073e+03
4.100000000000000172e-02 1.171994999999999981e-01 1.764954999999999785e+01 6.762860000000000582e+01 1.911184999999999945e+03
4.200000000000000261e-02 1.172124999999999972e-01 1.772330000000000183e+01 6.863429999999999609e+01 1.911340000000000146e+03
4.300000000000000350e-02 1.172360000000000069e-01 1.791935000000000144e+01 6.996059999999999945e+01 1.911630000000000109e+03
4.400000000000000439e-02 1.172659999999999952e-01 1.817044999999999888e+01 7.141615000000000180e+01 1.912025000000000091e+03
4.499999999999999833e-02 1.172990000000000005e-01 1.840200000000000102e+01 7.278434999999998922e+01 1.912454999999999927e+03
4.599999999999999922e-02 1.173305000000000042e-01 1.854335000000000022e+01 7.385904999999999632e+01 1.912875000000000000e+03
4.700000000000000011e-02 1.173560000000000020e-01 1.853665000000000163e+01 7.447370000000000800e+01 1.913214999999999918e+03
4.800000000000000100e-02 1.173710000000000031e-01 1.834230000000000160e+01 7.452080000000000837e+01 1.913420000000000073e+03
4.900000000000000189e-02 1.173734999999999917e-01 1.794100000000000250e+01 7.395865000000000578e+01 1.913460000000000036e+03
5.000000000000000278e-02 1.173609999999999931e-01 1.733290000000000219e+01 7.280719999999999459e+01 1.913305000000000064e+03
5.100000000000000366e-02 1.173355000000000092e-01 1.653385000000000105e+01 7.113530000000000086e+01 1.912964999999999918e+03
5.200000000000000455e-02 1.172959999999999975e-01 1.557144999999999868e+01 6.904480000000000928e+01 1.912450000000000045e+03
5.300000000000000544e-02 1.172450000000000020e-01 1.448069999999999879e+01 6.665425000000000466e+01 1.911784999999999854e+03
5.399999999999999939e-02 1.171854999999999980e-01 1.330076999999999998e+01 6.408544999999999447e+01 1.910994999999999891e+03
5.500000000000000028e-02 1.171200000000000019e-01 1.207219500000000068e+01 6.145470000000000255e+01 1.910130000000000109e+03
5.600000000000000117e-02 1.170509999999999884e-01 1.083610999999999969e+01 5.886934999999999718e+01 1.909219999999999800e+03
5.700000000000000205e-02 1.169814999999999883e-01 9.633710000000000662e+00 5.642705000000000126e+01 1.908295000000000073e+03
5.800000000000000294e-02 1.169145000000000045e-01 8.506164999999999310e+00 5.421784999999999854e+01 1.907404999999999973e+03
5.900000000000000383e-02 1.168524999999999980e-01 7.494749999999999801e+00 5.232679999999999865e+01 1.906575000000000045e+03
6.000000000000000472e-02 1.167969999999999980e-01 6.640109999999999957e+00 5.083549999999999613e+01 1.905835000000000036e+03
6.099999999999999867e-02 1.167515000000000081e-01 5.981804999999999595e+00 4.982210000000000605e+01 1.905224999999999909e+03
6.199999999999999956e-02 1.167185000000000028e-01 5.556684999999999874e+00 4.935965000000000202e+01 1.904769999999999982e+03
6.300000000000000044e-02 1.166989999999999972e-01 5.397269999999999790e+00 4.951265000000000072e+01 1.904505000000000109e+03
6.400000000000000133e-02 1.166959999999999942e-01 5.529909999999999215e+00 5.033294999999999675e+01 1.904450000000000045e+03
6.500000000000000222e-02 1.167110000000000092e-01 5.973039999999999239e+00 5.185524999999999807e+01 1.904625000000000000e+03
6.600000000000000311e-02 1.167440000000000005e-01 6.735854999999999926e+00 5.409349999999999881e+01 1.905049999999999955e+03
6.700000000000000400e-02 1.167974999999999985e-01 7.817510000000000403e+00 5.703874999999999318e+01 1.905730000000000018e+03
6.800000000000000488e-02 1.168700000000000017e-01 9.206965000000000288e+00 6.065869999999999607e+01 1.906670000000000073e+03
6.900000000000000577e-02 1.169610000000000094e-01 1.088363000000000014e+01 6.489884999999999593e+01 1.907860000000000127e+03
7.000000000000000666e-02 1.170700000000000074e-01 1.281831500000000013e+01 6.968580000000000041e+01 1.909289999999999964e+03
7.100000000000000755e-02 1.171945000000000070e-01 1.497504999999999953e+01 7.493160000000000309e+01 1.910940000000000055e+03
7.200000000000000844e-02 1.173335000000000072e-01 1.731289999999999907e+01 8.053870000000000573e+01 1.912780000000000200e+03
7.300000000000000933e-02 1.174840000000000051e-01 1.978780000000000072e+01 8.640559999999999263e+01 1.914775000000000091e+03
7.399999999999999634e-02 1.176434999999999981e-01 2.235510000000000019e+01 9.243219999999999459e+01 1.916900000000000091e+03
7.499999999999999722e-02 1.178089999999999971e-01 2.497119999999999962e+01 9.852459999999999241e+01 1.919125000000000000e+03
7.599999999999999811e-02 1.179779999999999995e-01 2.759539999999999793e+01 1.045994000000000028e+02 1.921400000000000091e+03
7.699999999999999900e-02 1.181495000000000045e-01 3.019120000000000203e+01 1.105859999999999985e+02 1.923715000000000146e+03
7.799999999999999989e-02 1.183200000000000085e-01 3.272784999999999656e+01 1.164300000000000068e+02 1.926029999999999973e+03
7.900000000000000078e-02 1.184884999999999966e-01 3.518089999999999407e+01 1.220939999999999941e+02 1.928324999999999818e+03
8.000000000000000167e-02 1.186534999999999951e-01 3.753244999999999720e+01 1.275580000000000069e+02 1.930585000000000036e+03
8.100000000000000255e-02 1.188150000000000039e-01 3.977114999999999867e+01 1.328149999999999977e+02 1.932795000000000073e+03
8.200000000000000344e-02 1.189715000000000078e-01 4.189175000000000182e+01 1.378735000000000070e+02 1.934954999999999927e+03
8.300000000000000433e-02 1.191239999999999938e-01 4.389424999999999955e+01 1.427520000000000095e+02 1.937055000000000064e+03
8.400000000000000522e-02 1.192715000000000025e-01 4.578275000000000006e+01 1.474755000000000109e+02 1.939099999999999909e+03
8.500000000000000611e-02 1.194159999999999944e-01 4.756419999999999959e+01 1.520724999999999909e+02 1.941095000000000027e+03
8.600000000000000699e-02 1.195559999999999956e-01 4.924725000000000108e+01 1.565724999999999909e+02 1.943054999999999836e+03
8.700000000000000788e-02 1.196939999999999948e-01 5.084060000000000201e+01 1.609995000000000118e+02 1.944974999999999909e+03
8.800000000000000877e-02 1.198295000000000055e-01 5.235229999999999961e+01 1.653729999999999905e+02 1.946869999999999891e+03
8.899999999999999578e-02 1.199629999999999863e-01 5.378865000000000407e+01 1.697040000000000077e+02 1.948735000000000127e+03
8.999999999999999667e-02 1.200950000000000073e-01 5.515350000000000108e+01 1.739950000000000045e+02 1.950589999999999918e+03
9.099999999999999756e-02 1.202259999999999995e-01 5.644804999999999495e+01 1.782389999999999759e+02 1.952420000000000073e+03
9.199999999999999845e-02 1.203545000000000031e-01 5.767060000000000031e+01 1.824209999999999923e+02 1.954230000000000018e+03
9.299999999999999933e-02 1.204815000000000053e-01 5.881685000000000230e+01 1.865180000000000007e+02 1.956014999999999873e+03
9.400000000000000022e-02 1.206059999999999910e-01 5.988004999999999711e+01 1.905020000000000095e+02 1.957769999999999982e+03
9.500000000000000111e-02 1.207265000000000005e-01 6.085174999999999557e+01 1.943400000000000034e+02 1.959480000000000018e+03
9.600000000000000200e-02 1.208430000000000060e-01 6.172235000000000582e+01 1.979975000000000023e+02 1.961130000000000109e+03
9.700000000000000289e-02 1.209550000000000070e-01 6.248170000000000357e+01 2.014404999999999859e+02 1.962720000000000027e+03
9.800000000000000377e-02 1.210614999999999886e-01 6.311979999999999791e+01 2.046365000000000123e+02 1.964224999999999909e+03
9.900000000000000466e-02 1.211605000000000043e-01 6.362744999999999607e+01 2.075570000000000164e+02 1.965644999999999982e+03
1.000000000000000056e-01 1.212525000000000130e-01 6.399680000000000035e+01 2.101769999999999925e+02 1.966950000000000045e+03
1.010000000000000064e-01 1.213364999999999999e-01 6.422175000000000011e+01 2.124784999999999968e+02 1.968150000000000091e+03
1.020000000000000073e-01 1.214109999999999912e-01 6.429824999999999591e+01 2.144479999999999791e+02 1.969224999999999909e+03
1.030000000000000082e-01 1.214770000000000016e-01 6.422499999999999432e+01 2.160799999999999841e+02 1.970174999999999955e+03
1.040000000000000091e-01 1.215330000000000021e-01 6.400294999999999845e+01 2.173750000000000000e+02 1.970990000000000009e+03
1.050000000000000100e-01 1.215799999999999936e-01 6.363580000000000325e+01 2.183400000000000034e+02 1.971675000000000182e+03
1.059999999999999970e-01 1.216180000000000039e-01 6.312999999999999545e+01 2.189889999999999759e+02 1.972224999999999909e+03
1.069999999999999979e-01 1.216465000000000046e-01 6.249434999999999718e+01 2.193400000000000034e+02 1.972644999999999982e+03
1.079999999999999988e-01 1.216669999999999974e-01 6.173990000000000578e+01 2.194180000000000064e+02 1.972950000000000045e+03
1.089999999999999997e-01 1.216784999999999950e-01 6.087969999999999970e+01 2.192500000000000000e+02 1.973134999999999991e+03
1.100000000000000006e-01 1.216835000000000000e-01 5.992844999999999800e+01 2.188679999999999950e+02 1.973210000000000036e+03
1.110000000000000014e-01 1.216809999999999975e-01 5.890165000000000362e+01 2.183054999999999950e+02 1.973195000000000164e+03
1.120000000000000023e-01 1.216735000000000039e-01 5.781569999999999965e+01 2.175964999999999918e+02 1.973095000000000027e+03
1.130000000000000032e-01 1.216609999999999914e-01 5.668675000000000352e+01 2.167744999999999891e+02 1.972925000000000182e+03
1.140000000000000041e-01 1.216444999999999887e-01 5.553074999999999761e+01 2.158729999999999905e+02 1.972699999999999818e+03
1.150000000000000050e-01 1.216244999999999965e-01 5.436265000000000214e+01 2.149214999999999804e+02 1.972425000000000182e+03
1.160000000000000059e-01 1.216025000000000023e-01 5.319594999999999629e+01 2.139470000000000027e+02 1.972115000000000009e+03
1.170000000000000068e-01 1.215789999999999926e-01 5.204250000000000398e+01 2.129710000000000036e+02 1.971784999999999854e+03
1.180000000000000077e-01 1.215549999999999964e-01 5.091190000000000282e+01 2.120124999999999886e+02 1.971440000000000055e+03
1.190000000000000085e-01 1.215299999999999991e-01 4.981190000000000140e+01 2.110829999999999984e+02 1.971085000000000036e+03
1.200000000000000094e-01 1.215050000000000019e-01 4.874739999999999895e+01 2.101904999999999859e+02 1.970735000000000127e+03
1.209999999999999964e-01 1.214810000000000056e-01 4.772115000000000151e+01 2.093379999999999939e+02 1.970385000000000218e+03
1.219999999999999973e-01 1.214570000000000094e-01 4.673369999999999891e+01 2.085215000000000032e+02 1.970045000000000073e+03
1.229999999999999982e-01 1.214334999999999998e-01 4.578315000000000623e+01 2.077344999999999970e+02 1.969710000000000036e+03
1.239999999999999991e-01 1.214109999999999912e-01 4.486594999999999800e+01 2.069664999999999964e+02 1.969384999999999991e+03
1.250000000000000000e-01 1.213879999999999959e-01 4.397665000000000646e+01 2.062030000000000030e+02 1.969054999999999836e+03
1.260000000000000009e-01 1.213655000000000012e-01 4.310875000000000057e+01 2.054290000000000020e+02 1.968730000000000018e+03
1.270000000000000018e-01 1.213425000000000059e-01 4.225475000000000136e+01 2.046260000000000048e+02 1.968400000000000091e+03
1.280000000000000027e-01 1.213184999999999958e-01 4.140670000000000073e+01 2.037769999999999868e+02 1.968059999999999945e+03
1.290000000000000036e-01 1.212934999999999985e-01 4.055665000000000475e+01 2.028640000000000043e+02 1.967699999999999818e+03
1.300000000000000044e-01 1.212669999999999998e-01 3.969689999999999941e+01 2.018725000000000023e+02 1.967319999999999936e+03
1.310000000000000053e-01 1.212384999999999990e-01 3.882054999999999723e+01 2.007880000000000109e+02 1.966910000000000082e+03
1.320000000000000062e-01 1.212069999999999953e-01 3.792175000000000296e+01 1.996009999999999991e+02 1.966465000000000146e+03
1.330000000000000071e-01 1.211730000000000029e-01 3.699609999999999843e+01 1.983034999999999854e+02 1.965985000000000127e+03
1.340000000000000080e-01 1.211365000000000081e-01 3.604064999999999941e+01 1.968934999999999889e+02 1.965470000000000027e+03
1.350000000000000089e-01 1.210964999999999958e-01 3.505445000000000277e+01 1.953709999999999809e+02 1.964905000000000200e+03
1.360000000000000098e-01 1.210534999999999944e-01 3.403819999999999624e+01 1.937435000000000116e+02 1.964304999999999836e+03
1.370000000000000107e-01 1.210080000000000044e-01 3.299460000000000548e+01 1.920185000000000173e+02 1.963660000000000082e+03
1.380000000000000115e-01 1.209594999999999976e-01 3.192795000000000272e+01 1.902110000000000127e+02 1.962985000000000127e+03
1.390000000000000124e-01 1.209089999999999887e-01 3.084434999999999860e+01 1.883369999999999891e+02 1.962269999999999982e+03
1.400000000000000133e-01 1.208565000000000056e-01 2.975104999999999933e+01 1.864170000000000016e+02 1.961525000000000091e+03
1.410000000000000142e-01 1.208019999999999927e-01 2.865659999999999741e+01 1.844714999999999918e+02 1.960764999999999873e+03
1.420000000000000151e-01 1.207465000000000066e-01 2.757000000000000028e+01 1.825240000000000009e+02 1.959994999999999891e+03
1.430000000000000160e-01 1.206915000000000071e-01 2.650075000000000003e+01 1.805974999999999966e+02 1.959210000000000036e+03
1.440000000000000169e-01 1.206359999999999932e-01 2.545819999999999794e+01 1.787130000000000223e+02 1.958434999999999945e+03
1.450000000000000178e-01 1.205815000000000081e-01 2.445129999999999981e+01 1.768915000000000077e+02 1.957670000000000073e+03
1.459999999999999909e-01 1.205285000000000106e-01 2.348819999999999908e+01 1.751510000000000105e+02 1.956920000000000073e+03
1.469999999999999918e-01 1.204775000000000013e-01 2.257605000000000217e+01 1.735070000000000050e+02 1.956200000000000045e+03
1.479999999999999927e-01 1.204280000000000073e-01 2.172044999999999959e+01 1.719710000000000036e+02 1.955505000000000109e+03
1.489999999999999936e-01 1.203819999999999890e-01 2.092589999999999861e+01 1.705509999999999877e+02 1.954849999999999909e+03
1.499999999999999944e-01 1.203385000000000149e-01 2.019500000000000028e+01 1.692510000000000048e+02 1.954240000000000009e+03
1.509999999999999953e-01 1.202980000000000022e-01 1.952890000000000015e+01 1.680729999999999791e+02 1.953670000000000073e+03
1.519999999999999962e-01 1.202610000000000068e-01 1.892719999999999914e+01 1.670124999999999886e+02 1.953144999999999982e+03
1.529999999999999971e-01 1.202264999999999862e-01 1.838819999999999766e+01 1.660649999999999977e+02 1.952660000000000082e+03
1.539999999999999980e-01 1.201954999999999968e-01 1.790874999999999773e+01 1.652224999999999966e+02 1.952224999999999909e+03
1.549999999999999989e-01 1.201679999999999970e-01 1.748489999999999966e+01 1.644745000000000061e+02 1.951825000000000045e+03
1.559999999999999998e-01 1.201424999999999993e-01 1.711175000000000068e+01 1.638100000000000023e+02 1.951470000000000027e+03
1.570000000000000007e-01 1.201195000000000040e-01 1.678379999999999939e+01 1.632164999999999964e+02 1.951139999999999873e+03
1.580000000000000016e-01 1.200989999999999974e-01 1.649540000000000006e+01 1.626820000000000164e+02 1.950845000000000027e+03
1.590000000000000024e-01 1.200800000000000062e-01 1.624049999999999727e+01 1.621945000000000050e+02 1.950579999999999927e+03
