# t [s], A [cm^2], U [cm/s], P [cPa], c [cm/s]
1.000000000000000021e-03 2.129159999999999942e-01 9.300045000000001227e-02 1.026569999999999965e+02 2.150284999999999854e+03
2.000000000000000042e-03 2.128780000000000117e-01 1.350877000000000105e+00 9.994729999999999848e+01 2.150014999999999873e+03
3.000000000000000062e-03 2.127525000000000110e-01 3.028548499999999866e+00 9.598175000000000523e+01 2.149179999999999836e+03
4.000000000000000083e-03 2.125674999999999926e-01 4.965021499999999754e+00 9.123050000000000637e+01 2.147974999999999909e+03
5.000000000000000104e-03 2.123565000000000036e-01 7.097164999999999502e+00 8.650584999999999525e+01 2.146614999999999782e+03
6.000000000000000125e-03 2.121454999999999869e-01 9.311740000000000350e+00 8.233124999999999716e+01 2.145269999999999982e+03
7.000000000000000146e-03 2.119455000000000089e-01 1.141813999999999929e+01 7.874895000000000778e+01 2.144014999999999873e+03
8.000000000000000167e-03 2.117580000000000018e-01 1.326007500000000050e+01 7.554834999999999923e+01 2.142855000000000018e+03
9.000000000000001055e-03 2.115879999999999983e-01 1.480968000000000018e+01 7.266745000000000232e+01 2.141829999999999927e+03
1.000000000000000194e-02 2.114399999999999891e-01 1.609874999999999901e+01 7.019055000000000177e+01 2.140940000000000055e+03
1.099999999999999936e-02 2.113160000000000038e-01 1.715299999999999869e+01 6.816840000000000543e+01 2.140210000000000036e+03
1.200000000000000025e-02 2.112160000000000148e-01 1.799174999999999969e+01 6.658880000000000621e+01 2.139625000000000000e+03
1.300000000000000114e-02 2.111375000000000057e-01 1.862545000000000073e+01 6.538939999999999486e+01 2.139175000000000182e+03
1.400000000000000203e-02 2.110759999999999859e-01 1.905275000000000318e+01 6.445114999999999839e+01 2.138824999999999818e+03
1.499999999999999944e-02 2.110255000000000047e-01 1.928855000000000075e+01 6.365979999999999706e+01 2.138545000000000073e+03
1.600000000000000033e-02 2.109860000000000069e-01 1.940129999999999910e+01 6.302870000000000061e+01 2.138335000000000036e+03
1.700000000000000122e-02 2.109624999999999972e-01 1.951180000000000092e+01 6.275195000000000078e+01 2.138210000000000036e+03
1.800000000000000211e-02 2.109634999999999982e-01 1.974465000000000003e+01 6.311309999999999576e+01 2.138225000000000364e+03
1.900000000000000300e-02 2.109949999999999881e-01 2.016870000000000118e+01 6.430955000000000155e+01 2.138414999999999964e+03
2.000000000000000042e-02 2.110579999999999956e-01 2.076520000000000010e+01 6.631425000000000125e+01 2.138795000000000073e+03
2.100000000000000130e-02 2.111449999999999994e-01 2.143884999999999863e+01 6.885360000000000014e+01 2.139309999999999945e+03
2.200000000000000219e-02 2.112424999999999997e-01 2.205904999999999916e+01 7.149854999999999450e+01 2.139909999999999854e+03
2.299999999999999961e-02 2.113369999999999971e-01 2.250965000000000060e+01 7.381235000000000923e+01 2.140489999999999782e+03
2.400000000000000050e-02 2.114155000000000062e-01 2.272489999999999810e+01 7.548489999999999611e+01 2.140980000000000018e+03
2.500000000000000139e-02 2.114715000000000067e-01 2.270210000000000150e+01 7.640675000000000239e+01 2.141340000000000146e+03
2.600000000000000228e-02 2.115039999999999976e-01 2.249089999999999989e+01 7.666639999999999588e+01 2.141565000000000055e+03
2.700000000000000316e-02 2.115190000000000126e-01 2.216680000000000206e+01 7.648304999999999154e+01 2.141670000000000073e+03
2.800000000000000058e-02 2.115215000000000012e-01 2.180004999999999882e+01 7.610880000000000223e+01 2.141690000000000055e+03
2.900000000000000147e-02 2.115190000000000126e-01 2.143240000000000123e+01 7.573654999999999404e+01 2.141680000000000291e+03
3.000000000000000236e-02 2.115144999999999942e-01 2.106700000000000017e+01 7.544469999999999743e+01 2.141654999999999745e+03
3.099999999999999978e-02 2.115090000000000026e-01 2.067414999999999736e+01 7.519075000000000841e+01 2.141619999999999891e+03
3.200000000000000067e-02 2.114989999999999926e-01 2.020774999999999721e+01 7.484794999999999732e+01 2.141565000000000055e+03
3.300000000000000155e-02 2.114810000000000023e-01 1.962715000000000032e+01 7.427025000000000432e+01 2.141460000000000036e+03
3.400000000000000244e-02 2.114510000000000001e-01 1.891700000000000159e+01 7.336015000000000441e+01 2.141289999999999964e+03
3.500000000000000333e-02 2.114095000000000002e-01 1.809854999999999947e+01 7.212004999999999200e+01 2.141045000000000073e+03
3.600000000000000422e-02 2.113579999999999903e-01 1.722994999999999877e+01 7.066995000000000005e+01 2.140739999999999782e+03
3.700000000000000511e-02 2.113030000000000186e-01 1.639379999999999882e+01 6.922525000000000261e+01 2.140409999999999854e+03
3.799999999999999906e-02 2.112535000000000107e-01 1.567774999999999963e+01 6.804380000000000450e+01 2.140110000000000127e+03
3.899999999999999994e-02 2.112179999999999891e-01 1.515279999999999916e+01 6.735850000000000648e+01 2.139890000000000327e+03
4.000000000000000083e-02 2.112025000000000152e-01 1.485709999999999908e+01 6.731749999999999545e+01 2.139779999999999745e+03
4.100000000000000172e-02 2.112109999999999821e-01 1.478855000000000075e+01 6.794835000000000491e+01 2.139815000000000055e+03
4.200000000000000261e-02 2.112414999999999987e-01 1.490739999999999910e+01 6.915469999999999118e+01 2.139985000000000127e+03
4.300000000000000350e-02 2.112900000000000056e-01 1.514720000000000155e+01 7.074170000000000869e+01 2.140260000000000218e+03
4.400000000000000439e-02 2.113480000000000081e-01 1.542885000000000062e+01 7.245985000000000298e+01 2.140610000000000127e+03
4.499999999999999833e-02 2.114084999999999992e-01 1.567595000000000027e+01 7.405545000000000755e+01 2.140970000000000255e+03
4.599999999999999922e-02 2.114619999999999833e-01 1.582590000000000074e+01 7.531380000000000052e+01 2.141295000000000073e+03
4.700000000000000011e-02 2.115020000000000233e-01 1.583715000000000117e+01 7.608814999999999884e+01 2.141545000000000073e+03
4.800000000000000100e-02 2.115249999999999908e-01 1.569014999999999915e+01 7.631075000000001296e+01 2.141695000000000164e+03
4.900000000000000189e-02 2.115275000000000072e-01 1.538455000000000084e+01 7.598605000000000587e+01 2.141720000000000255e+03
5.000000000000000278e-02 2.115119999999999778e-01 1.493330000000000091e+01 7.517224999999999113e+01 2.141630000000000109e+03
5.100000000000000366e-02 2.114785000000000137e-01 1.435594999999999999e+01 7.395754999999999768e+01 2.141434999999999945e+03
5.200000000000000455e-02 2.114300000000000068e-01 1.367324999999999946e+01 7.243635000000000446e+01 2.141150000000000091e+03
5.300000000000000544e-02 2.113694999999999879e-01 1.290350000000000108e+01 7.069294999999999618e+01 2.140789999999999964e+03
5.399999999999999939e-02 2.113005000000000022e-01 1.206128999999999962e+01 6.879249999999998977e+01 2.140380000000000109e+03
5.500000000000000028e-02 2.112240000000000228e-01 1.115888499999999972e+01 6.678149999999999409e+01 2.139920000000000073e+03
5.600000000000000117e-02 2.111419999999999964e-01 1.020822000000000074e+01 6.469380000000001019e+01 2.139425000000000182e+03
5.700000000000000205e-02 2.110559999999999936e-01 9.223890000000000811e+00 6.256045000000000300e+01 2.138904999999999745e+03
5.800000000000000294e-02 2.109685000000000032e-01 8.225144999999999484e+00 6.041890000000000072e+01 2.138375000000000000e+03
5.900000000000000383e-02 2.108800000000000119e-01 7.237420000000000186e+00 5.832050000000000267e+01 2.137835000000000036e+03
6.000000000000000472e-02 2.107950000000000101e-01 6.292139999999999844e+00 5.633315000000000339e+01 2.137319999999999709e+03
6.099999999999999867e-02 2.107144999999999990e-01 5.425304999999999822e+00 5.453985000000000127e+01 2.136824999999999818e+03
6.199999999999999956e-02 2.106429999999999969e-01 4.675189999999999735e+00 5.303340000000000032e+01 2.136385000000000218e+03
6.300000000000000044e-02 2.105839999999999934e-01 4.079344999999999999e+00 5.190829999999999700e+01 2.136019999999999982e+03
6.400000000000000133e-02 2.105414999999999925e-01 3.671640000000000015e+00 5.125164999999999793e+01 2.135750000000000000e+03
6.500000000000000222e-02 2.105184999999999973e-01 3.479569999999999830e+00 5.113495000000000346e+01 2.135595000000000255e+03
6.600000000000000311e-02 2.105175000000000241e-01 3.522334999999999994e+00 5.160755000000000337e+01 2.135574999999999818e+03
6.700000000000000400e-02 2.105400000000000049e-01 3.809709999999999930e+00 5.269275000000000375e+01 2.135694999999999709e+03
6.800000000000000488e-02 2.105869999999999964e-01 4.341759999999999842e+00 5.438700000000000045e+01 2.135960000000000036e+03
6.900000000000000577e-02 2.106580000000000119e-01 5.109370000000000189e+00 5.666079999999999472e+01 2.136375000000000000e+03
7.000000000000000666e-02 2.107519999999999949e-01 6.095304999999999751e+00 5.946294999999999931e+01 2.136925000000000182e+03
7.100000000000000755e-02 2.108669999999999989e-01 7.275824999999999321e+00 6.272500000000000142e+01 2.137605000000000018e+03
7.200000000000000844e-02 2.110004999999999797e-01 8.622450000000000614e+00 6.636719999999999686e+01 2.138404999999999745e+03
7.300000000000000933e-02 2.111494999999999900e-01 1.010405000000000086e+01 7.030500000000000682e+01 2.139295000000000073e+03
7.399999999999999634e-02 2.113105000000000122e-01 1.168864999999999910e+01 7.445425000000000182e+01 2.140264999999999873e+03
7.499999999999999722e-02 2.114800000000000013e-01 1.334529000000000032e+01 7.873734999999999218e+01 2.141295000000000073e+03
7.599999999999999811e-02 2.116560000000000108e-01 1.504570000000000007e+01 8.308670000000000755e+01 2.142360000000000127e+03
7.699999999999999900e-02 2.118355000000000099e-01 1.676490000000000080e+01 8.744774999999999920e+01 2.143454999999999927e+03
7.799999999999999989e-02 2.120164999999999966e-01 1.848239999999999839e+01 9.178045000000000186e+01 2.144559999999999945e+03
7.900000000000000078e-02 2.121974999999999834e-01 2.018180000000000263e+01 9.605865000000000009e+01 2.145664999999999964e+03
8.000000000000000167e-02 2.123769999999999825e-01 2.185070000000000334e+01 1.002676500000000033e+02 2.146769999999999982e+03
8.100000000000000255e-02 2.125549999999999939e-01 2.347984999999999900e+01 1.044029000000000025e+02 2.147860000000000127e+03
8.200000000000000344e-02 2.127310000000000034e-01 2.506239999999999668e+01 1.084645000000000010e+02 2.148944999999999709e+03
8.300000000000000433e-02 2.129044999999999965e-01 2.659295000000000186e+01 1.124549999999999983e+02 2.150019999999999982e+03
8.400000000000000522e-02 2.130759999999999876e-01 2.806674999999999898e+01 1.163764999999999930e+02 2.151074999999999818e+03
8.500000000000000611e-02 2.132445000000000035e-01 2.947935000000000016e+01 1.202280000000000086e+02 2.152119999999999891e+03
8.600000000000000699e-02 2.134105000000000030e-01 3.082620000000000005e+01 1.240055000000000121e+02 2.153149999999999636e+03
8.700000000000000788e-02 2.135734999999999995e-01 3.210280000000000200e+01 1.276995000000000005e+02 2.154154999999999745e+03
8.800000000000000877e-02 2.137330000000000063e-01 3.330445000000000277e+01 1.312994999999999948e+02 2.155150000000000091e+03
8.899999999999999578e-02 2.138884999999999814e-01 3.442694999999999794e+01 1.347920000000000016e+02 2.156119999999999891e+03
8.999999999999999667e-02 2.140394999999999937e-01 3.546649999999999636e+01 1.381639999999999873e+02 2.157059999999999945e+03
9.099999999999999756e-02 2.141859999999999875e-01 3.641989999999999839e+01 1.414014999999999986e+02 2.157969999999999800e+03
9.199999999999999845e-02 2.143260000000000165e-01 3.728440000000000509e+01 1.444929999999999950e+02 2.158845000000000255e+03
9.299999999999999933e-02 2.144604999999999984e-01 3.805769999999999698e+01 1.474269999999999925e+02 2.159690000000000055e+03
9.400000000000000022e-02 2.145885000000000153e-01 3.873780000000000001e+01 1.501920000000000073e+02 2.160489999999999782e+03
9.500000000000000111e-02 2.147089999999999832e-01 3.932250000000000512e+01 1.527794999999999845e+02 2.161239999999999782e+03
9.600000000000000200e-02 2.148220000000000129e-01 3.980984999999999729e+01 1.551770000000000209e+02 2.161954999999999927e+03
9.700000000000000289e-02 2.149274999999999936e-01 4.019735000000000014e+01 1.573735000000000070e+02 2.162614999999999782e+03
9.800000000000000377e-02 2.150239999999999929e-01 4.048255000000000337e+01 1.593584999999999923e+02 2.163220000000000255e+03
9.900000000000000466e-02 2.151109999999999967e-01 4.066329999999999956e+01 1.611189999999999998e+02 2.163775000000000091e+03
1.000000000000000056e-01 2.151890000000000192e-01 4.073770000000000380e+01 1.626449999999999818e+02 2.164265000000000327e+03
1.010000000000000064e-01 2.152565000000000173e-01 4.070494999999999663e+01 1.639279999999999973e+02 2.164699999999999818e+03
1.020000000000000073e-01 2.153145000000000198e-01 4.056539999999999679e+01 1.649635000000000105e+02 2.165065000000000055e+03
1.030000000000000082e-01 2.153615000000000113e-01 4.032115000000000293e+01 1.657500000000000000e+02 2.165369999999999891e+03
1.040000000000000091e-01 2.153980000000000061e-01 3.997605000000000075e+01 1.662934999999999945e+02 2.165609999999999673e+03
1.050000000000000100e-01 2.154245000000000188e-01 3.953589999999999804e+01 1.666030000000000086e+02 2.165780000000000200e+03
1.059999999999999970e-01 2.154415000000000080e-01 3.900835000000000008e+01 1.666949999999999932e+02 2.165900000000000091e+03
1.069999999999999979e-01 2.154490000000000016e-01 3.840245000000000175e+01 1.665885000000000105e+02 2.165949999999999818e+03
1.079999999999999988e-01 2.154490000000000016e-01 3.772875000000000512e+01 1.663084999999999809e+02 2.165960000000000036e+03
1.089999999999999997e-01 2.154409999999999936e-01 3.699844999999999828e+01 1.658795000000000073e+02 2.165914999999999964e+03
1.100000000000000006e-01 2.154269999999999796e-01 3.622325000000000017e+01 1.653290000000000077e+02 2.165835000000000036e+03
1.110000000000000014e-01 2.154074999999999740e-01 3.541465000000000174e+01 1.646839999999999975e+02 2.165720000000000255e+03
1.120000000000000023e-01 2.153835000000000055e-01 3.458395000000000152e+01 1.639689999999999941e+02 2.165574999999999818e+03
1.130000000000000032e-01 2.153575000000000073e-01 3.374130000000000251e+01 1.632069999999999936e+02 2.165414999999999964e+03
1.140000000000000041e-01 2.153279999999999916e-01 3.289620000000000033e+01 1.624180000000000064e+02 2.165235000000000127e+03
1.150000000000000050e-01 2.152974999999999750e-01 3.205639999999999645e+01 1.616179999999999950e+02 2.165050000000000182e+03
1.160000000000000059e-01 2.152660000000000129e-01 3.122854999999999848e+01 1.608199999999999932e+02 2.164850000000000364e+03
1.170000000000000068e-01 2.152340000000000086e-01 3.041750000000000398e+01 1.600325000000000273e+02 2.164654999999999745e+03
1.180000000000000077e-01 2.152025000000000188e-01 2.962650000000000006e+01 1.592590000000000146e+02 2.164449999999999818e+03
1.190000000000000085e-01 2.151704999999999868e-01 2.885735000000000028e+01 1.585010000000000048e+02 2.164255000000000109e+03
1.200000000000000094e-01 2.151389999999999969e-01 2.810999999999999943e+01 1.577549999999999955e+02 2.164055000000000291e+03
1.209999999999999964e-01 2.151079999999999937e-01 2.738319999999999865e+01 1.570169999999999959e+02 2.163859999999999673e+03
1.219999999999999973e-01 2.150759999999999894e-01 2.667435000000000045e+01 1.562764999999999986e+02 2.163659999999999854e+03
1.229999999999999982e-01 2.150440000000000129e-01 2.597975000000000279e+01 1.555229999999999961e+02 2.163460000000000036e+03
1.239999999999999991e-01 2.150114999999999943e-01 2.529500000000000171e+01 1.547454999999999927e+02 2.163255000000000109e+03
1.250000000000000000e-01 2.149774999999999880e-01 2.461520000000000152e+01 1.539309999999999832e+02 2.163045000000000073e+03
1.260000000000000009e-01 2.149419999999999942e-01 2.393534999999999968e+01 1.530670000000000073e+02 2.162819999999999709e+03
1.270000000000000018e-01 2.149034999999999973e-01 2.325039999999999907e+01 1.521410000000000196e+02 2.162585000000000036e+03
1.280000000000000027e-01 2.148634999999999851e-01 2.255595000000000283e+01 1.511435000000000173e+02 2.162335000000000036e+03
1.290000000000000036e-01 2.148194999999999966e-01 2.184830000000000183e+01 1.500670000000000073e+02 2.162065000000000055e+03
1.300000000000000044e-01 2.147729999999999917e-01 2.112485000000000213e+01 1.489060000000000059e+02 2.161769999999999982e+03
1.310000000000000053e-01 2.147224999999999828e-01 2.038410000000000011e+01 1.476599999999999966e+02 2.161465000000000146e+03
1.320000000000000062e-01 2.146685000000000121e-01 1.962594999999999956e+01 1.463305000000000007e+02 2.161130000000000109e+03
1.330000000000000071e-01 2.146115000000000106e-01 1.885195000000000221e+01 1.449239999999999782e+02 2.160775000000000091e+03
1.340000000000000080e-01 2.145515000000000061e-01 1.806494999999999962e+01 1.434510000000000218e+02 2.160404999999999745e+03
1.350000000000000089e-01 2.144884999999999986e-01 1.726934999999999931e+01 1.419239999999999782e+02 2.160015000000000327e+03
1.360000000000000098e-01 2.144240000000000035e-01 1.647070000000000078e+01 1.403594999999999970e+02 2.159619999999999891e+03
1.370000000000000107e-01 2.143579999999999930e-01 1.567569999999999908e+01 1.387775000000000034e+02 2.159210000000000036e+03
1.380000000000000115e-01 2.142904999999999949e-01 1.489160000000000039e+01 1.371979999999999791e+02 2.158795000000000073e+03
1.390000000000000124e-01 2.142244999999999844e-01 1.412609999999999921e+01 1.356415000000000077e+02 2.158385000000000218e+03
1.400000000000000133e-01 2.141589999999999883e-01 1.338690000000000069e+01 1.341299999999999955e+02 2.157975000000000364e+03
1.410000000000000142e-01 2.140950000000000075e-01 1.268144999999999989e+01 1.326809999999999832e+02 2.157579999999999927e+03
1.420000000000000151e-01 2.140340000000000020e-01 1.201633999999999958e+01 1.313125000000000000e+02 2.157199999999999818e+03
1.430000000000000160e-01 2.139759999999999995e-01 1.139724000000000004e+01 1.300390000000000157e+02 2.156840000000000146e+03
1.440000000000000169e-01 2.139220000000000010e-01 1.082882999999999996e+01 1.288709999999999809e+02 2.156500000000000000e+03
1.450000000000000178e-01 2.138714999999999922e-01 1.031433000000000000e+01 1.278149999999999977e+02 2.156190000000000055e+03
1.459999999999999909e-01 2.138265000000000027e-01 9.855754999999998489e+00 1.268764999999999930e+02 2.155900000000000091e+03
1.469999999999999918e-01 2.137860000000000038e-01 9.453654999999999475e+00 1.260545000000000044e+02 2.155644999999999982e+03
1.479999999999999927e-01 2.137499999999999956e-01 9.107464999999999478e+00 1.253474999999999966e+02 2.155420000000000073e+03
1.489999999999999936e-01 2.137185000000000057e-01 8.815419999999999590e+00 1.247485000000000070e+02 2.155220000000000255e+03
1.499999999999999944e-01 2.136914999999999787e-01 8.574840000000000018e+00 1.242514999999999930e+02 2.155050000000000182e+03
1.509999999999999953e-01 2.136689999999999978e-01 8.382104999999999251e+00 1.238464999999999918e+02 2.154905000000000200e+03
1.519999999999999962e-01 2.136494999999999922e-01 8.233005000000000351e+00 1.235234999999999985e+02 2.154779999999999745e+03
1.529999999999999971e-01 2.136345000000000049e-01 8.122844999999999871e+00 1.232710000000000008e+02 2.154680000000000291e+03
1.539999999999999980e-01 2.136215000000000197e-01 8.046585000000000321e+00 1.230780000000000030e+02 2.154595000000000255e+03
1.549999999999999989e-01 2.136109999999999953e-01 7.999040000000000816e+00 1.229325000000000045e+02 2.154529999999999745e+03
1.559999999999999998e-01 2.136029999999999873e-01 7.975010000000001043e+00 1.228240000000000123e+02 2.154480000000000018e+03
1.570000000000000007e-01 2.135964999999999947e-01 7.969450000000000145e+00 1.227425000000000068e+02 2.154434999999999945e+03
1.580000000000000016e-01 2.135910000000000031e-01 7.977579999999999671e+00 1.226779999999999973e+02 2.154394999999999982e+03
1.590000000000000024e-01 2.135869999999999991e-01 7.995045000000000179e+00 1.226219999999999999e+02 2.154369999999999891e+03
