# t [s], A [cm^2], U [cm/s], P [cPa], c [cm/s]
1.000000000000000021e-03 1.685290000000000121e-01 3.118580000000000241e-01 9.105994999999998640e+01 2.091099999999999909e+03
2.000000000000000042e-03 1.684895000000000143e-01 1.727755500000000000e+00 8.792169999999998709e+01 2.090744999999999891e+03
3.000000000000000062e-03 1.683800000000000019e-01 3.461330000000000240e+00 8.365324999999999989e+01 2.089804999999999836e+03
4.000000000000000083e-03 1.682290000000000174e-01 5.404312500000000519e+00 7.907104999999999961e+01 2.088525000000000091e+03
5.000000000000000104e-03 1.680665000000000076e-01 7.490700000000000358e+00 7.501720000000000255e+01 2.087154999999999745e+03
6.000000000000000125e-03 1.679094999999999893e-01 9.551079999999998904e+00 7.173789999999999623e+01 2.085844999999999800e+03
7.000000000000000146e-03 1.677620000000000222e-01 1.138375500000000073e+01 6.895980000000000132e+01 2.084650000000000091e+03
8.000000000000000167e-03 1.676265000000000116e-01 1.291909499999999866e+01 6.645815000000000339e+01 2.083560000000000400e+03
9.000000000000001055e-03 1.675075000000000036e-01 1.419749999999999979e+01 6.429384999999999195e+01 2.082609999999999673e+03
1.000000000000000194e-02 1.674070000000000003e-01 1.525125000000000064e+01 6.254025000000000034e+01 2.081824999999999818e+03
1.099999999999999936e-02 1.673240000000000005e-01 1.609145000000000181e+01 6.116660000000000252e+01 2.081184999999999945e+03
1.200000000000000025e-02 1.672580000000000178e-01 1.672575000000000145e+01 6.009825000000000728e+01 2.080680000000000291e+03
1.300000000000000114e-02 1.672045000000000059e-01 1.715489999999999782e+01 5.922710000000000008e+01 2.080279999999999745e+03
1.400000000000000203e-02 1.671604999999999897e-01 1.739345000000000141e+01 5.844885000000000019e+01 2.079954999999999927e+03
1.499999999999999944e-02 1.671234999999999804e-01 1.751259999999999906e+01 5.779380000000000450e+01 2.079694999999999709e+03
1.600000000000000033e-02 1.670995000000000119e-01 1.764564999999999984e+01 5.750549999999999784e+01 2.079525000000000091e+03
1.700000000000000122e-02 1.670959999999999945e-01 1.793355000000000032e+01 5.793820000000000192e+01 2.079505000000000109e+03
1.800000000000000211e-02 1.671194999999999764e-01 1.845015000000000072e+01 5.933230000000000359e+01 2.079699999999999818e+03
1.900000000000000300e-02 1.671719999999999873e-01 1.916060000000000230e+01 6.163204999999999956e+01 2.080114999999999782e+03
2.000000000000000042e-02 1.672480000000000078e-01 1.993509999999999849e+01 6.446169999999999334e+01 2.080710000000000036e+03
2.100000000000000130e-02 1.673324999999999951e-01 2.060345000000000226e+01 6.725585000000000946e+01 2.081385000000000218e+03
2.200000000000000219e-02 1.674120000000000053e-01 2.101930000000000121e+01 6.946369999999998868e+01 2.082024999999999636e+03
2.299999999999999961e-02 1.674729999999999830e-01 2.110719999999999885e+01 7.072960000000000491e+01 2.082525000000000091e+03
2.400000000000000050e-02 1.675095000000000056e-01 2.087695000000000078e+01 7.098335000000000150e+01 2.082844999999999800e+03
2.500000000000000139e-02 1.675210000000000032e-01 2.040585000000000093e+01 7.041755000000000564e+01 2.082954999999999927e+03
2.600000000000000228e-02 1.675129999999999952e-01 1.979994999999999905e+01 6.937765000000000271e+01 2.082904999999999745e+03
2.700000000000000316e-02 1.674934999999999896e-01 1.915254999999999797e+01 6.821755000000000280e+01 2.082764999999999873e+03
2.800000000000000058e-02 1.674700000000000077e-01 1.851610000000000156e+01 6.717984999999998763e+01 2.082585000000000036e+03
2.900000000000000147e-02 1.674464999999999981e-01 1.789439999999999742e+01 6.634000000000000341e+01 2.082400000000000091e+03
3.000000000000000236e-02 1.674240000000000173e-01 1.725479999999999947e+01 6.562174999999999159e+01 2.082220000000000255e+03
3.099999999999999978e-02 1.673999999999999932e-01 1.655229999999999890e+01 6.486500000000000909e+01 2.082034999999999854e+03
3.200000000000000067e-02 1.673715000000000064e-01 1.575580000000000069e+01 6.391575000000000273e+01 2.081810000000000400e+03
3.300000000000000155e-02 1.673364999999999991e-01 1.486745000000000161e+01 6.270454999999999757e+01 2.081539999999999964e+03
3.400000000000000244e-02 1.672939999999999983e-01 1.393040000000000056e+01 6.128979999999999961e+01 2.081215000000000146e+03
3.500000000000000333e-02 1.672485000000000221e-01 1.302165000000000106e+01 5.985419999999999874e+01 2.080854999999999563e+03
3.600000000000000422e-02 1.672059999999999935e-01 1.223329999999999984e+01 5.865654999999999575e+01 2.080514999999999873e+03
3.700000000000000511e-02 1.671729999999999883e-01 1.164864999999999995e+01 5.795739999999999981e+01 2.080250000000000000e+03
3.799999999999999906e-02 1.671559999999999990e-01 1.132000000000000028e+01 5.794275000000000375e+01 2.080105000000000018e+03
3.899999999999999994e-02 1.671594999999999887e-01 1.125534999999999997e+01 5.866924999999999812e+01 2.080119999999999891e+03
4.000000000000000083e-02 1.671845000000000137e-01 1.141639999999999944e+01 6.004590000000000316e+01 2.080305000000000291e+03
4.100000000000000172e-02 1.672259999999999858e-01 1.172729999999999961e+01 6.185300000000000153e+01 2.080614999999999782e+03
4.200000000000000261e-02 1.672784999999999966e-01 1.209015000000000128e+01 6.378929999999999723e+01 2.081019999999999982e+03
4.300000000000000350e-02 1.673330000000000095e-01 1.240305000000000035e+01 6.553220000000000312e+01 2.081444999999999709e+03
4.400000000000000439e-02 1.673810000000000020e-01 1.257655000000000101e+01 6.679484999999999673e+01 2.081824999999999818e+03
4.499999999999999833e-02 1.674144999999999939e-01 1.254420000000000002e+01 6.736860000000000070e+01 2.082095000000000255e+03
4.599999999999999922e-02 1.674279999999999935e-01 1.226825000000000010e+01 6.714375000000001137e+01 2.082210000000000036e+03
4.700000000000000011e-02 1.674180000000000113e-01 1.173869999999999969e+01 6.610984999999999445e+01 2.082139999999999873e+03
4.800000000000000100e-02 1.673844999999999916e-01 1.096869500000000031e+01 6.433805000000000973e+01 2.081885000000000218e+03
4.900000000000000189e-02 1.673279999999999768e-01 9.987590000000000856e+00 6.195404999999999518e+01 2.081454999999999927e+03
5.000000000000000278e-02 1.672534999999999994e-01 8.833819999999999339e+00 5.911020000000000607e+01 2.080869999999999891e+03
5.100000000000000366e-02 1.671630000000000060e-01 7.549465000000000536e+00 5.596110000000000184e+01 2.080159999999999854e+03
5.200000000000000455e-02 1.670625000000000027e-01 6.176965000000000039e+00 5.264860000000000184e+01 2.079369999999999891e+03
5.300000000000000544e-02 1.669545000000000057e-01 4.757515000000000605e+00 4.929560000000000031e+01 2.078525000000000091e+03
5.399999999999999939e-02 1.668439999999999923e-01 3.331575500000000023e+00 4.600719999999999743e+01 2.077650000000000091e+03
5.500000000000000028e-02 1.667339999999999933e-01 1.939675000000000260e+00 4.287640000000000384e+01 2.076779999999999745e+03
5.600000000000000117e-02 1.666285000000000127e-01 6.233300000000001617e-01 3.999054999999999893e+01 2.075940000000000055e+03
5.700000000000000205e-02 1.665294999999999970e-01 -5.748199999999998866e-01 3.743614999999999782e+01 2.075154999999999745e+03
5.800000000000000294e-02 1.664414999999999922e-01 -1.611750000000000016e+00 3.530100000000000193e+01 2.074449999999999818e+03
5.900000000000000383e-02 1.663665000000000005e-01 -2.445775999999999950e+00 3.367164999999999964e+01 2.073849999999999909e+03
6.000000000000000472e-02 1.663084999999999980e-01 -3.038934999999999942e+00 3.262874999999999659e+01 2.073380000000000109e+03
6.099999999999999867e-02 1.662700000000000011e-01 -3.359605000000000175e+00 3.224009999999999820e+01 2.073055000000000291e+03
6.199999999999999956e-02 1.662524999999999975e-01 -3.385005000000000042e+00 3.255360000000000298e+01 2.072904999999999745e+03
6.300000000000000044e-02 1.662584999999999757e-01 -3.102994999999999948e+00 3.359179999999999922e+01 2.072929999999999836e+03
6.400000000000000133e-02 1.662879999999999914e-01 -2.513149999999999995e+00 3.534805000000000064e+01 2.073150000000000091e+03
6.500000000000000222e-02 1.663419999999999899e-01 -1.626832000000000056e+00 3.778629999999999711e+01 2.073550000000000182e+03
6.600000000000000311e-02 1.664180000000000104e-01 -4.663800000000000168e-01 4.084309999999999974e+01 2.074135000000000218e+03
6.700000000000000400e-02 1.665149999999999963e-01 9.364249999999998408e-01 4.443205000000000382e+01 2.074875000000000000e+03
6.800000000000000488e-02 1.666300000000000003e-01 2.542466999999999810e+00 4.845005000000000450e+01 2.075775000000000091e+03
6.900000000000000577e-02 1.667609999999999926e-01 4.307655500000000082e+00 5.278454999999999586e+01 2.076795000000000073e+03
7.000000000000000666e-02 1.669025000000000092e-01 6.185500000000000220e+00 5.732030000000000314e+01 2.077904999999999745e+03
7.100000000000000755e-02 1.670524999999999927e-01 8.129735000000000156e+00 6.194684999999999775e+01 2.079090000000000146e+03
7.200000000000000844e-02 1.672069999999999945e-01 1.009638999999999953e+01 6.656430000000000291e+01 2.080305000000000291e+03
7.300000000000000933e-02 1.673629999999999840e-01 1.204627499999999962e+01 7.108880000000000621e+01 2.081545000000000073e+03
7.399999999999999634e-02 1.675169999999999992e-01 1.394620000000000104e+01 7.545584999999999809e+01 2.082775000000000091e+03
7.499999999999999722e-02 1.676674999999999971e-01 1.577049999999999841e+01 7.962264999999999304e+01 2.083980000000000018e+03
7.599999999999999811e-02 1.678135000000000043e-01 1.750114999999999910e+01 8.356820000000000448e+01 2.085144999999999982e+03
7.699999999999999900e-02 1.679529999999999912e-01 1.912789999999999679e+01 8.729189999999999827e+01 2.086270000000000437e+03
7.799999999999999989e-02 1.680864999999999998e-01 2.064770000000000039e+01 9.081029999999999802e+01 2.087345000000000255e+03
7.900000000000000078e-02 1.682140000000000024e-01 2.206304999999999694e+01 9.415330000000000155e+01 2.088380000000000109e+03
8.000000000000000167e-02 1.683370000000000144e-01 2.338134999999999764e+01 9.735845000000000482e+01 2.089369999999999891e+03
8.100000000000000255e-02 1.684555000000000080e-01 2.461240000000000094e+01 1.004660999999999973e+02 2.090329999999999927e+03
8.200000000000000344e-02 1.685709999999999986e-01 2.576749999999999829e+01 1.035164499999999919e+02 2.091264999999999873e+03
8.300000000000000433e-02 1.686840000000000006e-01 2.685779999999999745e+01 1.065420000000000016e+02 2.092190000000000055e+03
8.400000000000000522e-02 1.687970000000000026e-01 2.789294999999999902e+01 1.095685000000000002e+02 2.093105000000000018e+03
8.500000000000000611e-02 1.689090000000000036e-01 2.888044999999999973e+01 1.126094999999999970e+02 2.094010000000000218e+03
8.600000000000000699e-02 1.690214999999999912e-01 2.982495000000000118e+01 1.156700000000000017e+02 2.094925000000000182e+03
8.700000000000000788e-02 1.691340000000000066e-01 3.072830000000000084e+01 1.187425000000000068e+02 2.095840000000000146e+03
8.800000000000000877e-02 1.692464999999999942e-01 3.158895000000000053e+01 1.218119999999999976e+02 2.096755000000000109e+03
8.899999999999999578e-02 1.693589999999999818e-01 3.240290000000000248e+01 1.248539999999999850e+02 2.097664999999999964e+03
8.999999999999999667e-02 1.694694999999999951e-01 3.316360000000000241e+01 1.278389999999999986e+02 2.098565000000000055e+03
9.099999999999999756e-02 1.695784999999999931e-01 3.386254999999999882e+01 1.307330000000000041e+02 2.099449999999999818e+03
9.199999999999999845e-02 1.696840000000000015e-01 3.448999999999999488e+01 1.335004999999999882e+02 2.100309999999999945e+03
9.299999999999999933e-02 1.697850000000000192e-01 3.503535000000000110e+01 1.361055000000000064e+02 2.101135000000000218e+03
9.400000000000000022e-02 1.698804999999999898e-01 3.548805000000000121e+01 1.385134999999999934e+02 2.101914999999999964e+03
9.500000000000000111e-02 1.699689999999999812e-01 3.583800000000000097e+01 1.406929999999999836e+02 2.102640000000000327e+03
9.600000000000000200e-02 1.700500000000000067e-01 3.607609999999999673e+01 1.426165000000000020e+02 2.103305000000000291e+03
9.700000000000000289e-02 1.701225000000000098e-01 3.619514999999999816e+01 1.442630000000000052e+02 2.103905000000000200e+03
9.800000000000000377e-02 1.701850000000000029e-01 3.618994999999999607e+01 1.456170000000000186e+02 2.104425000000000182e+03
9.900000000000000466e-02 1.702385000000000148e-01 3.605809999999999604e+01 1.466709999999999923e+02 2.104859999999999673e+03
1.000000000000000056e-01 1.702815000000000023e-01 3.579999999999999716e+01 1.474250000000000114e+02 2.105219999999999800e+03
1.010000000000000064e-01 1.703139999999999932e-01 3.541910000000000025e+01 1.478865000000000123e+02 2.105500000000000000e+03
1.020000000000000073e-01 1.703365000000000018e-01 3.492194999999999538e+01 1.480720000000000027e+02 2.105689999999999600e+03
1.030000000000000082e-01 1.703500000000000014e-01 3.431794999999999618e+01 1.480035000000000025e+02 2.105809999999999945e+03
1.040000000000000091e-01 1.703544999999999920e-01 3.361910000000000309e+01 1.477099999999999795e+02 2.105850000000000364e+03
1.050000000000000100e-01 1.703505000000000158e-01 3.283934999999999604e+01 1.472245000000000061e+02 2.105829999999999927e+03
1.059999999999999970e-01 1.703399999999999914e-01 3.199419999999999931e+01 1.465825000000000102e+02 2.105755000000000109e+03
1.069999999999999979e-01 1.703230000000000022e-01 3.109990000000000165e+01 1.458230000000000075e+02 2.105625000000000000e+03
1.079999999999999988e-01 1.703024999999999956e-01 3.017305000000000348e+01 1.449809999999999945e+02 2.105465000000000146e+03
1.089999999999999997e-01 1.702779999999999849e-01 2.922959999999999781e+01 1.440929999999999893e+02 2.105265000000000327e+03
1.100000000000000006e-01 1.702515000000000001e-01 2.828450000000000131e+01 1.431899999999999977e+02 2.105055000000000291e+03
1.110000000000000014e-01 1.702239999999999864e-01 2.735110000000000241e+01 1.422989999999999782e+02 2.104835000000000036e+03
1.120000000000000023e-01 1.701954999999999996e-01 2.644069999999999965e+01 1.414410000000000025e+02 2.104610000000000127e+03
1.130000000000000032e-01 1.701679999999999859e-01 2.556220000000000070e+01 1.406334999999999980e+02 2.104385000000000218e+03
1.140000000000000041e-01 1.701409999999999867e-01 2.472209999999999752e+01 1.398845000000000027e+02 2.104170000000000073e+03
1.150000000000000050e-01 1.701165000000000038e-01 2.392399999999999949e+01 1.391970000000000027e+02 2.103960000000000036e+03
1.160000000000000059e-01 1.700929999999999942e-01 2.316910000000000025e+01 1.385685000000000002e+02 2.103764999999999873e+03
1.170000000000000068e-01 1.700705000000000133e-01 2.245595000000000141e+01 1.379909999999999854e+02 2.103579999999999927e+03
1.180000000000000077e-01 1.700495000000000201e-01 2.178090000000000259e+01 1.374509999999999934e+02 2.103409999999999854e+03
1.190000000000000085e-01 1.700295000000000001e-01 2.113844999999999885e+01 1.369315000000000282e+02 2.103239999999999782e+03
1.200000000000000094e-01 1.700105000000000088e-01 2.052154999999999774e+01 1.364134999999999991e+02 2.103085000000000036e+03
1.209999999999999964e-01 1.699904999999999888e-01 1.992210000000000036e+01 1.358760000000000048e+02 2.102920000000000073e+03
1.219999999999999973e-01 1.699704999999999966e-01 1.933170000000000144e+01 1.352980000000000018e+02 2.102755000000000109e+03
1.229999999999999982e-01 1.699490000000000167e-01 1.874164999999999992e+01 1.346585000000000036e+02 2.102574999999999818e+03
1.239999999999999991e-01 1.699249999999999927e-01 1.814399999999999835e+01 1.339410000000000025e+02 2.102380000000000109e+03
1.250000000000000000e-01 1.698989999999999945e-01 1.753174999999999883e+01 1.331299999999999955e+02 2.102164999999999964e+03
1.260000000000000009e-01 1.698695000000000066e-01 1.689930000000000021e+01 1.322155000000000200e+02 2.101925000000000182e+03
1.270000000000000018e-01 1.698370000000000157e-01 1.624280000000000257e+01 1.311914999999999907e+02 2.101664999999999964e+03
1.280000000000000027e-01 1.698004999999999931e-01 1.556050000000000111e+01 1.300579999999999927e+02 2.101369999999999891e+03
1.290000000000000036e-01 1.697605000000000086e-01 1.485260000000000069e+01 1.288205000000000098e+02 2.101045000000000073e+03
1.300000000000000044e-01 1.697175000000000211e-01 1.412195000000000000e+01 1.274904999999999973e+02 2.100699999999999818e+03
1.310000000000000053e-01 1.696709999999999885e-01 1.337304999999999922e+01 1.260824999999999960e+02 2.100324999999999818e+03
1.320000000000000062e-01 1.696219999999999950e-01 1.261254999999999882e+01 1.246175000000000068e+02 2.099930000000000291e+03
1.330000000000000071e-01 1.695709999999999995e-01 1.184860499999999917e+01 1.231189999999999998e+02 2.099519999999999982e+03
1.340000000000000080e-01 1.695189999999999753e-01 1.109057999999999922e+01 1.216129999999999995e+02 2.099095000000000255e+03
1.350000000000000089e-01 1.694664999999999921e-01 1.034850499999999940e+01 1.201264999999999930e+02 2.098675000000000182e+03
1.360000000000000098e-01 1.694144999999999956e-01 9.632645000000000124e+00 1.186860000000000070e+02 2.098255000000000109e+03
1.370000000000000107e-01 1.693640000000000145e-01 8.953025000000000233e+00 1.173165000000000049e+02 2.097844999999999800e+03
1.380000000000000115e-01 1.693159999999999943e-01 8.318725000000000591e+00 1.160400000000000063e+02 2.097454999999999927e+03
1.390000000000000124e-01 1.692700000000000038e-01 7.737840000000000273e+00 1.148764999999999930e+02 2.097085000000000036e+03
1.400000000000000133e-01 1.692285000000000039e-01 7.216829999999999856e+00 1.138395000000000010e+02 2.096739999999999782e+03
1.410000000000000142e-01 1.691909999999999803e-01 6.760415000000000063e+00 1.129385000000000048e+02 2.096430000000000291e+03
1.420000000000000151e-01 1.691570000000000018e-01 6.371420000000000528e+00 1.121794999999999902e+02 2.096155000000000200e+03
1.430000000000000160e-01 1.691285000000000149e-01 6.050729999999999720e+00 1.115604999999999905e+02 2.095914999999999964e+03
1.440000000000000169e-01 1.691040000000000043e-01 5.797330000000000538e+00 1.110775000000000006e+02 2.095715000000000146e+03
1.450000000000000178e-01 1.690844999999999987e-01 5.608484999999999943e+00 1.107229999999999990e+02 2.095554999999999836e+03
1.459999999999999909e-01 1.690690000000000248e-01 5.479910000000000281e+00 1.104840000000000089e+02 2.095425000000000182e+03
1.469999999999999918e-01 1.690574999999999994e-01 5.406069999999999709e+00 1.103464999999999918e+02 2.095324999999999818e+03
1.479999999999999927e-01 1.690500000000000058e-01 5.380430000000000490e+00 1.102939999999999969e+02 2.095255000000000109e+03
1.489999999999999936e-01 1.690450000000000008e-01 5.395775000000000432e+00 1.103104999999999905e+02 2.095210000000000036e+03
1.499999999999999944e-01 1.690424999999999844e-01 5.444530000000000314e+00 1.103780000000000001e+02 2.095184999999999945e+03
1.509999999999999953e-01 1.690424999999999844e-01 5.519019999999999371e+00 1.104799999999999898e+02 2.095184999999999945e+03
1.519999999999999962e-01 1.690429999999999988e-01 5.611765000000000114e+00 1.106015000000000015e+02 2.095189999999999600e+03
1.529999999999999971e-01 1.690455000000000152e-01 5.715690000000000381e+00 1.107284999999999968e+02 2.095199999999999818e+03
1.539999999999999980e-01 1.690479999999999761e-01 5.824340000000000295e+00 1.108485000000000014e+02 2.095215000000000146e+03
1.549999999999999989e-01 1.690499999999999781e-01 5.932055000000000078e+00 1.109515000000000100e+02 2.095234999999999673e+03
1.559999999999999998e-01 1.690524999999999944e-01 6.034055000000000391e+00 1.110300000000000011e+02 2.095255000000000109e+03
1.570000000000000007e-01 1.690539999999999821e-01 6.126554999999999751e+00 1.110790000000000077e+02 2.095265000000000327e+03
1.580000000000000016e-01 1.690550000000000108e-01 6.206755000000000244e+00 1.110945000000000107e+02 2.095274999999999636e+03
1.590000000000000024e-01 1.690550000000000108e-01 6.272885000000000488e+00 1.110759999999999934e+02 2.095269999999999982e+03
