# t [s], A [cm^2], U [cm/s], P [cPa], c [cm/s]
1.000000000000000021e-03 1.426979999999999915e-01 2.266444999999999987e-01 9.588269999999999982e+01 1.814224999999999909e+03
2.000000000000000042e-03 1.426820000000000033e-01 1.571108500000000019e+00 9.325645000000000095e+01 1.814054999999999836e+03
3.000000000000000062e-03 1.426060000000000105e-01 3.238484500000000210e+00 8.989109999999999445e+01 1.813295000000000073e+03
4.000000000000000083e-03 1.424860000000000015e-01 5.086771249999999966e+00 8.605100000000000193e+01 1.812125000000000000e+03
5.000000000000000104e-03 1.423419999999999963e-01 7.070914999999999395e+00 8.230625000000000568e+01 1.810730000000000018e+03
6.000000000000000125e-03 1.421910000000000118e-01 9.118290000000000006e+00 7.901855000000000473e+01 1.809269999999999982e+03
7.000000000000000146e-03 1.420410000000000006e-01 1.111169999999999902e+01 7.624495000000000289e+01 1.807849999999999909e+03
8.000000000000000167e-03 1.418979999999999964e-01 1.293917000000000073e+01 7.384874999999999545e+01 1.806509999999999991e+03
9.000000000000001055e-03 1.417634999999999867e-01 1.455157499999999970e+01 7.170900000000000318e+01 1.805264999999999873e+03
1.000000000000000194e-02 1.416399999999999881e-01 1.595700000000000074e+01 6.981570000000000675e+01 1.804139999999999873e+03
1.099999999999999936e-02 1.415305000000000035e-01 1.717490000000000094e+01 6.819915000000000305e+01 1.803144999999999982e+03
1.200000000000000025e-02 1.414354999999999918e-01 1.821555000000000035e+01 6.685864999999999725e+01 1.802289999999999964e+03
1.300000000000000114e-02 1.413534999999999930e-01 1.908420000000000272e+01 6.576184999999999548e+01 1.801570000000000164e+03
1.400000000000000203e-02 1.412849999999999939e-01 1.978450000000000131e+01 6.486135000000000161e+01 1.800960000000000036e+03
1.499999999999999944e-02 1.412264999999999771e-01 2.031990000000000052e+01 6.410084999999999411e+01 1.800460000000000036e+03
1.600000000000000033e-02 1.411775000000000113e-01 2.070219999999999771e+01 6.343330000000000268e+01 1.800039999999999964e+03
1.700000000000000122e-02 1.411354999999999971e-01 2.096464999999999890e+01 6.285760000000000502e+01 1.799690000000000055e+03
1.800000000000000211e-02 1.411020000000000052e-01 2.116495000000000104e+01 6.244339999999999691e+01 1.799414999999999964e+03
1.900000000000000300e-02 1.410790000000000100e-01 2.137330000000000041e+01 6.231714999999999804e+01 1.799230000000000018e+03
2.000000000000000042e-02 1.410704999999999876e-01 2.164965000000000117e+01 6.260939999999999372e+01 1.799170000000000073e+03
2.100000000000000130e-02 1.410779999999999812e-01 2.202324999999999733e+01 6.339350000000000307e+01 1.799255000000000109e+03
2.200000000000000219e-02 1.411040000000000072e-01 2.248434999999999917e+01 6.464525000000000432e+01 1.799490000000000009e+03
2.299999999999999961e-02 1.411439999999999917e-01 2.298904999999999887e+01 6.623994999999999322e+01 1.799860000000000127e+03
2.400000000000000050e-02 1.411955000000000016e-01 2.347435000000000116e+01 6.798375000000000057e+01 1.800325000000000045e+03
2.500000000000000139e-02 1.412519999999999887e-01 2.387599999999999767e+01 6.966264999999999930e+01 1.800845000000000027e+03
2.600000000000000228e-02 1.413074999999999748e-01 2.414499999999999957e+01 7.109305000000000518e+01 1.801365000000000009e+03
2.700000000000000316e-02 1.413574999999999970e-01 2.425649999999999906e+01 7.215805000000000291e+01 1.801825000000000045e+03
2.800000000000000058e-02 1.413979999999999959e-01 2.421180000000000021e+01 7.282214999999999350e+01 1.802210000000000036e+03
2.900000000000000147e-02 1.414279999999999982e-01 2.403294999999999959e+01 7.312420000000000186e+01 1.802505000000000109e+03
3.000000000000000236e-02 1.414489999999999914e-01 2.375339999999999918e+01 7.315264999999999418e+01 1.802704999999999927e+03
3.099999999999999978e-02 1.414615000000000178e-01 2.340739999999999910e+01 7.301390000000000668e+01 1.802835000000000036e+03
3.200000000000000067e-02 1.414679999999999827e-01 2.302139999999999986e+01 7.280174999999999841e+01 1.802904999999999973e+03
3.300000000000000155e-02 1.414715000000000000e-01 2.260940000000000083e+01 7.257695000000001073e+01 1.802940000000000055e+03
3.400000000000000244e-02 1.414715000000000000e-01 2.217300000000000182e+01 7.235980000000000700e+01 1.802950000000000045e+03
3.500000000000000333e-02 1.414699999999999847e-01 2.170465000000000089e+01 7.213580000000000325e+01 1.802940000000000055e+03
3.600000000000000422e-02 1.414664999999999950e-01 2.119404999999999717e+01 7.187004999999999200e+01 1.802909999999999854e+03
3.700000000000000511e-02 1.414595000000000158e-01 2.063380000000000081e+01 7.152599999999999625e+01 1.802855000000000018e+03
3.799999999999999906e-02 1.414495000000000058e-01 2.002465000000000117e+01 7.108270000000000266e+01 1.802764999999999873e+03
3.899999999999999994e-02 1.414350000000000052e-01 1.937825000000000131e+01 7.054689999999999372e+01 1.802644999999999982e+03
4.000000000000000083e-02 1.414179999999999882e-01 1.871710000000000207e+01 6.995635000000000048e+01 1.802500000000000000e+03
4.100000000000000172e-02 1.413995000000000113e-01 1.807135000000000247e+01 6.937624999999999886e+01 1.802335000000000036e+03
4.200000000000000261e-02 1.413814999999999933e-01 1.747460000000000235e+01 6.888675000000000637e+01 1.802175000000000182e+03
4.300000000000000350e-02 1.413665000000000060e-01 1.695749999999999957e+01 6.856790000000000873e+01 1.802039999999999964e+03
4.400000000000000439e-02 1.413570000000000104e-01 1.654289999999999949e+01 6.848380000000000223e+01 1.801954999999999927e+03
4.499999999999999833e-02 1.413544999999999940e-01 1.624195000000000277e+01 6.866944999999999766e+01 1.801930000000000064e+03
4.599999999999999922e-02 1.413605000000000000e-01 1.605249999999999844e+01 6.912420000000000186e+01 1.801974999999999909e+03
4.700000000000000011e-02 1.413754999999999873e-01 1.595939999999999870e+01 6.981085000000000207e+01 1.802094999999999800e+03
4.800000000000000100e-02 1.413969999999999949e-01 1.593740000000000023e+01 7.066179999999999950e+01 1.802280000000000200e+03
4.900000000000000189e-02 1.414239999999999942e-01 1.595465000000000089e+01 7.158914999999998940e+01 1.802519999999999982e+03
5.000000000000000278e-02 1.414535000000000098e-01 1.597690000000000055e+01 7.249684999999999491e+01 1.802784999999999854e+03
5.100000000000000366e-02 1.414829999999999977e-01 1.597155000000000058e+01 7.329310000000000969e+01 1.803045000000000073e+03
5.200000000000000455e-02 1.415099999999999969e-01 1.591045000000000087e+01 7.390020000000001232e+01 1.803284999999999854e+03
5.300000000000000544e-02 1.415315000000000045e-01 1.577219999999999978e+01 7.426094999999999402e+01 1.803480000000000018e+03
5.399999999999999939e-02 1.415454999999999908e-01 1.554269999999999996e+01 7.434190000000000964e+01 1.803610000000000127e+03
5.500000000000000028e-02 1.415504999999999958e-01 1.521505000000000152e+01 7.413245000000000573e+01 1.803659999999999854e+03
5.600000000000000117e-02 1.415465000000000195e-01 1.478860000000000063e+01 7.364140000000000441e+01 1.803630000000000109e+03
5.700000000000000205e-02 1.415335000000000065e-01 1.426739999999999853e+01 7.289265000000000327e+01 1.803514999999999873e+03
5.800000000000000294e-02 1.415109999999999979e-01 1.365930000000000000e+01 7.191949999999999932e+01 1.803320000000000164e+03
5.900000000000000383e-02 1.414805000000000090e-01 1.297435000000000116e+01 7.076024999999999920e+01 1.803045000000000073e+03
6.000000000000000472e-02 1.414424999999999988e-01 1.222439999999999927e+01 6.945470000000000255e+01 1.802704999999999927e+03
6.099999999999999867e-02 1.413979999999999959e-01 1.142224500000000020e+01 6.804194999999999993e+01 1.802315000000000055e+03
6.199999999999999956e-02 1.413494999999999890e-01 1.058201000000000036e+01 6.655989999999999895e+01 1.801875000000000000e+03
6.300000000000000044e-02 1.412970000000000059e-01 9.718709999999999738e+00 6.504534999999999911e+01 1.801405000000000200e+03
6.400000000000000133e-02 1.412424999999999931e-01 8.848824999999999719e+00 6.353509999999999991e+01 1.800909999999999854e+03
6.500000000000000222e-02 1.411864999999999926e-01 7.990320000000000533e+00 6.206669999999999732e+01 1.800409999999999854e+03
6.600000000000000311e-02 1.411315000000000208e-01 7.162520000000000664e+00 6.067934999999999945e+01 1.799904999999999973e+03
6.700000000000000400e-02 1.410779999999999812e-01 6.385959999999999859e+00 5.941420000000000101e+01 1.799429999999999836e+03
6.800000000000000488e-02 1.410285000000000011e-01 5.681869999999999976e+00 5.831354999999999933e+01 1.798980000000000018e+03
6.900000000000000577e-02 1.409845000000000126e-01 5.071524999999999395e+00 5.742000000000000171e+01 1.798579999999999927e+03
7.000000000000000666e-02 1.409469999999999890e-01 4.575420000000000265e+00 5.677455000000000496e+01 1.798240000000000009e+03
7.100000000000000755e-02 1.409185000000000021e-01 4.212379999999999569e+00 5.641505000000000081e+01 1.797970000000000027e+03
7.200000000000000844e-02 1.408995000000000108e-01 3.998699999999999921e+00 5.637369999999999948e+01 1.797789999999999964e+03
7.300000000000000933e-02 1.408915000000000028e-01 3.947375000000000078e+00 5.667549999999999955e+01 1.797710000000000036e+03
7.399999999999999634e-02 1.408955000000000068e-01 4.067479999999999762e+00 5.733670000000000044e+01 1.797740000000000009e+03
7.499999999999999722e-02 1.409135000000000248e-01 4.363785000000000025e+00 5.836379999999999768e+01 1.797880000000000109e+03
7.599999999999999811e-02 1.409434999999999993e-01 4.836560000000000414e+00 5.975319999999999965e+01 1.798139999999999873e+03
7.699999999999999900e-02 1.409874999999999878e-01 5.481679999999999886e+00 6.149145000000000039e+01 1.798530000000000200e+03
7.799999999999999989e-02 1.410445000000000171e-01 6.290894999999999904e+00 6.355644999999999811e+01 1.799025000000000091e+03
7.900000000000000078e-02 1.411140000000000172e-01 7.252309999999999590e+00 6.591810000000000969e+01 1.799644999999999982e+03
8.000000000000000167e-02 1.411955000000000016e-01 8.351024999999999920e+00 6.854064999999999941e+01 1.800360000000000127e+03
8.100000000000000255e-02 1.412869999999999959e-01 9.569805000000000561e+00 7.138439999999999941e+01 1.801180000000000064e+03
8.200000000000000344e-02 1.413885000000000003e-01 1.088998499999999936e+01 7.440755000000000052e+01 1.802090000000000146e+03
8.300000000000000433e-02 1.414970000000000117e-01 1.229212500000000041e+01 7.756819999999999027e+01 1.803065000000000055e+03
8.400000000000000522e-02 1.416129999999999889e-01 1.375685000000000002e+01 8.082669999999998822e+01 1.804105000000000018e+03
8.500000000000000611e-02 1.417335000000000123e-01 1.526544999999999952e+01 8.414619999999999322e+01 1.805194999999999936e+03
8.600000000000000699e-02 1.418579999999999841e-01 1.680045000000000144e+01 8.749469999999999459e+01 1.806319999999999936e+03
8.700000000000000788e-02 1.419850000000000001e-01 1.834619999999999962e+01 9.084555000000000291e+01 1.807470000000000027e+03
8.800000000000000877e-02 1.421129999999999893e-01 1.988889999999999958e+01 9.417770000000000152e+01 1.808634999999999991e+03
8.899999999999999578e-02 1.422419999999999796e-01 2.141675000000000040e+01 9.747544999999999504e+01 1.809815000000000055e+03
8.999999999999999667e-02 1.423709999999999976e-01 2.292034999999999911e+01 1.007295499999999890e+02 1.810990000000000009e+03
9.099999999999999756e-02 1.424995000000000012e-01 2.439199999999999946e+01 1.039337000000000018e+02 1.812170000000000073e+03
9.199999999999999845e-02 1.426264999999999894e-01 2.582569999999999766e+01 1.070865000000000009e+02 1.813339999999999918e+03
9.299999999999999933e-02 1.427525000000000044e-01 2.721724999999999994e+01 1.101880000000000024e+02 1.814505000000000109e+03
9.400000000000000022e-02 1.428774999999999906e-01 2.856315000000000026e+01 1.132409999999999997e+02 1.815650000000000091e+03
9.500000000000000111e-02 1.430009999999999892e-01 2.986104999999999876e+01 1.162475000000000023e+02 1.816795000000000073e+03
9.600000000000000200e-02 1.431235000000000146e-01 3.110895000000000010e+01 1.192104999999999961e+02 1.817929999999999836e+03
9.700000000000000289e-02 1.432439999999999825e-01 3.230519999999999925e+01 1.221310000000000002e+02 1.819045000000000073e+03
9.800000000000000377e-02 1.433630000000000182e-01 3.344800000000000040e+01 1.250090000000000146e+02 1.820154999999999973e+03
9.900000000000000466e-02 1.434810000000000252e-01 3.453565000000000396e+01 1.278419999999999845e+02 1.821250000000000000e+03
1.000000000000000056e-01 1.435969999999999747e-01 3.556615000000000038e+01 1.306264999999999930e+02 1.822335000000000036e+03
1.010000000000000064e-01 1.437120000000000064e-01 3.653725000000000023e+01 1.333555000000000064e+02 1.823404999999999973e+03
1.020000000000000073e-01 1.438244999999999940e-01 3.744650000000000034e+01 1.360235000000000127e+02 1.824450000000000045e+03
1.030000000000000082e-01 1.439344999999999930e-01 3.829110000000000014e+01 1.386195000000000164e+02 1.825485000000000127e+03
1.040000000000000091e-01 1.440425000000000177e-01 3.906815000000000282e+01 1.411359999999999957e+02 1.826494999999999891e+03
1.050000000000000100e-01 1.441474999999999840e-01 3.977465000000000117e+01 1.435610000000000070e+02 1.827474999999999909e+03
1.059999999999999970e-01 1.442490000000000161e-01 4.040749999999999886e+01 1.458855000000000075e+02 1.828434999999999945e+03
1.069999999999999979e-01 1.443470000000000031e-01 4.096370000000000289e+01 1.480975000000000250e+02 1.829349999999999909e+03
1.079999999999999988e-01 1.444404999999999994e-01 4.144039999999999679e+01 1.501875000000000000e+02 1.830235000000000127e+03
1.089999999999999997e-01 1.445299999999999918e-01 4.183490000000000464e+01 1.521454999999999984e+02 1.831074999999999818e+03
1.100000000000000006e-01 1.446144999999999792e-01 4.214489999999999981e+01 1.539635000000000105e+02 1.831875000000000000e+03
1.110000000000000014e-01 1.446935000000000027e-01 4.236840000000000117e+01 1.556320000000000050e+02 1.832625000000000000e+03
1.120000000000000023e-01 1.447669999999999790e-01 4.250390000000000157e+01 1.571454999999999984e+02 1.833320000000000164e+03
1.130000000000000032e-01 1.448345000000000049e-01 4.255049999999999955e+01 1.584979999999999905e+02 1.833965000000000146e+03
1.140000000000000041e-01 1.448959999999999970e-01 4.250804999999999723e+01 1.596864999999999952e+02 1.834550000000000182e+03
1.150000000000000050e-01 1.449515000000000109e-01 4.237695000000000078e+01 1.607074999999999818e+02 1.835079999999999927e+03
1.160000000000000059e-01 1.450005000000000044e-01 4.215864999999999441e+01 1.615620000000000118e+02 1.835550000000000182e+03
1.170000000000000068e-01 1.450430000000000053e-01 4.185544999999999760e+01 1.622515000000000214e+02 1.835960000000000036e+03
1.180000000000000077e-01 1.450790000000000135e-01 4.147050000000000125e+01 1.627805000000000177e+02 1.836305000000000064e+03
1.190000000000000085e-01 1.451085000000000014e-01 4.100789999999999935e+01 1.631539999999999964e+02 1.836594999999999800e+03
1.200000000000000094e-01 1.451324999999999976e-01 4.047279999999999944e+01 1.633815000000000168e+02 1.836829999999999927e+03
1.209999999999999964e-01 1.451500000000000012e-01 3.987095000000000056e+01 1.634714999999999918e+02 1.837005000000000109e+03
1.219999999999999973e-01 1.451620000000000132e-01 3.920889999999999986e+01 1.634364999999999952e+02 1.837125000000000000e+03
1.229999999999999982e-01 1.451689999999999925e-01 3.849384999999999479e+01 1.632889999999999873e+02 1.837195000000000164e+03
1.239999999999999991e-01 1.451709999999999945e-01 3.773329999999999984e+01 1.630425000000000182e+02 1.837224999999999909e+03
1.250000000000000000e-01 1.451689999999999925e-01 3.693505000000000393e+01 1.627110000000000127e+02 1.837210000000000036e+03
1.260000000000000009e-01 1.451624999999999999e-01 3.610684999999999434e+01 1.623085000000000093e+02 1.837159999999999854e+03
1.270000000000000018e-01 1.451534999999999909e-01 3.525634999999999764e+01 1.618489999999999895e+02 1.837079999999999927e+03
1.280000000000000027e-01 1.451409999999999922e-01 3.439090000000000202e+01 1.613449999999999989e+02 1.836965000000000146e+03
1.290000000000000036e-01 1.451270000000000060e-01 3.351720000000000255e+01 1.608075000000000045e+02 1.836840000000000146e+03
1.300000000000000044e-01 1.451100000000000168e-01 3.264150000000000063e+01 1.602470000000000141e+02 1.836684999999999945e+03
1.310000000000000053e-01 1.450919999999999987e-01 3.176909999999999812e+01 1.596719999999999970e+02 1.836519999999999982e+03
1.320000000000000062e-01 1.450730000000000075e-01 3.090455000000000041e+01 1.590894999999999868e+02 1.836340000000000146e+03
1.330000000000000071e-01 1.450535000000000019e-01 3.005154999999999887e+01 1.585029999999999859e+02 1.836154999999999973e+03
1.340000000000000080e-01 1.450325000000000086e-01 2.921269999999999811e+01 1.579164999999999850e+02 1.835960000000000036e+03
1.350000000000000089e-01 1.450115000000000154e-01 2.838994999999999891e+01 1.573305000000000007e+02 1.835764999999999873e+03
1.360000000000000098e-01 1.449900000000000078e-01 2.758409999999999940e+01 1.567450000000000045e+02 1.835559999999999945e+03
1.370000000000000107e-01 1.449679999999999858e-01 2.679525000000000290e+01 1.561575000000000273e+02 1.835349999999999909e+03
1.380000000000000115e-01 1.449460000000000193e-01 2.602295000000000158e+01 1.555649999999999977e+02 1.835144999999999982e+03
1.390000000000000124e-01 1.449230000000000240e-01 2.526575000000000060e+01 1.549625000000000057e+02 1.834924999999999955e+03
1.400000000000000133e-01 1.449000000000000010e-01 2.452205000000000013e+01 1.543460000000000036e+02 1.834704999999999927e+03
1.410000000000000142e-01 1.448760000000000048e-01 2.378954999999999842e+01 1.537094999999999914e+02 1.834480000000000018e+03
1.420000000000000151e-01 1.448514999999999942e-01 2.306600000000000250e+01 1.530480000000000018e+02 1.834244999999999891e+03
1.430000000000000160e-01 1.448254999999999959e-01 2.234874999999999901e+01 1.523550000000000182e+02 1.834000000000000000e+03
1.440000000000000169e-01 1.447984999999999967e-01 2.163530000000000086e+01 1.516270000000000095e+02 1.833750000000000000e+03
1.450000000000000178e-01 1.447700000000000098e-01 2.092320000000000135e+01 1.508575000000000159e+02 1.833474999999999909e+03
1.459999999999999909e-01 1.447399999999999798e-01 2.021029999999999660e+01 1.500444999999999993e+02 1.833194999999999936e+03
1.469999999999999918e-01 1.447084999999999899e-01 1.949479999999999791e+01 1.491845000000000141e+02 1.832900000000000091e+03
1.479999999999999927e-01 1.446749999999999980e-01 1.877524999999999977e+01 1.482754999999999939e+02 1.832585000000000036e+03
1.489999999999999936e-01 1.446395000000000042e-01 1.805090000000000217e+01 1.473185000000000002e+02 1.832255000000000109e+03
1.499999999999999944e-01 1.446029999999999816e-01 1.732140000000000057e+01 1.463135000000000048e+02 1.831904999999999973e+03
1.509999999999999953e-01 1.445639999999999981e-01 1.658705000000000140e+01 1.452629999999999768e+02 1.831539999999999964e+03
1.519999999999999962e-01 1.445230000000000126e-01 1.584900000000000020e+01 1.441719999999999970e+02 1.831159999999999854e+03
1.529999999999999971e-01 1.444805000000000117e-01 1.510875000000000057e+01 1.430444999999999993e+02 1.830769999999999982e+03
1.539999999999999980e-01 1.444370000000000098e-01 1.436854999999999905e+01 1.418874999999999886e+02 1.830360000000000127e+03
1.549999999999999989e-01 1.443924999999999792e-01 1.363124999999999964e+01 1.407085000000000150e+02 1.829940000000000055e+03
1.559999999999999998e-01 1.443460000000000021e-01 1.290005000000000024e+01 1.395165000000000077e+02 1.829509999999999991e+03
1.570000000000000007e-01 1.442994999999999972e-01 1.217857000000000056e+01 1.383195000000000050e+02 1.829074999999999818e+03
1.580000000000000016e-01 1.442525000000000057e-01 1.147077499999999972e+01 1.371285000000000025e+02 1.828630000000000109e+03
1.590000000000000024e-01 1.442054999999999865e-01 1.078068000000000026e+01 1.359519999999999982e+02 1.828190000000000055e+03
