# t [s], A [cm^2], U [cm/s], P [cPa], c [cm/s]
1.000000000000000021e-03 1.805800000000000183e-01 4.345119250000000211e-01 9.168704999999999927e+01 2.163625000000000000e+03
2.000000000000000042e-03 1.805174999999999974e-01 2.065465000000000106e+00 8.783294999999999675e+01 2.163055000000000291e+03
3.000000000000000062e-03 1.803704999999999892e-01 4.037530000000000285e+00 8.263689999999999714e+01 2.161760000000000218e+03
4.000000000000000083e-03 1.801844999999999974e-01 6.260190000000000587e+00 7.743529999999999802e+01 2.160144999999999982e+03
5.000000000000000104e-03 1.799979999999999913e-01 8.607915000000000205e+00 7.319719999999999516e+01 2.158534999999999854e+03
6.000000000000000125e-03 1.798250000000000126e-01 1.078938499999999934e+01 6.984194999999999709e+01 2.157065000000000055e+03
7.000000000000000146e-03 1.796649999999999914e-01 1.259483999999999959e+01 6.685460000000000491e+01 2.155739999999999782e+03
8.000000000000000167e-03 1.795239999999999891e-01 1.405726499999999923e+01 6.420064999999999600e+01 2.154585000000000036e+03
9.000000000000001055e-03 1.794060000000000099e-01 1.524320000000000164e+01 6.204694999999999538e+01 2.153630000000000109e+03
1.000000000000000194e-02 1.793104999999999838e-01 1.617239999999999966e+01 6.037259999999999849e+01 2.152869999999999891e+03
1.099999999999999936e-02 1.792354999999999920e-01 1.686984999999999957e+01 5.910479999999999734e+01 2.152280000000000200e+03
1.200000000000000025e-02 1.791780000000000039e-01 1.734629999999999939e+01 5.813410000000000366e+01 2.151840000000000146e+03
1.300000000000000114e-02 1.791314999999999991e-01 1.760824999999999818e+01 5.729295000000000471e+01 2.151484999999999673e+03
1.400000000000000203e-02 1.790935000000000166e-01 1.774754999999999683e+01 5.659834999999999638e+01 2.151204999999999927e+03
1.499999999999999944e-02 1.790724999999999956e-01 1.797145000000000081e+01 5.645974999999999966e+01 2.151059999999999945e+03
1.600000000000000033e-02 1.790835000000000066e-01 1.849484999999999957e+01 5.747545000000000215e+01 2.151154999999999745e+03
1.700000000000000122e-02 1.791369999999999907e-01 1.938765000000000072e+01 5.995015000000000072e+01 2.151585000000000036e+03
1.800000000000000211e-02 1.792300000000000004e-01 2.050804999999999723e+01 6.355780000000000030e+01 2.152329999999999927e+03
1.900000000000000300e-02 1.793434999999999890e-01 2.156250000000000000e+01 6.740004999999999313e+01 2.153255000000000109e+03
2.000000000000000042e-02 1.794505000000000128e-01 2.224170000000000158e+01 7.038864999999999839e+01 2.154140000000000327e+03
2.100000000000000130e-02 1.795235000000000025e-01 2.235260000000000247e+01 7.171240000000000236e+01 2.154765000000000327e+03
2.200000000000000219e-02 1.795490000000000141e-01 2.188725000000000165e+01 7.115090000000000714e+01 2.155005000000000109e+03
2.299999999999999961e-02 1.795264999999999778e-01 2.100469999999999970e+01 6.910720000000000596e+01 2.154864999999999782e+03
2.400000000000000050e-02 1.794715000000000060e-01 1.994550000000000267e+01 6.637255000000000393e+01 2.154435000000000400e+03
2.500000000000000139e-02 1.794040000000000079e-01 1.892660000000000053e+01 6.376359999999999673e+01 2.153900000000000091e+03
2.600000000000000228e-02 1.793410000000000004e-01 1.806524999999999892e+01 6.180910000000000082e+01 2.153385000000000218e+03
2.700000000000000316e-02 1.792920000000000069e-01 1.735929999999999751e+01 6.061195000000000022e+01 2.152974999999999909e+03
2.800000000000000058e-02 1.792564999999999853e-01 1.671849999999999881e+01 5.990590000000000259e+01 2.152675000000000182e+03
2.900000000000000147e-02 1.792265000000000108e-01 1.602544999999999931e+01 5.924649999999999750e+01 2.152425000000000182e+03
3.000000000000000236e-02 1.791920000000000179e-01 1.519784999999999897e+01 5.824020000000000152e+01 2.152150000000000091e+03
3.099999999999999978e-02 1.791459999999999997e-01 1.423189999999999955e+01 5.672615000000000407e+01 2.151784999999999854e+03
3.200000000000000067e-02 1.790895000000000126e-01 1.321265000000000001e+01 5.485290000000000532e+01 2.151329999999999927e+03
3.300000000000000155e-02 1.790295000000000081e-01 1.228870000000000040e+01 5.302984999999999616e+01 2.150840000000000146e+03
3.400000000000000244e-02 1.789784999999999848e-01 1.162297000000000047e+01 5.177814999999999657e+01 2.150414999999999964e+03
3.500000000000000333e-02 1.789499999999999980e-01 1.133719999999999928e+01 5.154064999999999941e+01 2.150175000000000182e+03
3.600000000000000422e-02 1.789545000000000163e-01 1.147075000000000067e+01 5.252235000000000298e+01 2.150184999999999945e+03
3.700000000000000511e-02 1.789934999999999998e-01 1.196679999999999922e+01 5.461440000000000339e+01 2.150480000000000018e+03
3.799999999999999906e-02 1.790605000000000113e-01 1.268564999999999898e+01 5.741779999999999973e+01 2.151005000000000109e+03
3.899999999999999994e-02 1.791435000000000111e-01 1.343880000000000052e+01 6.034570000000000078e+01 2.151664999999999964e+03
4.000000000000000083e-02 1.792245000000000088e-01 1.402990000000000137e+01 6.276470000000000482e+01 2.152324999999999818e+03
4.100000000000000172e-02 1.792870000000000019e-01 1.429224999999999923e+01 6.413030000000000541e+01 2.152835000000000036e+03
4.200000000000000261e-02 1.793150000000000022e-01 1.411394999999999911e+01 6.408350000000000080e+01 2.153079999999999927e+03
4.300000000000000350e-02 1.793005000000000015e-01 1.344810000000000016e+01 6.249384999999999479e+01 2.152984999999999673e+03
4.400000000000000439e-02 1.792404999999999970e-01 1.230913999999999930e+01 5.944715000000000060e+01 2.152514999999999873e+03
4.499999999999999833e-02 1.791369999999999907e-01 1.075907499999999928e+01 5.519365000000000521e+01 2.151694999999999709e+03
4.599999999999999922e-02 1.789975000000000038e-01 8.889385000000000758e+00 5.007689999999999486e+01 2.150574999999999818e+03
4.700000000000000011e-02 1.788319999999999910e-01 6.804410000000000736e+00 4.446490000000000009e+01 2.149234999999999673e+03
4.800000000000000100e-02 1.786494999999999889e-01 4.608513000000000304e+00 3.869934999999999548e+01 2.147755000000000109e+03
4.900000000000000189e-02 1.784605000000000219e-01 2.399680000000000035e+00 3.306950000000000500e+01 2.146224999999999909e+03
5.000000000000000278e-02 1.782739999999999880e-01 2.675900000000002166e-01 2.780790000000000006e+01 2.144704999999999927e+03
5.100000000000000366e-02 1.780979999999999785e-01 -1.705265000000000253e+00 2.310135000000000005e+01 2.143269999999999982e+03
5.200000000000000455e-02 1.779384999999999994e-01 -3.441819500000000254e+00 1.910665000000000191e+01 2.141965000000000146e+03
5.300000000000000544e-02 1.778025000000000022e-01 -4.869799999999999685e+00 1.596333999999999875e+01 2.140840000000000146e+03
5.399999999999999939e-02 1.776935000000000042e-01 -5.923170000000000712e+00 1.379858499999999921e+01 2.139940000000000055e+03
5.500000000000000028e-02 1.776174999999999837e-01 -6.545550000000000423e+00 1.272327499999999922e+01 2.139305000000000291e+03
5.600000000000000117e-02 1.775785000000000002e-01 -6.694894999999999818e+00 1.282075000000000031e+01 2.138960000000000036e+03
5.700000000000000205e-02 1.775785000000000002e-01 -6.348190000000000666e+00 1.413330000000000020e+01 2.138930000000000291e+03
5.800000000000000294e-02 1.776194999999999857e-01 -5.504910000000000636e+00 1.664999999999999858e+01 2.139230000000000018e+03
5.900000000000000383e-02 1.777004999999999835e-01 -4.188180000000000014e+00 2.030105000000000004e+01 2.139855000000000018e+03
6.000000000000000472e-02 1.778190000000000048e-01 -2.443459999999999965e+00 2.495925000000000082e+01 2.140784999999999854e+03
6.099999999999999867e-02 1.779719999999999913e-01 -3.349250000000001393e-01 3.044975000000000165e+01 2.142000000000000000e+03
6.199999999999999956e-02 1.781520000000000048e-01 2.059744999999999937e+00 3.656490000000000151e+01 2.143440000000000055e+03
6.300000000000000044e-02 1.783540000000000125e-01 4.655146499999999854e+00 4.308155000000000001e+01 2.145069999999999709e+03
6.400000000000000133e-02 1.785710000000000075e-01 7.363730000000000331e+00 4.977785000000000082e+01 2.146819999999999709e+03
6.500000000000000222e-02 1.787949999999999817e-01 1.010078500000000012e+01 5.644740000000000180e+01 2.148639999999999873e+03
6.600000000000000311e-02 1.790200000000000125e-01 1.278840499999999913e+01 6.290970000000000084e+01 2.150480000000000018e+03
6.700000000000000400e-02 1.792400000000000104e-01 1.535875000000000057e+01 6.901739999999999498e+01 2.152284999999999854e+03
6.800000000000000488e-02 1.794499999999999984e-01 1.775685000000000002e+01 7.466155000000000541e+01 2.154019999999999982e+03
6.900000000000000577e-02 1.796464999999999868e-01 1.994270000000000209e+01 7.977405000000000257e+01 2.155645000000000437e+03
7.000000000000000666e-02 1.798270000000000146e-01 2.189260000000000161e+01 8.432949999999999591e+01 2.157150000000000091e+03
7.100000000000000755e-02 1.799904999999999977e-01 2.359975000000000023e+01 8.834459999999999980e+01 2.158515000000000327e+03
7.200000000000000844e-02 1.801380000000000203e-01 2.507365000000000066e+01 9.187469999999999004e+01 2.159744999999999891e+03
7.300000000000000933e-02 1.802699999999999858e-01 2.633859999999999957e+01 9.500845000000001050e+01 2.160860000000000127e+03
7.399999999999999634e-02 1.803899999999999948e-01 2.743050000000000210e+01 9.785984999999999445e+01 2.161875000000000000e+03
7.499999999999999722e-02 1.805019999999999958e-01 2.839325000000000188e+01 1.005551999999999992e+02 2.162814999999999600e+03
7.599999999999999811e-02 1.806085000000000051e-01 2.927430000000000021e+01 1.032233999999999980e+02 2.163715000000000146e+03
7.699999999999999900e-02 1.807139999999999858e-01 3.012035000000000196e+01 1.059834999999999923e+02 2.164605000000000018e+03
7.799999999999999989e-02 1.808224999999999971e-01 3.097284999999999755e+01 1.089339999999999975e+02 2.165510000000000218e+03
7.900000000000000078e-02 1.809365000000000001e-01 3.186505000000000365e+01 1.121450000000000102e+02 2.166465000000000146e+03
8.000000000000000167e-02 1.810579999999999967e-01 3.281920000000000215e+01 1.156514999999999986e+02 2.167485000000000127e+03
8.100000000000000255e-02 1.811885000000000023e-01 3.384505000000000052e+01 1.194555000000000007e+02 2.168565000000000055e+03
8.200000000000000344e-02 1.813279999999999892e-01 3.494020000000000437e+01 1.235210000000000008e+02 2.169730000000000018e+03
8.300000000000000433e-02 1.814749999999999974e-01 3.609029999999999916e+01 1.277849999999999966e+02 2.170949999999999818e+03
8.400000000000000522e-02 1.816269999999999829e-01 3.727115000000000578e+01 1.321589999999999918e+02 2.172215000000000146e+03
8.500000000000000611e-02 1.817819999999999991e-01 3.845074999999999932e+01 1.365384999999999991e+02 2.173510000000000218e+03
8.600000000000000699e-02 1.819365000000000010e-01 3.959229999999999450e+01 1.408125000000000000e+02 2.174800000000000182e+03
8.700000000000000788e-02 1.820864999999999845e-01 4.065694999999999482e+01 1.448675000000000068e+02 2.176059999999999945e+03
8.800000000000000877e-02 1.822294999999999887e-01 4.160660000000000025e+01 1.486005000000000109e+02 2.177265000000000327e+03
8.899999999999999578e-02 1.823615000000000097e-01 4.240619999999999834e+01 1.519200000000000159e+02 2.178369999999999891e+03
8.999999999999999667e-02 1.824795000000000167e-01 4.302644999999999698e+01 1.547545000000000073e+02 2.179375000000000000e+03
9.099999999999999756e-02 1.825815000000000077e-01 4.344495000000000573e+01 1.570529999999999973e+02 2.180239999999999782e+03
9.199999999999999845e-02 1.826659999999999950e-01 4.364770000000000039e+01 1.587900000000000205e+02 2.180960000000000036e+03
9.299999999999999933e-02 1.827314999999999912e-01 4.362940000000000396e+01 1.599619999999999891e+02 2.181519999999999982e+03
9.400000000000000022e-02 1.827774999999999817e-01 4.339385000000000048e+01 1.605889999999999986e+02 2.181930000000000291e+03
9.500000000000000111e-02 1.828059999999999963e-01 4.295305000000000462e+01 1.607105000000000246e+02 2.182185000000000400e+03
9.600000000000000200e-02 1.828174999999999939e-01 4.232654999999999745e+01 1.603849999999999909e+02 2.182300000000000182e+03
9.700000000000000289e-02 1.828139999999999765e-01 4.154009999999999536e+01 1.596814999999999998e+02 2.182284999999999854e+03
9.800000000000000377e-02 1.827975000000000017e-01 4.062380000000000280e+01 1.586790000000000020e+02 2.182154999999999745e+03
9.900000000000000466e-02 1.827699999999999880e-01 3.961090000000000089e+01 1.574605000000000246e+02 2.181940000000000055e+03
1.000000000000000056e-01 1.827349999999999808e-01 3.853560000000000230e+01 1.561080000000000041e+02 2.181654999999999745e+03
1.010000000000000064e-01 1.826944999999999819e-01 3.743184999999999718e+01 1.547009999999999934e+02 2.181324999999999818e+03
1.020000000000000073e-01 1.826519999999999810e-01 3.633145000000000380e+01 1.533125000000000000e+02 2.180970000000000255e+03
1.030000000000000082e-01 1.826089999999999935e-01 3.526279999999999859e+01 1.520034999999999741e+02 2.180609999999999673e+03
1.040000000000000091e-01 1.825674999999999937e-01 3.424984999999999502e+01 1.508234999999999957e+02 2.180265000000000327e+03
1.050000000000000100e-01 1.825289999999999968e-01 3.331119999999999948e+01 1.498089999999999975e+02 2.179944999999999709e+03
1.059999999999999970e-01 1.824959999999999916e-01 3.245929999999999893e+01 1.489809999999999945e+02 2.179659999999999854e+03
1.069999999999999979e-01 1.824680000000000191e-01 3.170035000000000025e+01 1.483449999999999989e+02 2.179420000000000073e+03
1.079999999999999988e-01 1.824459999999999971e-01 3.103430000000000177e+01 1.478924999999999841e+02 2.179230000000000018e+03
1.089999999999999997e-01 1.824295000000000222e-01 3.045485000000000042e+01 1.476009999999999991e+02 2.179079999999999927e+03
1.100000000000000006e-01 1.824175000000000102e-01 2.995054999999999978e+01 1.474345000000000141e+02 2.178974999999999909e+03
1.110000000000000014e-01 1.824089999999999878e-01 2.950534999999999997e+01 1.473485000000000014e+02 2.178899999999999636e+03
1.120000000000000023e-01 1.824034999999999962e-01 2.909980000000000189e+01 1.472930000000000064e+02 2.178840000000000146e+03
1.130000000000000032e-01 1.823980000000000046e-01 2.871255000000000024e+01 1.472119999999999891e+02 2.178795000000000073e+03
1.140000000000000041e-01 1.823919999999999986e-01 2.832135000000000247e+01 1.470509999999999877e+02 2.178739999999999782e+03
1.150000000000000050e-01 1.823830000000000173e-01 2.790489999999999782e+01 1.467595000000000027e+02 2.178659999999999854e+03
1.160000000000000059e-01 1.823699999999999766e-01 2.744380000000000308e+01 1.462925000000000182e+02 2.178550000000000182e+03
1.170000000000000068e-01 1.823509999999999853e-01 2.692200000000000060e+01 1.456159999999999854e+02 2.178389999999999873e+03
1.180000000000000077e-01 1.823250000000000148e-01 2.632775000000000176e+01 1.447065000000000055e+02 2.178180000000000291e+03
1.190000000000000085e-01 1.822920000000000096e-01 2.565429999999999922e+01 1.435544999999999902e+02 2.177899999999999636e+03
1.200000000000000094e-01 1.822505000000000097e-01 2.490044999999999931e+01 1.421645000000000039e+02 2.177565000000000055e+03
1.209999999999999964e-01 1.822020000000000028e-01 2.407045000000000101e+01 1.405569999999999879e+02 2.177159999999999854e+03
1.219999999999999973e-01 1.821464999999999890e-01 2.317389999999999972e+01 1.387624999999999886e+02 2.176699999999999818e+03
1.229999999999999982e-01 1.820844999999999825e-01 2.222514999999999930e+01 1.368234999999999957e+02 2.176184999999999945e+03
1.239999999999999991e-01 1.820180000000000131e-01 2.124224999999999852e+01 1.347925000000000182e+02 2.175630000000000109e+03
1.250000000000000000e-01 1.819485000000000130e-01 2.024600000000000222e+01 1.327249999999999943e+02 2.175050000000000182e+03
1.260000000000000009e-01 1.818770000000000109e-01 1.925890000000000057e+01 1.306809999999999832e+02 2.174465000000000146e+03
1.270000000000000018e-01 1.818075000000000108e-01 1.830339999999999989e+01 1.287169999999999845e+02 2.173875000000000000e+03
1.280000000000000027e-01 1.817400000000000126e-01 1.740115000000000123e+01 1.268875000000000028e+02 2.173309999999999945e+03
1.290000000000000036e-01 1.816760000000000042e-01 1.657169999999999987e+01 1.252384999999999877e+02 2.172779999999999745e+03
1.300000000000000044e-01 1.816185000000000160e-01 1.583145000000000024e+01 1.238085000000000093e+02 2.172295000000000073e+03
1.310000000000000053e-01 1.815680000000000072e-01 1.519284999999999997e+01 1.226235000000000070e+02 2.171864999999999782e+03
1.320000000000000062e-01 1.815259999999999929e-01 1.466430000000000078e+01 1.216995000000000005e+02 2.171510000000000218e+03
1.330000000000000071e-01 1.814919999999999867e-01 1.424954999999999927e+01 1.210405000000000086e+02 2.171215000000000146e+03
1.340000000000000080e-01 1.814665000000000028e-01 1.394780000000000086e+01 1.206400000000000006e+02 2.170994999999999891e+03
1.350000000000000089e-01 1.814500000000000002e-01 1.375414999999999921e+01 1.204805000000000064e+02 2.170849999999999909e+03
1.360000000000000098e-01 1.814410000000000189e-01 1.365990000000000038e+01 1.205370000000000061e+02 2.170765000000000327e+03
1.370000000000000107e-01 1.814395000000000036e-01 1.365315000000000012e+01 1.207775000000000034e+02 2.170750000000000000e+03
1.380000000000000115e-01 1.814445000000000086e-01 1.371954999999999991e+01 1.211640000000000015e+02 2.170779999999999745e+03
1.390000000000000124e-01 1.814545000000000186e-01 1.384315000000000140e+01 1.216574999999999989e+02 2.170855000000000018e+03
1.400000000000000133e-01 1.814680000000000182e-01 1.400724999999999909e+01 1.222169999999999987e+02 2.170960000000000036e+03
1.410000000000000142e-01 1.814839999999999787e-01 1.419500000000000028e+01 1.228040000000000020e+02 2.171095000000000255e+03
1.420000000000000151e-01 1.815009999999999957e-01 1.439024999999999999e+01 1.233815000000000026e+02 2.171230000000000018e+03
1.430000000000000160e-01 1.815189999999999859e-01 1.457799999999999940e+01 1.239175000000000040e+02 2.171380000000000109e+03
1.440000000000000169e-01 1.815355000000000163e-01 1.474540000000000006e+01 1.243849999999999909e+02 2.171515000000000327e+03
1.450000000000000178e-01 1.815499999999999892e-01 1.488165000000000049e+01 1.247620000000000005e+02 2.171635000000000218e+03
1.459999999999999909e-01 1.815620000000000012e-01 1.497860000000000014e+01 1.250339999999999918e+02 2.171730000000000018e+03
1.469999999999999918e-01 1.815705000000000235e-01 1.503085000000000093e+01 1.251939999999999884e+02 2.171805000000000291e+03
1.479999999999999927e-01 1.815755000000000008e-01 1.503584999999999994e+01 1.252390000000000043e+02 2.171855000000000018e+03
1.489999999999999936e-01 1.815775000000000028e-01 1.499374999999999858e+01 1.251754999999999995e+02 2.171875000000000000e+03
1.499999999999999944e-01 1.815760000000000152e-01 1.490739999999999910e+01 1.250125000000000028e+02 2.171860000000000127e+03
1.509999999999999953e-01 1.815709999999999824e-01 1.478150000000000119e+01 1.247665000000000077e+02 2.171824999999999818e+03
1.519999999999999962e-01 1.815634999999999888e-01 1.462294999999999945e+01 1.244549999999999983e+02 2.171764999999999873e+03
1.529999999999999971e-01 1.815539999999999932e-01 1.443955000000000055e+01 1.240999999999999943e+02 2.171689999999999600e+03
1.539999999999999980e-01 1.815424999999999955e-01 1.424000000000000021e+01 1.237220000000000084e+02 2.171595000000000255e+03
1.549999999999999989e-01 1.815304999999999835e-01 1.403320000000000078e+01 1.233419999999999987e+02 2.171500000000000000e+03
1.559999999999999998e-01 1.815184999999999993e-01 1.382764999999999844e+01 1.229809999999999945e+02 2.171399999999999636e+03
1.570000000000000007e-01 1.815074999999999883e-01 1.363095000000000034e+01 1.226544999999999987e+02 2.171305000000000291e+03
1.580000000000000016e-01 1.814965000000000050e-01 1.344960000000000022e+01 1.223760000000000048e+02 2.171220000000000255e+03
1.590000000000000024e-01 1.814874999999999960e-01 1.328845000000000098e+01 1.221539999999999964e+02 2.171144999999999982e+03
