# t [s], A [cm^2], U [cm/s], P [cPa], c [cm/s]
1.000000000000000021e-03 7.050140000000000295e-01 6.915999999999998538e-03 1.042085000000000008e+02 1.765900000000000091e+03
2.000000000000000042e-03 7.050039999999999640e-01 1.067429999999999421e-03 1.041744999999999948e+02 1.765894999999999982e+03
3.000000000000000062e-03 7.050749999999998963e-01 1.275783500000000070e-01 1.043265000000000100e+02 1.765924999999999955e+03
4.000000000000000083e-03 7.051140000000000185e-01 2.169610999999999901e-01 1.044394999999999953e+02 1.765949999999999818e+03
5.000000000000000104e-03 7.050534999999999997e-01 1.432694999999999941e-01 1.042760000000000105e+02 1.765920000000000073e+03
6.000000000000000125e-03 7.049750000000000183e-01 2.918100000000001248e-02 1.039584999999999866e+02 1.765860000000000127e+03
7.000000000000000146e-03 7.048969999999999958e-01 -9.658450000000001756e-02 1.035564999999999998e+02 1.765779999999999973e+03
8.000000000000000167e-03 7.047520000000000451e-01 -3.590800000000000658e-01 1.029080000000000013e+02 1.765650000000000091e+03
9.000000000000001055e-03 7.045295000000000307e-01 -7.796599999999999087e-01 1.019350499999999897e+02 1.765460000000000036e+03
1.000000000000000194e-02 7.042159999999999531e-01 -1.371934999999999683e+00 1.005669499999999914e+02 1.765194999999999936e+03
1.099999999999999936e-02 7.037849999999999939e-01 -2.163804999999999978e+00 9.870439999999999259e+01 1.764825000000000045e+03
1.200000000000000025e-02 7.032644999999999591e-01 -3.079755000000000020e+00 9.638745000000000118e+01 1.764349999999999909e+03
1.300000000000000114e-02 7.027449999999999530e-01 -3.920885000000000176e+00 9.386639999999999873e+01 1.763820000000000164e+03
1.400000000000000203e-02 7.023175000000000390e-01 -4.478863499999999220e+00 9.147485000000000355e+01 1.763295000000000073e+03
1.499999999999999944e-02 7.020165000000000433e-01 -4.647956999999999894e+00 8.944575000000000387e+01 1.762815000000000055e+03
1.600000000000000033e-02 7.018149999999999666e-01 -4.452955000000000219e+00 8.782484999999999786e+01 1.762405000000000200e+03
1.700000000000000122e-02 7.016484999999998973e-01 -4.008839999999999293e+00 8.649039999999999395e+01 1.762045000000000073e+03
1.800000000000000211e-02 7.014510000000000467e-01 -3.455150000000000166e+00 8.523695000000000732e+01 1.761695000000000164e+03
1.900000000000000300e-02 7.011810000000000542e-01 -2.896355499999999861e+00 8.387495000000001255e+01 1.761335000000000036e+03
2.000000000000000042e-02 7.008354999999999446e-01 -2.368048000000000375e+00 8.230655000000000143e+01 1.760940000000000055e+03
2.100000000000000130e-02 7.004414999999999392e-01 -1.839555000000000051e+00 8.054964999999999975e+01 1.760505000000000109e+03
2.200000000000000219e-02 7.000420000000000531e-01 -1.248549999999999827e+00 7.870445000000000846e+01 1.760055000000000064e+03
2.299999999999999961e-02 6.996679999999999566e-01 -5.468500000000000583e-01 7.688669999999999050e+01 1.759599999999999909e+03
2.400000000000000050e-02 6.993255000000000443e-01 2.654000000000000803e-01 7.516245000000000687e+01 1.759164999999999964e+03
2.500000000000000139e-02 6.989950000000000330e-01 1.129094999999999960e+00 7.351144999999999641e+01 1.758735000000000127e+03
2.600000000000000228e-02 6.986350000000000060e-01 1.938324999999999854e+00 7.182630000000000337e+01 1.758305000000000064e+03
2.700000000000000316e-02 6.981984999999999442e-01 2.568284999999999485e+00 6.994339999999999691e+01 1.757839999999999918e+03
2.800000000000000058e-02 6.976470000000000171e-01 2.910094999999999654e+00 6.769464999999999577e+01 1.757309999999999945e+03
2.900000000000000147e-02 6.969659999999999744e-01 2.902674999999999894e+00 6.496424999999999272e+01 1.756690000000000055e+03
3.000000000000000236e-02 6.961675000000000502e-01 2.551020000000000287e+00 6.173319999999999652e+01 1.755970000000000027e+03
3.099999999999999978e-02 6.952935000000000088e-01 1.924494999999999401e+00 5.809414999999999907e+01 1.755164999999999964e+03
3.200000000000000067e-02 6.944010000000000460e-01 1.136385000000000645e+00 5.423395000000000010e+01 1.754309999999999945e+03
3.300000000000000155e-02 6.935510000000000286e-01 3.146900000000005804e-01 5.039244999999999663e+01 1.753450000000000045e+03
3.400000000000000244e-02 6.927939999999999099e-01 -4.245599999999996044e-01 4.681494999999999607e+01 1.752630000000000109e+03
3.500000000000000333e-02 6.921684999999999643e-01 -9.944299999999999251e-01 4.371320000000000050e+01 1.751889999999999873e+03
3.600000000000000422e-02 6.916934999999999611e-01 -1.342489999999999739e+00 4.124099999999999966e+01 1.751275000000000091e+03
3.700000000000000511e-02 6.913759999999999906e-01 -1.447330000000000227e+00 3.948744999999999550e+01 1.750809999999999945e+03
3.799999999999999906e-02 6.912114999999999787e-01 -1.309175000000000200e+00 3.848284999999999911e+01 1.750505000000000109e+03
3.899999999999999994e-02 6.911920000000000286e-01 -9.385799999999999699e-01 3.821479999999999677e+01 1.750360000000000127e+03
4.000000000000000083e-02 6.913080000000000336e-01 -3.466049999999999409e-01 3.864664999999999395e+01 1.750380000000000109e+03
4.100000000000000172e-02 6.915514999999999857e-01 4.611449999999999161e-01 3.973430000000000462e+01 1.750549999999999955e+03
4.200000000000000261e-02 6.919180000000000330e-01 1.485415000000000152e+00 4.143630000000000280e+01 1.750860000000000127e+03
4.300000000000000350e-02 6.924029999999999907e-01 2.729720000000000368e+00 4.371640000000000015e+01 1.751309999999999945e+03
4.400000000000000439e-02 6.930020000000000069e-01 4.194459999999999411e+00 4.653914999999999935e+01 1.751889999999999873e+03
4.499999999999999833e-02 6.937065000000000037e-01 5.871195000000000164e+00 4.986345000000000027e+01 1.752590000000000146e+03
4.599999999999999922e-02 6.945040000000000102e-01 7.738982000000000916e+00 5.363540000000000418e+01 1.753394999999999982e+03
4.700000000000000011e-02 6.953765000000000640e-01 9.764130500000000268e+00 5.778575000000000017e+01 1.754300000000000182e+03
4.800000000000000100e-02 6.963034999999999641e-01 1.190247499999999903e+01 6.223015000000000185e+01 1.755280000000000200e+03
4.900000000000000189e-02 6.972639999999999949e-01 1.410378500000000024e+01 6.687454999999999927e+01 1.756315000000000055e+03
5.000000000000000278e-02 6.982369999999999965e-01 1.631719000000000008e+01 7.162215000000000487e+01 1.757389999999999873e+03
5.100000000000000366e-02 6.992030000000000189e-01 1.849598999999999904e+01 7.638174999999999670e+01 1.758474999999999909e+03
5.200000000000000455e-02 7.001485000000000625e-01 2.060135000000000005e+01 8.107529999999999859e+01 1.759565000000000055e+03
5.300000000000000544e-02 7.010635000000000616e-01 2.260459999999999781e+01 8.564254999999999995e+01 1.760639999999999873e+03
5.399999999999999939e-02 7.019435000000000535e-01 2.448745000000000260e+01 9.004455000000000098e+01 1.761684999999999945e+03
5.500000000000000028e-02 7.027875000000000094e-01 2.624150000000000205e+01 9.426394999999999413e+01 1.762695000000000164e+03
5.600000000000000117e-02 7.035985000000000156e-01 2.786645000000000039e+01 9.830074999999999363e+01 1.763674999999999955e+03
5.700000000000000205e-02 7.043805000000000760e-01 2.936820000000000164e+01 1.021710999999999956e+02 1.764619999999999891e+03
5.800000000000000294e-02 7.051414999999999766e-01 3.075714999999999932e+01 1.059033000000000015e+02 1.765534999999999854e+03
5.900000000000000383e-02 7.058885000000000298e-01 3.204625000000000057e+01 1.095305500000000052e+02 1.766424999999999955e+03
6.000000000000000472e-02 7.066284999999999927e-01 3.324969999999999715e+01 1.130895000000000010e+02 1.767299999999999955e+03
6.099999999999999867e-02 7.073679999999999968e-01 3.438119999999999976e+01 1.166165000000000020e+02 1.768164999999999964e+03
6.199999999999999956e-02 7.081124999999999226e-01 3.545270000000000010e+01 1.201409999999999911e+02 1.769025000000000091e+03
6.300000000000000044e-02 7.088655000000000372e-01 3.647314999999999685e+01 1.236850000000000023e+02 1.769889999999999873e+03
6.400000000000000133e-02 7.096270000000000078e-01 3.744749999999999801e+01 1.272589999999999861e+02 1.770760000000000218e+03
6.500000000000000222e-02 7.103960000000000274e-01 3.837600000000000477e+01 1.308615000000000066e+02 1.771630000000000109e+03
6.600000000000000311e-02 7.111674999999999525e-01 3.925440000000000396e+01 1.344784999999999968e+02 1.772509999999999991e+03
6.700000000000000400e-02 7.119340000000000668e-01 4.007460000000000377e+01 1.380840000000000032e+02 1.773389999999999873e+03
6.800000000000000488e-02 7.126890000000000169e-01 4.082529999999999859e+01 1.416435000000000173e+02 1.774255000000000109e+03
6.900000000000000577e-02 7.134229999999999183e-01 4.149349999999999739e+01 1.451175000000000068e+02 1.775105000000000018e+03
7.000000000000000666e-02 7.141269999999999563e-01 4.206605000000000416e+01 1.484615000000000009e+02 1.775924999999999955e+03
7.100000000000000755e-02 7.147915000000000241e-01 4.253054999999999808e+01 1.516345000000000027e+02 1.776715000000000146e+03
7.200000000000000844e-02 7.154110000000000191e-01 4.287645000000000550e+01 1.545974999999999966e+02 1.777454999999999927e+03
7.300000000000000933e-02 7.159780000000000033e-01 4.309584999999999866e+01 1.573185000000000002e+02 1.778144999999999982e+03
7.399999999999999634e-02 7.164890000000000425e-01 4.318359999999999843e+01 1.597724999999999795e+02 1.778775000000000091e+03
7.499999999999999722e-02 7.169404999999999806e-01 4.313795000000000357e+01 1.619440000000000168e+02 1.779340000000000146e+03
7.599999999999999811e-02 7.173335000000000683e-01 4.296025000000000205e+01 1.638240000000000123e+02 1.779840000000000146e+03
7.699999999999999900e-02 7.176660000000000261e-01 4.265510000000000446e+01 1.654139999999999873e+02 1.780269999999999982e+03
7.799999999999999989e-02 7.179429999999999978e-01 4.223004999999999853e+01 1.667239999999999895e+02 1.780635000000000218e+03
7.900000000000000078e-02 7.181659999999999711e-01 4.169570000000000221e+01 1.677684999999999889e+02 1.780934999999999945e+03
8.000000000000000167e-02 7.183414999999999662e-01 4.106494999999999607e+01 1.685720000000000027e+02 1.781175000000000182e+03
8.100000000000000255e-02 7.184755000000000447e-01 4.035314999999999941e+01 1.691619999999999777e+02 1.781365000000000009e+03
8.200000000000000344e-02 7.185740000000000460e-01 3.957689999999999486e+01 1.695704999999999814e+02 1.781505000000000109e+03
8.300000000000000433e-02 7.186439999999999495e-01 3.875395000000000323e+01 1.698309999999999889e+02 1.781605000000000018e+03
8.400000000000000522e-02 7.186930000000000263e-01 3.790205000000000268e+01 1.699795000000000016e+02 1.781675000000000182e+03
8.500000000000000611e-02 7.187284999999999924e-01 3.703835000000000122e+01 1.700500000000000114e+02 1.781720000000000027e+03
8.600000000000000699e-02 7.187554999999999916e-01 3.617830000000000013e+01 1.700740000000000123e+02 1.781744999999999891e+03
8.700000000000000788e-02 7.187799999999999745e-01 3.533514999999999873e+01 1.700794999999999959e+02 1.781769999999999982e+03
8.800000000000000877e-02 7.188049999999999162e-01 3.451919999999999789e+01 1.700874999999999773e+02 1.781780000000000200e+03
8.899999999999999578e-02 7.188330000000000553e-01 3.373749999999999716e+01 1.701129999999999995e+02 1.781795000000000073e+03
8.999999999999999667e-02 7.188660000000000050e-01 3.299354999999999905e+01 1.701655000000000086e+02 1.781809999999999945e+03
9.099999999999999756e-02 7.189024999999999999e-01 3.228759999999999764e+01 1.702464999999999975e+02 1.781829999999999927e+03
9.199999999999999845e-02 7.189425000000000399e-01 3.161675000000000324e+01 1.703505000000000109e+02 1.781849999999999909e+03
9.299999999999999933e-02 7.189814999999999401e-01 3.097550000000000381e+01 1.704679999999999893e+02 1.781875000000000000e+03
9.400000000000000022e-02 7.190174999999999761e-01 3.035645000000000238e+01 1.705844999999999914e+02 1.781900000000000091e+03
9.500000000000000111e-02 7.190460000000000740e-01 2.975065000000000026e+01 1.706815000000000282e+02 1.781925000000000182e+03
9.600000000000000200e-02 7.190634999999999666e-01 2.914849999999999852e+01 1.707415000000000020e+02 1.781934999999999945e+03
9.700000000000000289e-02 7.190665000000000529e-01 2.854049999999999798e+01 1.707435000000000116e+02 1.781940000000000055e+03
9.800000000000000377e-02 7.190505000000000368e-01 2.791750000000000043e+01 1.706709999999999923e+02 1.781925000000000182e+03
9.900000000000000466e-02 7.190134999999999721e-01 2.727154999999999774e+01 1.705079999999999814e+02 1.781889999999999873e+03
1.000000000000000056e-01 7.189535000000000231e-01 2.659640000000000271e+01 1.702435000000000116e+02 1.781840000000000146e+03
1.010000000000000064e-01 7.188700000000000090e-01 2.588775000000000048e+01 1.698689999999999998e+02 1.781755000000000109e+03
1.020000000000000073e-01 7.187620000000000120e-01 2.514369999999999905e+01 1.693820000000000050e+02 1.781650000000000091e+03
1.030000000000000082e-01 7.186314999999999786e-01 2.436495000000000033e+01 1.687849999999999966e+02 1.781519999999999982e+03
1.040000000000000091e-01 7.184795000000000487e-01 2.355469999999999686e+01 1.680869999999999891e+02 1.781369999999999891e+03
1.050000000000000100e-01 7.183105000000000739e-01 2.271865000000000023e+01 1.673000000000000114e+02 1.781195000000000164e+03
1.059999999999999970e-01 7.181290000000000173e-01 2.186480000000000246e+01 1.664424999999999955e+02 1.781005000000000109e+03
1.069999999999999979e-01 7.179385000000000350e-01 2.100290000000000035e+01 1.655364999999999895e+02 1.780795000000000073e+03
1.079999999999999988e-01 7.177455000000000362e-01 2.014395000000000024e+01 1.646045000000000016e+02 1.780579999999999927e+03
1.089999999999999997e-01 7.175545000000000950e-01 1.929990000000000094e+01 1.636730000000000018e+02 1.780369999999999891e+03
1.100000000000000006e-01 7.173709999999999809e-01 1.848270000000000124e+01 1.627680000000000007e+02 1.780154999999999973e+03
1.110000000000000014e-01 7.172009999999999774e-01 1.770384999999999920e+01 1.619139999999999873e+02 1.779950000000000045e+03
1.120000000000000023e-01 7.170475000000000598e-01 1.697394999999999854e+01 1.611330000000000098e+02 1.779759999999999991e+03
1.130000000000000032e-01 7.169149999999999689e-01 1.630195000000000149e+01 1.604449999999999932e+02 1.779590000000000146e+03
1.140000000000000041e-01 7.168054999999999843e-01 1.569484999999999886e+01 1.598634999999999877e+02 1.779434999999999945e+03
1.150000000000000050e-01 7.167210000000000525e-01 1.515740000000000087e+01 1.594000000000000057e+02 1.779315000000000055e+03
1.160000000000000059e-01 7.166624999999999801e-01 1.469205000000000005e+01 1.590575000000000045e+02 1.779214999999999918e+03
1.170000000000000068e-01 7.166280000000000427e-01 1.429870000000000019e+01 1.588369999999999891e+02 1.779144999999999982e+03
1.180000000000000077e-01 7.166170000000000595e-01 1.397510000000000119e+01 1.587325000000000159e+02 1.779099999999999909e+03
1.190000000000000085e-01 7.166265000000000551e-01 1.371675000000000111e+01 1.587345000000000255e+02 1.779085000000000036e+03
1.200000000000000094e-01 7.166540000000000132e-01 1.351764999999999972e+01 1.588305000000000007e+02 1.779089999999999918e+03
1.209999999999999964e-01 7.166959999999999997e-01 1.337040000000000006e+01 1.590035000000000025e+02 1.779110000000000127e+03
1.219999999999999973e-01 7.167485000000000106e-01 1.326670000000000016e+01 1.592369999999999948e+02 1.779150000000000091e+03
1.229999999999999982e-01 7.168084999999999596e-01 1.319800000000000040e+01 1.595134999999999934e+02 1.779200000000000045e+03
1.239999999999999991e-01 7.168714999999999948e-01 1.315569999999999951e+01 1.598149999999999977e+02 1.779260000000000218e+03
1.250000000000000000e-01 7.169349999999999890e-01 1.313155000000000072e+01 1.601259999999999764e+02 1.779325000000000045e+03
1.260000000000000009e-01 7.169965000000000366e-01 1.311800000000000033e+01 1.604320000000000164e+02 1.779389999999999873e+03
1.270000000000000018e-01 7.170524999999999816e-01 1.310829999999999984e+01 1.607210000000000036e+02 1.779450000000000045e+03
1.280000000000000027e-01 7.171035000000000048e-01 1.309690000000000154e+01 1.609830000000000041e+02 1.779514999999999873e+03
1.290000000000000036e-01 7.171469999999999789e-01 1.307920000000000016e+01 1.612124999999999773e+02 1.779565000000000055e+03
1.300000000000000044e-01 7.171829999999999039e-01 1.305189999999999984e+01 1.614050000000000011e+02 1.779610000000000127e+03
1.310000000000000053e-01 7.172104999999999730e-01 1.301265000000000072e+01 1.615590000000000259e+02 1.779650000000000091e+03
1.320000000000000062e-01 7.172304999999999930e-01 1.296035000000000004e+01 1.616750000000000114e+02 1.779680000000000064e+03
1.330000000000000071e-01 7.172439999999999927e-01 1.289475000000000016e+01 1.617560000000000002e+02 1.779700000000000045e+03
1.340000000000000080e-01 7.172514999999999308e-01 1.281660000000000110e+01 1.618059999999999832e+02 1.779720000000000027e+03
1.350000000000000089e-01 7.172544999999999060e-01 1.272719999999999985e+01 1.618294999999999959e+02 1.779730000000000018e+03
1.360000000000000098e-01 7.172540000000000582e-01 1.262865000000000038e+01 1.618329999999999984e+02 1.779735000000000127e+03
1.370000000000000107e-01 7.172509999999999719e-01 1.252329999999999899e+01 1.618229999999999791e+02 1.779734999999999900e+03
1.380000000000000115e-01 7.172479999999999967e-01 1.241394999999999982e+01 1.618064999999999998e+02 1.779740000000000009e+03
1.390000000000000124e-01 7.172450000000000214e-01 1.230335000000000001e+01 1.617884999999999991e+02 1.779735000000000127e+03
1.400000000000000133e-01 7.172439999999999927e-01 1.219409999999999883e+01 1.617760000000000105e+02 1.779730000000000018e+03
1.410000000000000142e-01 7.172454999999999803e-01 1.208854999999999968e+01 1.617725000000000080e+02 1.779735000000000127e+03
1.420000000000000151e-01 7.172505000000000130e-01 1.198880000000000123e+01 1.617824999999999989e+02 1.779734999999999900e+03
1.430000000000000160e-01 7.172585000000000210e-01 1.189625000000000021e+01 1.618069999999999879e+02 1.779744999999999891e+03
1.440000000000000169e-01 7.172700000000000742e-01 1.181170000000000009e+01 1.618474999999999966e+02 1.779750000000000000e+03
1.450000000000000178e-01 7.172844999999999915e-01 1.173544500000000035e+01 1.619029999999999916e+02 1.779764999999999873e+03
1.459999999999999909e-01 7.173015000000000363e-01 1.166714999999999947e+01 1.619720000000000084e+02 1.779779999999999973e+03
1.469999999999999918e-01 7.173209999999999864e-01 1.160606499999999919e+01 1.620520000000000209e+02 1.779799999999999955e+03
1.479999999999999927e-01 7.173410000000000064e-01 1.155100000000000016e+01 1.621380000000000052e+02 1.779815000000000055e+03
1.489999999999999936e-01 7.173610000000000264e-01 1.150047999999999959e+01 1.622270000000000039e+02 1.779839999999999918e+03
1.499999999999999944e-01 7.173804999999999765e-01 1.145309999999999917e+01 1.623135000000000048e+02 1.779859999999999900e+03
1.509999999999999953e-01 7.173979999999999801e-01 1.140737500000000004e+01 1.623944999999999936e+02 1.779875000000000000e+03
1.519999999999999962e-01 7.174134999999999263e-01 1.136204000000000036e+01 1.624655000000000200e+02 1.779894999999999982e+03
1.529999999999999971e-01 7.174260000000000081e-01 1.131609500000000068e+01 1.625254999999999939e+02 1.779910000000000082e+03
1.539999999999999980e-01 7.174355000000000038e-01 1.126903000000000077e+01 1.625715000000000146e+02 1.779920000000000073e+03
1.549999999999999989e-01 7.174419999999999131e-01 1.122059499999999943e+01 1.626034999999999968e+02 1.779930000000000064e+03
1.559999999999999998e-01 7.174460000000000282e-01 1.117100500000000096e+01 1.626220000000000141e+02 1.779934999999999945e+03
1.570000000000000007e-01 7.174475000000000158e-01 1.112098500000000101e+01 1.626295000000000073e+02 1.779934999999999945e+03
1.580000000000000016e-01 7.174469999999999459e-01 1.107154500000000041e+01 1.626285000000000025e+02 1.779940000000000055e+03
1.590000000000000024e-01 7.174465000000000980e-01 1.102397000000000027e+01 1.626229999999999905e+02 1.779940000000000055e+03
