# t [s], A [cm^2], U [cm/s], P [cPa], c [cm/s]
1.000000000000000021e-03 2.013199999999999990e-01 1.765730000000000077e-01 1.030554999999999950e+02 2.197784999999999854e+03
2.000000000000000042e-03 2.012705000000000188e-01 1.594241999999999937e+00 9.990925000000000011e+01 2.197369999999999891e+03
3.000000000000000062e-03 2.011310000000000042e-01 3.440527499999999961e+00 9.529269999999999641e+01 2.196269999999999982e+03
4.000000000000000083e-03 2.009370000000000045e-01 5.563062299999999460e+00 8.998619999999999663e+01 2.194765000000000327e+03
5.000000000000000104e-03 2.007255000000000011e-01 7.884395000000000486e+00 8.498364999999999725e+01 2.193140000000000327e+03
6.000000000000000125e-03 2.005220000000000058e-01 1.023137000000000185e+01 8.075135000000000218e+01 2.191595000000000255e+03
7.000000000000000146e-03 2.003309999999999813e-01 1.235696500000000064e+01 7.712415000000000020e+01 2.190175000000000182e+03
8.000000000000000167e-03 2.001554999999999862e-01 1.413813500000000012e+01 7.384969999999999857e+01 2.188899999999999636e+03
9.000000000000001055e-03 2.000020000000000131e-01 1.560265000000000057e+01 7.097979999999999734e+01 2.187795000000000073e+03
1.000000000000000194e-02 1.998725000000000085e-01 1.679224999999999923e+01 6.861984999999999957e+01 2.186880000000000109e+03
1.099999999999999936e-02 1.997684999999999877e-01 1.773300000000000054e+01 6.677439999999999998e+01 2.186150000000000091e+03
1.200000000000000025e-02 1.996874999999999900e-01 1.844865000000000066e+01 6.539605000000000246e+01 2.185590000000000146e+03
1.300000000000000114e-02 1.996259999999999979e-01 1.894324999999999903e+01 6.436695000000000277e+01 2.185175000000000182e+03
1.400000000000000203e-02 1.995764999999999900e-01 1.921974999999999767e+01 6.352049999999999841e+01 2.184845000000000255e+03
1.499999999999999944e-02 1.995374999999999788e-01 1.934244999999999948e+01 6.281634999999999991e+01 2.184594999999999800e+03
1.600000000000000033e-02 1.995135000000000103e-01 1.945980000000000132e+01 6.248245000000000005e+01 2.184445000000000164e+03
1.700000000000000122e-02 1.995159999999999989e-01 1.974409999999999954e+01 6.292350000000000421e+01 2.184474999999999909e+03
1.800000000000000211e-02 1.995534999999999948e-01 2.029435000000000144e+01 6.444485000000000241e+01 2.184739999999999782e+03
1.900000000000000300e-02 1.996275000000000133e-01 2.107710000000000150e+01 6.700860000000000127e+01 2.185260000000000218e+03
2.000000000000000042e-02 1.997275000000000023e-01 2.194024999999999892e+01 7.018475000000000819e+01 2.185980000000000018e+03
2.100000000000000130e-02 1.998350000000000126e-01 2.268250000000000099e+01 7.330769999999999698e+01 2.186760000000000218e+03
2.200000000000000219e-02 1.999305000000000110e-01 2.313605000000000089e+01 7.573435000000000628e+01 2.187465000000000146e+03
2.299999999999999961e-02 1.999974999999999947e-01 2.322530000000000072e+01 7.707144999999999868e+01 2.187980000000000018e+03
2.400000000000000050e-02 2.000319999999999876e-01 2.298134999999999906e+01 7.728170000000000073e+01 2.188260000000000218e+03
2.500000000000000139e-02 2.000365000000000060e-01 2.251384999999999792e+01 7.664365000000000805e+01 2.188319999999999709e+03
2.600000000000000228e-02 2.000215000000000187e-01 2.195799999999999841e+01 7.560054999999999836e+01 2.188230000000000018e+03
2.700000000000000316e-02 1.999989999999999823e-01 2.142065000000000197e+01 7.457349999999999568e+01 2.188070000000000164e+03
2.800000000000000058e-02 1.999775000000000025e-01 2.094650000000000034e+01 7.381360000000000809e+01 2.187914999999999964e+03
2.900000000000000147e-02 1.999609999999999999e-01 2.051255000000000095e+01 7.334130000000000393e+01 2.187795000000000073e+03
3.000000000000000236e-02 1.999475000000000002e-01 2.004899999999999949e+01 7.297919999999999163e+01 2.187684999999999945e+03
3.099999999999999978e-02 1.999289999999999956e-01 1.947500000000000142e+01 7.245459999999999923e+01 2.187560000000000400e+03
3.200000000000000067e-02 1.998989999999999934e-01 1.873704999999999998e+01 7.152854999999999563e+01 2.187355000000000018e+03
3.300000000000000155e-02 1.998550000000000049e-01 1.783745000000000047e+01 7.010795000000000243e+01 2.187050000000000182e+03
3.400000000000000244e-02 1.997970000000000024e-01 1.684239999999999782e+01 6.830299999999999727e+01 2.186640000000000327e+03
3.500000000000000333e-02 1.997325000000000073e-01 1.586809999999999832e+01 6.641079999999999472e+01 2.186180000000000291e+03
3.600000000000000422e-02 1.996735000000000038e-01 1.504844999999999899e+01 6.483084999999999809e+01 2.185750000000000000e+03
3.700000000000000511e-02 1.996310000000000029e-01 1.449714999999999954e+01 6.394449999999999790e+01 2.185425000000000182e+03
3.799999999999999906e-02 1.996159999999999879e-01 1.427655000000000030e+01 6.400124999999999886e+01 2.185300000000000182e+03
3.899999999999999994e-02 1.996315000000000173e-01 1.438269999999999982e+01 6.504834999999999923e+01 2.185385000000000218e+03
4.000000000000000083e-02 1.996769999999999934e-01 1.474879999999999924e+01 6.692119999999999891e+01 2.185695000000000164e+03
4.100000000000000172e-02 1.997450000000000059e-01 1.526370000000000005e+01 6.928884999999999650e+01 2.186164999999999964e+03
4.200000000000000261e-02 1.998230000000000006e-01 1.579734999999999978e+01 7.173455000000001291e+01 2.186724999999999909e+03
4.300000000000000350e-02 1.998989999999999934e-01 1.622670000000000101e+01 7.384565000000000623e+01 2.187265000000000327e+03
4.400000000000000439e-02 1.999604999999999855e-01 1.645579999999999998e+01 7.528985000000000127e+01 2.187715000000000146e+03
4.499999999999999833e-02 1.999974999999999947e-01 1.642650000000000077e+01 7.586305000000000121e+01 2.188005000000000109e+03
4.599999999999999922e-02 2.000064999999999760e-01 1.612030000000000030e+01 7.550305000000000177e+01 2.188079999999999927e+03
4.700000000000000011e-02 1.999849999999999961e-01 1.555164999999999864e+01 7.427199999999999136e+01 2.187944999999999709e+03
4.800000000000000100e-02 1.999360000000000026e-01 1.475680000000000014e+01 7.231850000000000023e+01 2.187609999999999673e+03
4.900000000000000189e-02 1.998639999999999861e-01 1.378194999999999837e+01 6.983115000000000805e+01 2.187105000000000018e+03
5.000000000000000278e-02 1.997749999999999804e-01 1.267356000000000016e+01 6.699754999999998972e+01 2.186465000000000146e+03
5.100000000000000366e-02 1.996729999999999894e-01 1.147232999999999947e+01 6.397690000000000055e+01 2.185734999999999673e+03
5.200000000000000455e-02 1.995645000000000058e-01 1.021228499999999961e+01 6.088915000000000077e+01 2.184949999999999818e+03
5.300000000000000544e-02 1.994519999999999904e-01 8.922464999999998980e+00 5.781920000000000215e+01 2.184140000000000327e+03
5.399999999999999939e-02 1.993395000000000028e-01 7.630834999999999368e+00 5.482985000000000042e+01 2.183329999999999927e+03
5.500000000000000028e-02 1.992289999999999894e-01 6.367869999999999919e+00 5.197885000000000133e+01 2.182525000000000091e+03
5.600000000000000117e-02 1.991229999999999944e-01 5.169529999999999959e+00 4.933279999999999887e+01 2.181760000000000218e+03
5.700000000000000205e-02 1.990254999999999941e-01 4.077449999999999797e+00 4.697480000000000189e+01 2.181050000000000182e+03
5.800000000000000294e-02 1.989400000000000057e-01 3.137553500000000106e+00 4.500480000000000302e+01 2.180420000000000073e+03
5.900000000000000383e-02 1.988689999999999902e-01 2.396757000000000026e+00 4.353255000000000052e+01 2.179894999999999982e+03
6.000000000000000472e-02 1.988185000000000091e-01 1.898733500000000074e+00 4.266599999999999682e+01 2.179510000000000218e+03
6.099999999999999867e-02 1.987904999999999811e-01 1.679625000000000146e+00 4.249824999999999875e+01 2.179289999999999964e+03
6.199999999999999956e-02 1.987889999999999935e-01 1.764469999999999983e+00 4.309525000000000006e+01 2.179260000000000218e+03
6.300000000000000044e-02 1.988154999999999784e-01 2.164940000000000087e+00 4.448760000000000048e+01 2.179425000000000182e+03
6.400000000000000133e-02 1.988715000000000066e-01 2.878435000000000077e+00 4.666655000000000086e+01 2.179805000000000291e+03
6.500000000000000222e-02 1.989549999999999930e-01 3.888675000000000104e+00 4.958525000000000205e+01 2.180385000000000218e+03
6.600000000000000311e-02 1.990649999999999920e-01 5.167304999999999815e+00 5.316315000000000168e+01 2.181154999999999745e+03
6.700000000000000400e-02 1.991990000000000149e-01 6.676300000000000345e+00 5.729379999999999740e+01 2.182105000000000018e+03
6.800000000000000488e-02 1.993524999999999880e-01 8.370874999999999844e+00 6.185380000000000678e+01 2.183199999999999818e+03
6.900000000000000577e-02 1.995210000000000039e-01 1.020256000000000007e+01 6.671240000000000236e+01 2.184409999999999854e+03
7.000000000000000666e-02 1.997010000000000174e-01 1.212227999999999994e+01 7.174094999999999800e+01 2.185704999999999927e+03
7.100000000000000755e-02 1.998869999999999814e-01 1.408329999999999949e+01 7.682130000000000791e+01 2.187050000000000182e+03
7.200000000000000844e-02 2.000755000000000172e-01 1.604390000000000072e+01 8.185304999999999609e+01 2.188425000000000182e+03
7.300000000000000933e-02 2.002629999999999966e-01 1.796934999999999860e+01 8.675879999999999370e+01 2.189795000000000073e+03
7.399999999999999634e-02 2.004469999999999863e-01 1.983330000000000126e+01 9.148709999999999809e+01 2.191139999999999873e+03
7.499999999999999722e-02 2.006259999999999988e-01 2.161814999999999998e+01 9.601399999999999579e+01 2.192449999999999818e+03
7.599999999999999811e-02 2.007990000000000053e-01 2.331479999999999819e+01 1.003379000000000048e+02 2.193725000000000364e+03
7.699999999999999900e-02 2.009655000000000191e-01 2.492139999999999844e+01 1.044779000000000053e+02 2.194954999999999927e+03
7.799999999999999989e-02 2.011264999999999858e-01 2.644144999999999968e+01 1.084664999999999964e+02 2.196144999999999982e+03
7.900000000000000078e-02 2.012829999999999897e-01 2.788224999999999909e+01 1.123425000000000011e+02 2.197305000000000291e+03
8.000000000000000167e-02 2.014360000000000039e-01 2.925244999999999962e+01 1.161444999999999936e+02 2.198440000000000055e+03
8.100000000000000255e-02 2.015865000000000018e-01 3.056054999999999922e+01 1.199044999999999987e+02 2.199555000000000291e+03
8.200000000000000344e-02 2.017359999999999987e-01 3.181365000000000265e+01 1.236465000000000032e+02 2.200664999999999964e+03
8.300000000000000433e-02 2.018844999999999945e-01 3.301650000000000063e+01 1.273814999999999884e+02 2.201769999999999982e+03
8.400000000000000522e-02 2.020325000000000037e-01 3.417114999999999725e+01 1.311100000000000136e+02 2.202864999999999782e+03
8.500000000000000611e-02 2.021799999999999986e-01 3.527714999999999890e+01 1.348209999999999980e+02 2.203960000000000036e+03
8.600000000000000699e-02 2.023260000000000058e-01 3.633129999999999882e+01 1.384945000000000164e+02 2.205045000000000073e+03
8.700000000000000788e-02 2.024704999999999977e-01 3.732849999999999824e+01 1.421045000000000016e+02 2.206119999999999891e+03
8.800000000000000877e-02 2.026114999999999999e-01 3.826200000000000045e+01 1.456210000000000093e+02 2.207175000000000182e+03
8.899999999999999578e-02 2.027490000000000125e-01 3.912355000000000160e+01 1.490099999999999909e+02 2.208199999999999818e+03
8.999999999999999667e-02 2.028809999999999780e-01 3.990415000000000134e+01 1.522384999999999877e+02 2.209184999999999945e+03
9.099999999999999756e-02 2.030069999999999930e-01 4.059440000000000026e+01 1.552730000000000246e+02 2.210119999999999891e+03
9.199999999999999845e-02 2.031250000000000000e-01 4.118460000000000321e+01 1.580805000000000007e+02 2.211010000000000218e+03
9.299999999999999933e-02 2.032339999999999980e-01 4.166559999999999775e+01 1.606324999999999932e+02 2.211829999999999927e+03
9.400000000000000022e-02 2.033335000000000004e-01 4.202909999999999968e+01 1.629014999999999986e+02 2.212574999999999818e+03
9.500000000000000111e-02 2.034219999999999917e-01 4.226834999999999809e+01 1.648675000000000068e+02 2.213250000000000000e+03
9.600000000000000200e-02 2.034994999999999998e-01 4.237874999999999659e+01 1.665144999999999982e+02 2.213829999999999927e+03
9.700000000000000289e-02 2.035639999999999949e-01 4.235824999999999818e+01 1.678349999999999795e+02 2.214329999999999927e+03
9.800000000000000377e-02 2.036169999999999924e-01 4.220789999999999509e+01 1.688290000000000077e+02 2.214735000000000127e+03
9.900000000000000466e-02 2.036580000000000057e-01 4.193215000000000003e+01 1.695065000000000168e+02 2.215050000000000182e+03
1.000000000000000056e-01 2.036860000000000059e-01 4.153855000000000075e+01 1.698854999999999791e+02 2.215269999999999982e+03
1.010000000000000064e-01 2.037039999999999962e-01 4.103784999999999883e+01 1.699934999999999832e+02 2.215414999999999964e+03
1.020000000000000073e-01 2.037120000000000042e-01 4.044320000000000448e+01 1.698625000000000114e+02 2.215480000000000018e+03
1.030000000000000082e-01 2.037105000000000166e-01 3.976985000000000525e+01 1.695304999999999893e+02 2.215485000000000127e+03
1.040000000000000091e-01 2.037019999999999942e-01 3.903414999999999679e+01 1.690380000000000109e+02 2.215425000000000182e+03
1.050000000000000100e-01 2.036870000000000069e-01 3.825289999999999679e+01 1.684269999999999925e+02 2.215324999999999818e+03
1.059999999999999970e-01 2.036675000000000013e-01 3.744265000000000043e+01 1.677359999999999900e+02 2.215184999999999945e+03
1.069999999999999979e-01 2.036450000000000204e-01 3.661880000000000024e+01 1.670014999999999930e+02 2.215019999999999982e+03
1.079999999999999988e-01 2.036205000000000098e-01 3.579540000000000077e+01 1.662549999999999955e+02 2.214840000000000146e+03
1.089999999999999997e-01 2.035954999999999848e-01 3.498425000000000296e+01 1.655215000000000032e+02 2.214655000000000200e+03
1.100000000000000006e-01 2.035700000000000010e-01 3.419505000000000194e+01 1.648220000000000027e+02 2.214465000000000146e+03
1.110000000000000014e-01 2.035450000000000037e-01 3.343444999999999823e+01 1.641675000000000182e+02 2.214279999999999745e+03
1.120000000000000023e-01 2.035219999999999807e-01 3.270655000000000001e+01 1.635629999999999882e+02 2.214105000000000018e+03
1.130000000000000032e-01 2.034994999999999998e-01 3.201265000000000072e+01 1.630084999999999980e+02 2.213939999999999600e+03
1.140000000000000041e-01 2.034790000000000210e-01 3.135115000000000052e+01 1.624950000000000045e+02 2.213779999999999745e+03
1.150000000000000050e-01 2.034600000000000020e-01 3.071820000000000306e+01 1.620084999999999980e+02 2.213635000000000218e+03
1.160000000000000059e-01 2.034405000000000241e-01 3.010745000000000005e+01 1.615310000000000059e+02 2.213484999999999673e+03
1.170000000000000068e-01 2.034209999999999907e-01 2.951120000000000232e+01 1.610409999999999968e+02 2.213340000000000146e+03
1.180000000000000077e-01 2.034009999999999985e-01 2.892054999999999865e+01 1.605135000000000218e+02 2.213190000000000055e+03
1.190000000000000085e-01 2.033790000000000042e-01 2.832589999999999719e+01 1.599240000000000066e+02 2.213024999999999636e+03
1.200000000000000094e-01 2.033550000000000080e-01 2.771795000000000186e+01 1.592489999999999952e+02 2.212845000000000255e+03
1.209999999999999964e-01 2.033270000000000077e-01 2.708809999999999718e+01 1.584685000000000059e+02 2.212635000000000218e+03
1.219999999999999973e-01 2.032950000000000035e-01 2.642905000000000015e+01 1.575645000000000095e+02 2.212404999999999745e+03
1.229999999999999982e-01 2.032589999999999952e-01 2.573545000000000016e+01 1.565264999999999986e+02 2.212135000000000218e+03
1.239999999999999991e-01 2.032180000000000097e-01 2.500399999999999778e+01 1.553489999999999895e+02 2.211829999999999927e+03
1.250000000000000000e-01 2.031709999999999905e-01 2.423400000000000176e+01 1.540335000000000036e+02 2.211489999999999782e+03
1.260000000000000009e-01 2.031204999999999816e-01 2.342755000000000010e+01 1.525900000000000034e+02 2.211109999999999673e+03
1.270000000000000018e-01 2.030645000000000089e-01 2.258905000000000030e+01 1.510330000000000155e+02 2.210694999999999709e+03
1.280000000000000027e-01 2.030045000000000044e-01 2.172569999999999979e+01 1.493849999999999909e+02 2.210255000000000109e+03
1.290000000000000036e-01 2.029414999999999969e-01 2.084669999999999845e+01 1.476725000000000136e+02 2.209789999999999964e+03
1.300000000000000044e-01 2.028765000000000152e-01 1.996284999999999954e+01 1.459265000000000043e+02 2.209309999999999945e+03
1.310000000000000053e-01 2.028105000000000047e-01 1.908640000000000114e+01 1.441804999999999950e+02 2.208819999999999709e+03
1.320000000000000062e-01 2.027444999999999942e-01 1.822970000000000113e+01 1.424689999999999941e+02 2.208335000000000036e+03
1.330000000000000071e-01 2.026795000000000124e-01 1.740525000000000233e+01 1.408240000000000123e+02 2.207855000000000018e+03
1.340000000000000080e-01 2.026179999999999926e-01 1.662465000000000259e+01 1.392760000000000105e+02 2.207390000000000327e+03
1.350000000000000089e-01 2.025595000000000034e-01 1.589820000000000100e+01 1.378509999999999991e+02 2.206954999999999927e+03
1.360000000000000098e-01 2.025060000000000193e-01 1.523450000000000060e+01 1.365695000000000050e+02 2.206550000000000182e+03
1.370000000000000107e-01 2.024569999999999981e-01 1.463980000000000103e+01 1.354455000000000098e+02 2.206190000000000055e+03
1.380000000000000115e-01 2.024139999999999828e-01 1.411834999999999951e+01 1.344879999999999995e+02 2.205864999999999782e+03
1.390000000000000124e-01 2.023774999999999880e-01 1.367190000000000083e+01 1.336990000000000123e+02 2.205585000000000036e+03
1.400000000000000133e-01 2.023459999999999981e-01 1.329994999999999905e+01 1.330745000000000005e+02 2.205350000000000364e+03
1.410000000000000142e-01 2.023210000000000008e-01 1.300009999999999977e+01 1.326070000000000277e+02 2.205154999999999745e+03
1.420000000000000151e-01 2.023024999999999962e-01 1.276815000000000033e+01 1.322839999999999918e+02 2.205010000000000218e+03
1.430000000000000160e-01 2.022885000000000100e-01 1.259844999999999970e+01 1.320894999999999868e+02 2.204900000000000091e+03
1.440000000000000169e-01 2.022789999999999866e-01 1.248434999999999917e+01 1.320070000000000050e+02 2.204829999999999927e+03
1.450000000000000178e-01 2.022740000000000093e-01 1.241835000000000022e+01 1.320169999999999959e+02 2.204784999999999854e+03
1.459999999999999909e-01 2.022724999999999940e-01 1.239270000000000138e+01 1.321020000000000039e+02 2.204769999999999982e+03
1.469999999999999918e-01 2.022740000000000093e-01 1.239939999999999998e+01 1.322434999999999832e+02 2.204769999999999982e+03
1.479999999999999927e-01 2.022770000000000123e-01 1.243084999999999951e+01 1.324244999999999948e+02 2.204795000000000073e+03
1.489999999999999936e-01 2.022825000000000040e-01 1.247949999999999982e+01 1.326295000000000073e+02 2.204824999999999818e+03
1.499999999999999944e-01 2.022885000000000100e-01 1.253875000000000028e+01 1.328455000000000155e+02 2.204869999999999891e+03
1.509999999999999953e-01 2.022954999999999892e-01 1.260245000000000104e+01 1.330589999999999975e+02 2.204920000000000073e+03
1.519999999999999962e-01 2.023019999999999818e-01 1.266559999999999953e+01 1.332624999999999886e+02 2.204965000000000146e+03
1.529999999999999971e-01 2.023085000000000022e-01 1.272390000000000043e+01 1.334484999999999957e+02 2.205010000000000218e+03
1.539999999999999980e-01 2.023149999999999948e-01 1.277439999999999998e+01 1.336109999999999900e+02 2.205059999999999945e+03
1.549999999999999989e-01 2.023199999999999998e-01 1.281500000000000128e+01 1.337490000000000236e+02 2.205099999999999909e+03
1.559999999999999998e-01 2.023249999999999771e-01 1.284454999999999991e+01 1.338615000000000066e+02 2.205139999999999873e+03
1.570000000000000007e-01 2.023289999999999811e-01 1.286304999999999943e+01 1.339509999999999934e+02 2.205164999999999964e+03
1.580000000000000016e-01 2.023320000000000118e-01 1.287119999999999997e+01 1.340215000000000032e+02 2.205190000000000055e+03
1.590000000000000024e-01 2.023349999999999871e-01 1.287040000000000006e+01 1.340769999999999982e+02 2.205215000000000146e+03
