# t [s], A [cm^2], U [cm/s], P [cPa], c [cm/s]
1.000000000000000021e-03 5.712555000000000271e-01 4.003150000000003927e-03 9.757124999999999204e+01 1.507884999999999991e+03
2.000000000000000042e-03 5.712460000000000315e-01 -1.880939999999999999e-03 9.754904999999999404e+01 1.507880000000000109e+03
3.000000000000000062e-03 5.712884999999999769e-01 7.363995000000000957e-02 9.762164999999998827e+01 1.507900000000000091e+03
4.000000000000000083e-03 5.713380000000000125e-01 1.686964499999999978e-01 9.773425000000000296e+01 1.507929999999999836e+03
5.000000000000000104e-03 5.713310000000000333e-01 1.698080000000000145e-01 9.772585000000000832e+01 1.507929999999999836e+03
6.000000000000000125e-03 5.712779999999999525e-01 8.737500000000003597e-02 9.756834999999999525e+01 1.507894999999999982e+03
7.000000000000000146e-03 5.712269999999999293e-01 9.005000000000262794e-04 9.734409999999999741e+01 1.507840000000000146e+03
8.000000000000000167e-03 5.711629999999999763e-01 -1.161434999999999551e-01 9.703940000000000055e+01 1.507759999999999991e+03
9.000000000000001055e-03 5.710530000000000328e-01 -3.289150000000000684e-01 9.657280000000000086e+01 1.507639999999999873e+03
1.000000000000000194e-02 5.708904999999999674e-01 -6.483250000000000401e-01 9.590174999999999272e+01 1.507470000000000027e+03
1.099999999999999936e-02 5.706689999999999818e-01 -1.078739999999999810e+00 9.499004999999999654e+01 1.507230000000000018e+03
1.200000000000000025e-02 5.703725000000000600e-01 -1.636895000000000211e+00 9.378549999999999898e+01 1.506909999999999854e+03
1.300000000000000114e-02 5.700005000000000210e-01 -2.305555000000000021e+00 9.227105000000000246e+01 1.506500000000000000e+03
1.400000000000000203e-02 5.695864999999999956e-01 -3.000739999999999963e+00 9.051829999999999643e+01 1.506010000000000218e+03
1.499999999999999944e-02 5.691844999999999821e-01 -3.596049999999999969e+00 8.867690000000000339e+01 1.505480000000000018e+03
1.600000000000000033e-02 5.688385000000000247e-01 -3.977992999999999668e+00 8.691344999999999743e+01 1.504950000000000045e+03
1.700000000000000122e-02 5.685685000000000322e-01 -4.087791049999999871e+00 8.534774999999999068e+01 1.504454999999999927e+03
1.800000000000000211e-02 5.683644999999999392e-01 -3.931668499999999788e+00 8.402119999999999322e+01 1.504005000000000109e+03
1.900000000000000300e-02 5.681964999999999932e-01 -3.566143999999999981e+00 8.289809999999999945e+01 1.503595000000000027e+03
2.000000000000000042e-02 5.680300000000000349e-01 -3.071565000000000101e+00 8.189105000000000700e+01 1.503224999999999909e+03
2.100000000000000130e-02 5.678334999999999910e-01 -2.524413000000000018e+00 8.089664999999999395e+01 1.502845000000000027e+03
2.200000000000000219e-02 5.675909999999999567e-01 -1.975945000000000062e+00 7.983000000000001251e+01 1.502460000000000036e+03
2.299999999999999961e-02 5.673025000000000428e-01 -1.442534999999999901e+00 7.864830000000000609e+01 1.502039999999999964e+03
2.400000000000000050e-02 5.669824999999999449e-01 -9.099699999999999456e-01 7.735630000000000450e+01 1.501599999999999909e+03
2.500000000000000139e-02 5.666499999999999870e-01 -3.485450000000001047e-01 7.599450000000000216e+01 1.501134999999999991e+03
2.600000000000000228e-02 5.663229999999999098e-01 2.679450000000000998e-01 7.461574999999999136e+01 1.500664999999999964e+03
2.700000000000000316e-02 5.660100000000000131e-01 9.469300000000000495e-01 7.326130000000000564e+01 1.500194999999999936e+03
2.800000000000000058e-02 5.657079999999999886e-01 1.669565000000000188e+00 7.194389999999999930e+01 1.499735000000000127e+03
2.900000000000000147e-02 5.654019999999999602e-01 2.391954999999999831e+00 7.064119999999999777e+01 1.499275000000000091e+03
3.000000000000000236e-02 5.650730000000000475e-01 3.053175000000000416e+00 6.930000000000001137e+01 1.498805000000000064e+03
3.099999999999999978e-02 5.646984999999999921e-01 3.587674999999999947e+00 6.784864999999999213e+01 1.498315000000000055e+03
3.200000000000000067e-02 5.642610000000000126e-01 3.938995000000000246e+00 6.621524999999999750e+01 1.497775000000000091e+03
3.300000000000000155e-02 5.637520000000000309e-01 4.072129999999999583e+00 6.434675000000000011e+01 1.497179999999999836e+03
3.400000000000000244e-02 5.631745000000000223e-01 3.981220000000000425e+00 6.222475000000000023e+01 1.496525000000000091e+03
3.500000000000000333e-02 5.625440000000000440e-01 3.691030000000000477e+00 5.987404999999999688e+01 1.495804999999999836e+03
3.600000000000000422e-02 5.618864999999999554e-01 3.252190000000000580e+00 5.736175000000000068e+01 1.495034999999999854e+03
3.700000000000000511e-02 5.612310000000000354e-01 2.731430000000000025e+00 5.478824999999999790e+01 1.494244999999999891e+03
3.799999999999999906e-02 5.606105000000000116e-01 2.200425000000000075e+00 5.227254999999999541e+01 1.493465000000000146e+03
3.899999999999999994e-02 5.600530000000000230e-01 1.726024999999999920e+00 4.993679999999999808e+01 1.492724999999999909e+03
4.000000000000000083e-02 5.595809999999999951e-01 1.363095000000000390e+00 4.789235000000000042e+01 1.492059999999999945e+03
4.100000000000000172e-02 5.592110000000000136e-01 1.151405000000000012e+00 4.622995000000000232e+01 1.491494999999999891e+03
4.200000000000000261e-02 5.589520000000000044e-01 1.115400000000000169e+00 4.501485000000000269e+01 1.491045000000000073e+03
4.300000000000000350e-02 5.588075000000000125e-01 1.266560000000000130e+00 4.428580000000000183e+01 1.490740000000000009e+03
4.400000000000000439e-02 5.587775000000000380e-01 1.607095500000000010e+00 4.405785000000000196e+01 1.490585000000000036e+03
4.499999999999999833e-02 5.588575000000000070e-01 2.133884999999999810e+00 4.432750000000000057e+01 1.490574999999999818e+03
4.599999999999999922e-02 5.590439999999999854e-01 2.841858499999999843e+00 4.507880000000000109e+01 1.490715000000000146e+03
4.700000000000000011e-02 5.593310000000000226e-01 3.726064000000000043e+00 4.628815000000000168e+01 1.491000000000000000e+03
4.800000000000000100e-02 5.597145000000000037e-01 4.782199600000000217e+00 4.792889999999999873e+01 1.491420000000000073e+03
4.900000000000000189e-02 5.601880000000000193e-01 6.005849399999999783e+00 4.997234999999999872e+01 1.491969999999999800e+03
5.000000000000000278e-02 5.607469999999999954e-01 7.390788500000000205e+00 5.238855000000000217e+01 1.492650000000000091e+03
5.100000000000000366e-02 5.613829999999999654e-01 8.927165499999999199e+00 5.514454999999999529e+01 1.493440000000000055e+03
5.200000000000000455e-02 5.620884999999999909e-01 1.060017500000000013e+01 5.820340000000000202e+01 1.494329999999999927e+03
5.300000000000000544e-02 5.628530000000000477e-01 1.238944000000000045e+01 6.152290000000000703e+01 1.495309999999999945e+03
5.399999999999999939e-02 5.636634999999999840e-01 1.426933499999999810e+01 6.505545000000000755e+01 1.496369999999999891e+03
5.500000000000000028e-02 5.645080000000000098e-01 1.621026499999999970e+01 6.874904999999999688e+01 1.497490000000000009e+03
5.600000000000000117e-02 5.653730000000000144e-01 1.818061000000000149e+01 7.254909999999999570e+01 1.498654999999999973e+03
5.700000000000000205e-02 5.662454999999999572e-01 2.014845000000000041e+01 7.640094999999999459e+01 1.499849999999999909e+03
5.800000000000000294e-02 5.671129999999999782e-01 2.208384999999999820e+01 8.025274999999999181e+01 1.501059999999999945e+03
5.900000000000000383e-02 5.679674999999999585e-01 2.396024999999999849e+01 8.405785000000000196e+01 1.502275000000000091e+03
6.000000000000000472e-02 5.687999999999999723e-01 2.575600000000000023e+01 8.777779999999999916e+01 1.503470000000000027e+03
6.099999999999999867e-02 5.696050000000000280e-01 2.745445000000000135e+01 9.138249999999999318e+01 1.504644999999999982e+03
6.199999999999999956e-02 5.703795000000000393e-01 2.904455000000000098e+01 9.485184999999999889e+01 1.505785000000000082e+03
6.300000000000000044e-02 5.711229999999999363e-01 3.052009999999999934e+01 9.817539999999999623e+01 1.506889999999999873e+03
6.400000000000000133e-02 5.718354999999999411e-01 3.187950000000000017e+01 1.013502500000000026e+02 1.507954999999999927e+03
6.500000000000000222e-02 5.725200000000000289e-01 3.312480000000000047e+01 1.043829499999999939e+02 1.508984999999999900e+03
6.600000000000000311e-02 5.731779999999999653e-01 3.426079999999999615e+01 1.072842500000000001e+02 1.509974999999999909e+03
6.700000000000000400e-02 5.738155000000000339e-01 3.529455000000000098e+01 1.100699999999999932e+02 1.510929999999999836e+03
6.800000000000000488e-02 5.744350000000000289e-01 3.623414999999999964e+01 1.127580000000000098e+02 1.511855000000000018e+03
6.900000000000000577e-02 5.750405000000000655e-01 3.708865000000000123e+01 1.153675000000000068e+02 1.512755000000000109e+03
7.000000000000000666e-02 5.756364999999999954e-01 3.786669999999999447e+01 1.179159999999999968e+02 1.513630000000000109e+03
7.100000000000000755e-02 5.762249999999999872e-01 3.857654999999999745e+01 1.204205000000000041e+02 1.514490000000000009e+03
7.200000000000000844e-02 5.768100000000000449e-01 3.922520000000000095e+01 1.228919999999999959e+02 1.515340000000000146e+03
7.300000000000000933e-02 5.773909999999999876e-01 3.981799999999999784e+01 1.253404999999999916e+02 1.516184999999999945e+03
7.399999999999999634e-02 5.779684999999999961e-01 4.035810000000000031e+01 1.277684999999999889e+02 1.517014999999999873e+03
7.499999999999999722e-02 5.785420000000000007e-01 4.084680000000000177e+01 1.301739999999999782e+02 1.517840000000000146e+03
7.599999999999999811e-02 5.791079999999999561e-01 4.128294999999999959e+01 1.325500000000000114e+02 1.518650000000000091e+03
7.699999999999999900e-02 5.796634999999999982e-01 4.166375000000000028e+01 1.348834999999999980e+02 1.519449999999999818e+03
7.799999999999999989e-02 5.802050000000000818e-01 4.198449999999999704e+01 1.371599999999999966e+02 1.520230000000000018e+03
7.900000000000000078e-02 5.807269999999999932e-01 4.223964999999999748e+01 1.393590000000000089e+02 1.520990000000000009e+03
8.000000000000000167e-02 5.812249999999999917e-01 4.242284999999999684e+01 1.414604999999999961e+02 1.521719999999999800e+03
8.100000000000000255e-02 5.816935000000000855e-01 4.252785000000000082e+01 1.434424999999999955e+02 1.522414999999999964e+03
8.200000000000000344e-02 5.821290000000000076e-01 4.254905000000000115e+01 1.452860000000000014e+02 1.523065000000000055e+03
8.300000000000000433e-02 5.825270000000000170e-01 4.248160000000000025e+01 1.469714999999999918e+02 1.523670000000000073e+03
8.400000000000000522e-02 5.828839999999999577e-01 4.232210000000000605e+01 1.484840000000000089e+02 1.524215000000000146e+03
8.500000000000000611e-02 5.831984999999999530e-01 4.206874999999999432e+01 1.498114999999999952e+02 1.524710000000000036e+03
8.600000000000000699e-02 5.834685000000000565e-01 4.172149999999999892e+01 1.509470000000000027e+02 1.525139999999999873e+03
8.700000000000000788e-02 5.836934999999999762e-01 4.128209999999999980e+01 1.518865000000000123e+02 1.525509999999999991e+03
8.800000000000000877e-02 5.838740000000000041e-01 4.075419999999999732e+01 1.526315000000000168e+02 1.525815000000000055e+03
8.899999999999999578e-02 5.840119999999999756e-01 4.014310000000000400e+01 1.531864999999999952e+02 1.526059999999999945e+03
8.999999999999999667e-02 5.841094999999999482e-01 3.945574999999999477e+01 1.535620000000000118e+02 1.526244999999999891e+03
9.099999999999999756e-02 5.841699999999999671e-01 3.870060000000000144e+01 1.537704999999999984e+02 1.526365000000000009e+03
9.199999999999999845e-02 5.841965000000000074e-01 3.788719999999999999e+01 1.538265000000000100e+02 1.526440000000000055e+03
9.299999999999999933e-02 5.841935000000000322e-01 3.702594999999999459e+01 1.537489999999999952e+02 1.526469999999999800e+03
9.400000000000000022e-02 5.841650000000000453e-01 3.612810000000000343e+01 1.535575000000000045e+02 1.526454999999999927e+03
9.500000000000000111e-02 5.841159999999999686e-01 3.520490000000000208e+01 1.532719999999999914e+02 1.526400000000000091e+03
9.600000000000000200e-02 5.840509999999999868e-01 3.426774999999999949e+01 1.529134999999999991e+02 1.526320000000000164e+03
9.700000000000000289e-02 5.839745000000000630e-01 3.332764999999999844e+01 1.525029999999999859e+02 1.526219999999999800e+03
9.800000000000000377e-02 5.838915000000000077e-01 3.239484999999999815e+01 1.520595000000000141e+02 1.526095000000000027e+03
9.900000000000000466e-02 5.838045000000000595e-01 3.147834999999999894e+01 1.516009999999999991e+02 1.525965000000000146e+03
1.000000000000000056e-01 5.837170000000000414e-01 3.058594999999999686e+01 1.511424999999999841e+02 1.525829999999999927e+03
1.010000000000000064e-01 5.836330000000000684e-01 2.972390000000000043e+01 1.506974999999999909e+02 1.525694999999999936e+03
1.020000000000000073e-01 5.835529999999999884e-01 2.889639999999999986e+01 1.502744999999999891e+02 1.525559999999999945e+03
1.030000000000000082e-01 5.834785000000000110e-01 2.810594999999999999e+01 1.498810000000000002e+02 1.525424999999999955e+03
1.040000000000000091e-01 5.834095000000000253e-01 2.735324999999999918e+01 1.495200000000000102e+02 1.525299999999999955e+03
1.050000000000000100e-01 5.833464999999999900e-01 2.663684999999999903e+01 1.491909999999999741e+02 1.525190000000000055e+03
1.059999999999999970e-01 5.832880000000000287e-01 2.595390000000000086e+01 1.488894999999999982e+02 1.525079999999999927e+03
1.069999999999999979e-01 5.832319999999999727e-01 2.529999999999999716e+01 1.486120000000000232e+02 1.524980000000000018e+03
1.079999999999999988e-01 5.831779999999999742e-01 2.466969999999999885e+01 1.483480000000000132e+02 1.524884999999999991e+03
1.089999999999999997e-01 5.831224999999999881e-01 2.405655000000000143e+01 1.480885000000000105e+02 1.524789999999999964e+03
1.100000000000000006e-01 5.830629999999999979e-01 2.345364999999999966e+01 1.478224999999999909e+02 1.524690000000000055e+03
1.110000000000000014e-01 5.829975000000000573e-01 2.285394999999999754e+01 1.475395000000000039e+02 1.524595000000000027e+03
1.120000000000000023e-01 5.829229999999999690e-01 2.225055000000000049e+01 1.472264999999999873e+02 1.524489999999999782e+03
1.130000000000000032e-01 5.828385000000000371e-01 2.163700000000000045e+01 1.468745000000000118e+02 1.524369999999999891e+03
1.140000000000000041e-01 5.827404999999999946e-01 2.100769999999999982e+01 1.464739999999999895e+02 1.524240000000000009e+03
1.150000000000000050e-01 5.826289999999999525e-01 2.035779999999999745e+01 1.460169999999999959e+02 1.524095000000000027e+03
1.160000000000000059e-01 5.825029999999999930e-01 1.968390000000000128e+01 1.454985000000000070e+02 1.523930000000000064e+03
1.170000000000000068e-01 5.823605000000000587e-01 1.898380000000000223e+01 1.449159999999999968e+02 1.523744999999999891e+03
1.180000000000000077e-01 5.822039999999999438e-01 1.825690000000000168e+01 1.442680000000000007e+02 1.523549999999999955e+03
1.190000000000000085e-01 5.820330000000000226e-01 1.750394999999999968e+01 1.435570000000000164e+02 1.523324999999999818e+03
1.200000000000000094e-01 5.818490000000000606e-01 1.672729999999999961e+01 1.427874999999999943e+02 1.523085000000000036e+03
1.209999999999999964e-01 5.816535000000000455e-01 1.593060000000000187e+01 1.419664999999999964e+02 1.522829999999999927e+03
1.219999999999999973e-01 5.814500000000000224e-01 1.511882999999999910e+01 1.411034999999999968e+02 1.522559999999999945e+03
1.229999999999999982e-01 5.812404999999999378e-01 1.429803500000000049e+01 1.402094999999999914e+02 1.522275000000000091e+03
1.239999999999999991e-01 5.810279999999999889e-01 1.347520499999999899e+01 1.392964999999999804e+02 1.521985000000000127e+03
1.250000000000000000e-01 5.808159999999999989e-01 1.265790000000000148e+01 1.383790000000000191e+02 1.521690000000000055e+03
1.260000000000000009e-01 5.806069999999999842e-01 1.185388500000000001e+01 1.374705000000000155e+02 1.521400000000000091e+03
1.270000000000000018e-01 5.804059999999999775e-01 1.107118999999999964e+01 1.365844999999999914e+02 1.521105000000000018e+03
1.280000000000000027e-01 5.802129999999999788e-01 1.031733000000000011e+01 1.357344999999999970e+02 1.520829999999999927e+03
1.290000000000000036e-01 5.800334999999999797e-01 9.599415000000000475e+00 1.349325000000000045e+02 1.520555000000000064e+03
1.300000000000000044e-01 5.798685000000000089e-01 8.923635000000000872e+00 1.341890000000000214e+02 1.520304999999999836e+03
1.310000000000000053e-01 5.797189999999999843e-01 8.295199999999999463e+00 1.335140000000000100e+02 1.520070000000000164e+03
1.320000000000000062e-01 5.795879999999999921e-01 7.718065000000000175e+00 1.329120000000000061e+02 1.519865000000000009e+03
1.330000000000000071e-01 5.794740000000000446e-01 7.194760000000000488e+00 1.323874999999999886e+02 1.519670000000000073e+03
1.340000000000000080e-01 5.793785000000000185e-01 6.726539999999999964e+00 1.319420000000000073e+02 1.519505000000000109e+03
1.350000000000000089e-01 5.793015000000000247e-01 6.313184999999999825e+00 1.315745000000000005e+02 1.519369999999999891e+03
1.360000000000000098e-01 5.792394999999999072e-01 5.953149999999999942e+00 1.312810000000000059e+02 1.519244999999999891e+03
1.370000000000000107e-01 5.791935000000000278e-01 5.643679999999999808e+00 1.310559999999999832e+02 1.519154999999999973e+03
1.380000000000000115e-01 5.791600000000000081e-01 5.380974999999999397e+00 1.308919999999999959e+02 1.519075000000000045e+03
1.390000000000000124e-01 5.791375000000000828e-01 5.160395000000000287e+00 1.307789999999999964e+02 1.519019999999999982e+03
1.400000000000000133e-01 5.791229999999999434e-01 4.976689999999999614e+00 1.307079999999999984e+02 1.518970000000000027e+03
1.410000000000000142e-01 5.791150000000000464e-01 4.824220000000000397e+00 1.306684999999999945e+02 1.518940000000000055e+03
1.420000000000000151e-01 5.791104999999999725e-01 4.697189999999999976e+00 1.306490000000000009e+02 1.518920000000000073e+03
1.430000000000000160e-01 5.791070000000000384e-01 4.589869999999999450e+00 1.306405000000000030e+02 1.518900000000000091e+03
1.440000000000000169e-01 5.791029999999999234e-01 4.496774999999999523e+00 1.306329999999999814e+02 1.518890000000000100e+03
1.450000000000000178e-01 5.790965000000000140e-01 4.412849999999999717e+00 1.306175000000000068e+02 1.518869999999999891e+03
1.459999999999999909e-01 5.790855000000000308e-01 4.333549999999999791e+00 1.305869999999999891e+02 1.518855000000000018e+03
1.469999999999999918e-01 5.790699999999999736e-01 4.254984999999999573e+00 1.305364999999999895e+02 1.518835000000000036e+03
1.479999999999999927e-01 5.790490000000000359e-01 4.173944999999999794e+00 1.304604999999999961e+02 1.518804999999999836e+03
1.489999999999999936e-01 5.790205000000000490e-01 4.087925000000000253e+00 1.303569999999999993e+02 1.518769999999999982e+03
1.499999999999999944e-01 5.789854999999999308e-01 3.995130000000000070e+00 1.302239999999999895e+02 1.518724999999999909e+03
1.509999999999999953e-01 5.789444999999999730e-01 3.894439999999999902e+00 1.300620000000000118e+02 1.518674999999999955e+03
1.519999999999999962e-01 5.788969999999999949e-01 3.785355000000000025e+00 1.298714999999999975e+02 1.518615000000000009e+03
1.529999999999999971e-01 5.788434999999999553e-01 3.667950000000000266e+00 1.296539999999999964e+02 1.518550000000000182e+03
1.539999999999999980e-01 5.787854999999999528e-01 3.542785000000000295e+00 1.294130000000000109e+02 1.518469999999999800e+03
1.549999999999999989e-01 5.787235000000000573e-01 3.410840000000000316e+00 1.291519999999999868e+02 1.518389999999999873e+03
1.559999999999999998e-01 5.786580000000000057e-01 3.273405000000000342e+00 1.288745000000000118e+02 1.518299999999999955e+03
1.570000000000000007e-01 5.785899999999999377e-01 3.132039999999999935e+00 1.285850000000000080e+02 1.518215000000000146e+03
1.580000000000000016e-01 5.785200000000000342e-01 2.988459999999999894e+00 1.282860000000000014e+02 1.518119999999999891e+03
1.590000000000000024e-01 5.784504999999999786e-01 2.844454999999999956e+00 1.279824999999999875e+02 1.518025000000000091e+03
