# t [s], A [cm^2], U [cm/s], P [cPa], c [cm/s]
1.000000000000000021e-03 1.517435000000000034e-01 2.893915000000000237e-01 9.306225000000000591e+01 1.898454999999999927e+03
2.000000000000000042e-03 1.517114999999999991e-01 1.756963999999999970e+00 9.014199999999999591e+01 1.898110000000000127e+03
3.000000000000000062e-03 1.516089999999999938e-01 3.560686999999999713e+00 8.620949999999999136e+01 1.897079999999999927e+03
4.000000000000000083e-03 1.514599999999999835e-01 5.570172999999999597e+00 8.184450000000001069e+01 1.895595000000000027e+03
5.000000000000000104e-03 1.512930000000000108e-01 7.731695000000000206e+00 7.780064999999999031e+01 1.893950000000000045e+03
6.000000000000000125e-03 1.511264999999999969e-01 9.921340000000000714e+00 7.442605000000000359e+01 1.892329999999999927e+03
7.000000000000000146e-03 1.509689999999999921e-01 1.195933500000000116e+01 7.161494999999999322e+01 1.890809999999999945e+03
8.000000000000000167e-03 1.508209999999999829e-01 1.372797499999999893e+01 6.912274999999999636e+01 1.889414999999999964e+03
9.000000000000001055e-03 1.506870000000000154e-01 1.522744999999999926e+01 6.689289999999999736e+01 1.888164999999999964e+03
1.000000000000000194e-02 1.505695000000000228e-01 1.649609999999999843e+01 6.499585000000000434e+01 1.887085000000000036e+03
1.099999999999999936e-02 1.504699999999999926e-01 1.755355000000000132e+01 6.345149999999999579e+01 1.886179999999999836e+03
1.200000000000000025e-02 1.503869999999999929e-01 1.841215000000000046e+01 6.222424999999999784e+01 1.885434999999999945e+03
1.300000000000000114e-02 1.503200000000000092e-01 1.908370000000000033e+01 6.126274999999999693e+01 1.884840000000000146e+03
1.400000000000000203e-02 1.502660000000000107e-01 1.957260000000000133e+01 6.049150000000000205e+01 1.884360000000000127e+03
1.499999999999999944e-02 1.502215000000000078e-01 1.989034999999999798e+01 5.983034999999999570e+01 1.883980000000000018e+03
1.600000000000000033e-02 1.501850000000000129e-01 2.008670000000000044e+01 5.927795000000000414e+01 1.883675000000000182e+03
1.700000000000000122e-02 1.501585000000000003e-01 2.025990000000000180e+01 5.897549999999999670e+01 1.883464999999999918e+03
1.800000000000000211e-02 1.501485000000000181e-01 2.052604999999999791e+01 5.916639999999999588e+01 1.883384999999999991e+03
1.900000000000000300e-02 1.501600000000000157e-01 2.096629999999999683e+01 6.006329999999999814e+01 1.883505000000000109e+03
2.000000000000000042e-02 1.501974999999999838e-01 2.158699999999999974e+01 6.171244999999999692e+01 1.883849999999999909e+03
2.100000000000000130e-02 1.502570000000000017e-01 2.231414999999999793e+01 6.393389999999999418e+01 1.884400000000000091e+03
2.200000000000000219e-02 1.503309999999999924e-01 2.302044999999999675e+01 6.636449999999999250e+01 1.885085000000000036e+03
2.299999999999999961e-02 1.504090000000000149e-01 2.357010000000000005e+01 6.857200000000000273e+01 1.885809999999999945e+03
2.400000000000000050e-02 1.504780000000000006e-01 2.386180000000000234e+01 7.018774999999999409e+01 1.886465000000000146e+03
2.500000000000000139e-02 1.505289999999999961e-01 2.385495000000000232e+01 7.100815000000000055e+01 1.886954999999999927e+03
2.600000000000000228e-02 1.505579999999999974e-01 2.357420000000000115e+01 7.103405000000000769e+01 1.887250000000000000e+03
2.700000000000000316e-02 1.505659999999999776e-01 2.309315000000000140e+01 7.044319999999999027e+01 1.887345000000000027e+03
2.800000000000000058e-02 1.505569999999999964e-01 2.250529999999999831e+01 6.951239999999999952e+01 1.887285000000000082e+03
2.900000000000000147e-02 1.505394999999999928e-01 2.189405000000000001e+01 6.852219999999999800e+01 1.887134999999999991e+03
3.000000000000000236e-02 1.505184999999999995e-01 2.131135000000000090e+01 6.767595000000000027e+01 1.886949999999999818e+03
3.099999999999999978e-02 1.504995000000000083e-01 2.076964999999999861e+01 6.705705000000000382e+01 1.886775000000000091e+03
3.200000000000000067e-02 1.504834999999999923e-01 2.024800000000000111e+01 6.662999999999999545e+01 1.886630000000000109e+03
3.300000000000000155e-02 1.504694999999999783e-01 1.970664999999999978e+01 6.627715000000000600e+01 1.886494999999999891e+03
3.400000000000000244e-02 1.504544999999999910e-01 1.910650000000000048e+01 6.585464999999999236e+01 1.886360000000000127e+03
3.500000000000000333e-02 1.504354999999999998e-01 1.842564999999999742e+01 6.525000000000000000e+01 1.886190000000000055e+03
3.600000000000000422e-02 1.504110000000000169e-01 1.767060000000000031e+01 6.442484999999999218e+01 1.885970000000000027e+03
3.700000000000000511e-02 1.503800000000000137e-01 1.687870000000000203e+01 6.343400000000000460e+01 1.885690000000000055e+03
3.799999999999999906e-02 1.503460000000000074e-01 1.611120000000000019e+01 6.241564999999999941e+01 1.885380000000000109e+03
3.899999999999999994e-02 1.503130000000000022e-01 1.543984999999999985e+01 6.155799999999999272e+01 1.885085000000000036e+03
4.000000000000000083e-02 1.502875000000000183e-01 1.493049999999999855e+01 6.105105000000000359e+01 1.884840000000000146e+03
4.100000000000000172e-02 1.502739999999999909e-01 1.462744999999999962e+01 6.103849999999999909e+01 1.884704999999999927e+03
4.200000000000000261e-02 1.502764999999999795e-01 1.454354999999999976e+01 6.158120000000000260e+01 1.884719999999999800e+03
4.300000000000000350e-02 1.502959999999999852e-01 1.465739999999999910e+01 6.264155000000000229e+01 1.884880000000000109e+03
4.400000000000000439e-02 1.503309999999999924e-01 1.491745000000000054e+01 6.408950000000000102e+01 1.885184999999999945e+03
4.499999999999999833e-02 1.503774999999999973e-01 1.525140000000000029e+01 6.572720000000001050e+01 1.885599999999999909e+03
4.599999999999999922e-02 1.504284999999999928e-01 1.557810000000000095e+01 6.732470000000000709e+01 1.886065000000000055e+03
4.700000000000000011e-02 1.504780000000000006e-01 1.581975000000000087e+01 6.865735000000000809e+01 1.886519999999999982e+03
4.800000000000000100e-02 1.505190000000000139e-01 1.591179999999999950e+01 6.953839999999999577e+01 1.886900000000000091e+03
4.900000000000000189e-02 1.505464999999999998e-01 1.580899999999999928e+01 6.984104999999999563e+01 1.887160000000000082e+03
5.000000000000000278e-02 1.505549999999999944e-01 1.548794999999999966e+01 6.950749999999999318e+01 1.887250000000000000e+03
5.100000000000000366e-02 1.505444999999999978e-01 1.494629999999999903e+01 6.854634999999998968e+01 1.887159999999999854e+03
5.200000000000000455e-02 1.505130000000000079e-01 1.419894999999999996e+01 6.702065000000000339e+01 1.886884999999999991e+03
5.300000000000000544e-02 1.504630000000000134e-01 1.327309999999999945e+01 6.503069999999999595e+01 1.886429999999999836e+03
5.399999999999999939e-02 1.503970000000000029e-01 1.220363500000000023e+01 6.269585000000000008e+01 1.885829999999999927e+03
5.500000000000000028e-02 1.503174999999999928e-01 1.102904999999999980e+01 6.013924999999999699e+01 1.885115000000000009e+03
5.600000000000000117e-02 1.502300000000000024e-01 9.788335000000000008e+00 5.747700000000000387e+01 1.884309999999999945e+03
5.700000000000000205e-02 1.501370000000000204e-01 8.520094999999999530e+00 5.481300000000000239e+01 1.883454999999999927e+03
5.800000000000000294e-02 1.500425000000000231e-01 7.261925000000000630e+00 5.223819999999999908e+01 1.882585000000000036e+03
5.900000000000000383e-02 1.499489999999999990e-01 6.050775000000000681e+00 4.983294999999999675e+01 1.881730000000000018e+03
6.000000000000000472e-02 1.498599999999999932e-01 4.923670000000000435e+00 4.767105000000000103e+01 1.880909999999999854e+03
6.099999999999999867e-02 1.497795000000000099e-01 3.917679999999999829e+00 4.582274999999999920e+01 1.880154999999999973e+03
6.199999999999999956e-02 1.497085000000000221e-01 3.069697999999999816e+00 4.435674999999999812e+01 1.879500000000000000e+03
6.300000000000000044e-02 1.496510000000000062e-01 2.415479500000000002e+00 4.334019999999999584e+01 1.878960000000000036e+03
6.400000000000000133e-02 1.496089999999999920e-01 1.988216500000000053e+00 4.283639999999999759e+01 1.878565000000000055e+03
6.500000000000000222e-02 1.495859999999999967e-01 1.816734999999999989e+00 4.290095000000000169e+01 1.878329999999999927e+03
6.600000000000000311e-02 1.495825000000000071e-01 1.923659999999999926e+00 4.357744999999999891e+01 1.878279999999999973e+03
6.700000000000000400e-02 1.496009999999999840e-01 2.323784999999999989e+00 4.489329999999999643e+01 1.878434999999999945e+03
6.800000000000000488e-02 1.496429999999999982e-01 3.022909999999999986e+00 4.685640000000000072e+01 1.878795000000000073e+03
6.900000000000000577e-02 1.497085000000000221e-01 4.017294999999999838e+00 4.945295000000000130e+01 1.879380000000000109e+03
7.000000000000000666e-02 1.497970000000000135e-01 5.293709999999999027e+00 5.264799999999999613e+01 1.880170000000000073e+03
7.100000000000000755e-02 1.499079999999999857e-01 6.830189999999999984e+00 5.638654999999999973e+01 1.881170000000000073e+03
7.200000000000000844e-02 1.500390000000000057e-01 8.597279999999999589e+00 6.059754999999999825e+01 1.882355000000000018e+03
7.300000000000000933e-02 1.501879999999999882e-01 1.055951499999999932e+01 6.519724999999999682e+01 1.883714999999999918e+03
7.399999999999999634e-02 1.503525000000000000e-01 1.267737499999999962e+01 7.009444999999999482e+01 1.885224999999999909e+03
7.499999999999999722e-02 1.505285000000000095e-01 1.490891999999999840e+01 7.519534999999999059e+01 1.886845000000000027e+03
7.599999999999999811e-02 1.507145000000000012e-01 1.721189999999999998e+01 8.040789999999999793e+01 1.888559999999999945e+03
7.699999999999999900e-02 1.509059999999999846e-01 1.954525000000000290e+01 8.564615000000000578e+01 1.890329999999999927e+03
7.799999999999999989e-02 1.511000000000000121e-01 2.187075000000000102e+01 9.083384999999999820e+01 1.892134999999999991e+03
7.900000000000000078e-02 1.512944999999999984e-01 2.415445000000000064e+01 9.590715000000000146e+01 1.893950000000000045e+03
8.000000000000000167e-02 1.514864999999999962e-01 2.636764999999999759e+01 1.008162000000000091e+02 1.895744999999999891e+03
8.100000000000000255e-02 1.516740000000000033e-01 2.848760000000000048e+01 1.055270500000000027e+02 1.897514999999999873e+03
8.200000000000000344e-02 1.518565000000000054e-01 3.049800000000000111e+01 1.100215000000000032e+02 1.899230000000000018e+03
8.300000000000000433e-02 1.520320000000000005e-01 3.238889999999999958e+01 1.142959999999999923e+02 1.900889999999999873e+03
8.400000000000000522e-02 1.522005000000000163e-01 3.415625000000000000e+01 1.183590000000000089e+02 1.902490000000000009e+03
8.500000000000000611e-02 1.523625000000000118e-01 3.580134999999999934e+01 1.222309999999999945e+02 1.904030000000000200e+03
8.600000000000000699e-02 1.525179999999999869e-01 3.732959999999999923e+01 1.259389999999999930e+02 1.905514999999999873e+03
8.700000000000000788e-02 1.526684999999999848e-01 3.874954999999999927e+01 1.295140000000000100e+02 1.906950000000000045e+03
8.800000000000000877e-02 1.528134999999999910e-01 4.007134999999999536e+01 1.329879999999999995e+02 1.908345000000000027e+03
8.899999999999999578e-02 1.529550000000000076e-01 4.130584999999999951e+01 1.363904999999999745e+02 1.909700000000000045e+03
8.999999999999999667e-02 1.530940000000000079e-01 4.246334999999999837e+01 1.397450000000000045e+02 1.911029999999999973e+03
9.099999999999999756e-02 1.532304999999999917e-01 4.355254999999999654e+01 1.430699999999999932e+02 1.912340000000000146e+03
9.199999999999999845e-02 1.533654999999999879e-01 4.458010000000000161e+01 1.463739999999999952e+02 1.913639999999999873e+03
9.299999999999999933e-02 1.534989999999999966e-01 4.555004999999999882e+01 1.496585000000000036e+02 1.914924999999999955e+03
9.400000000000000022e-02 1.536315000000000042e-01 4.646365000000000123e+01 1.529150000000000205e+02 1.916200000000000045e+03
9.500000000000000111e-02 1.537624999999999964e-01 4.731940000000000168e+01 1.561279999999999859e+02 1.917460000000000036e+03
9.600000000000000200e-02 1.538914999999999866e-01 4.811334999999999695e+01 1.592764999999999986e+02 1.918704999999999927e+03
9.700000000000000289e-02 1.540175000000000016e-01 4.883950000000000102e+01 1.623344999999999914e+02 1.919920000000000073e+03
9.800000000000000377e-02 1.541405000000000136e-01 4.949025000000000318e+01 1.652724999999999795e+02 1.921099999999999909e+03
9.900000000000000466e-02 1.542580000000000062e-01 5.005684999999999718e+01 1.680604999999999905e+02 1.922244999999999891e+03
1.000000000000000056e-01 1.543705000000000216e-01 5.053045000000000186e+01 1.706684999999999945e+02 1.923335000000000036e+03
1.010000000000000064e-01 1.544754999999999878e-01 5.090194999999999936e+01 1.730674999999999955e+02 1.924360000000000127e+03
1.020000000000000073e-01 1.545735000000000026e-01 5.116315000000000168e+01 1.752340000000000089e+02 1.925309999999999945e+03
1.030000000000000082e-01 1.546635000000000093e-01 5.130700000000000216e+01 1.771454999999999984e+02 1.926184999999999945e+03
1.040000000000000091e-01 1.547429999999999917e-01 5.132800000000000296e+01 1.787864999999999895e+02 1.926965000000000146e+03
1.050000000000000100e-01 1.548134999999999928e-01 5.122239999999999327e+01 1.801465000000000032e+02 1.927654999999999973e+03
1.059999999999999970e-01 1.548729999999999829e-01 5.098900000000000432e+01 1.812194999999999823e+02 1.928244999999999891e+03
1.069999999999999979e-01 1.549214999999999898e-01 5.062850000000000250e+01 1.820065000000000168e+02 1.928724999999999909e+03
1.079999999999999988e-01 1.549599999999999866e-01 5.014454999999999529e+01 1.825155000000000030e+02 1.929115000000000009e+03
1.089999999999999997e-01 1.549880000000000146e-01 4.954274999999999807e+01 1.827574999999999932e+02 1.929394999999999982e+03
1.100000000000000006e-01 1.550059999999999771e-01 4.883140000000000214e+01 1.827509999999999764e+02 1.929579999999999927e+03
1.110000000000000014e-01 1.550139999999999851e-01 4.802080000000000126e+01 1.825180000000000007e+02 1.929674999999999955e+03
1.120000000000000023e-01 1.550134999999999985e-01 4.712295000000000300e+01 1.820835000000000150e+02 1.929680000000000064e+03
1.130000000000000032e-01 1.550055000000000183e-01 4.615144999999999698e+01 1.814774999999999920e+02 1.929605000000000018e+03
1.140000000000000041e-01 1.549900000000000166e-01 4.512090000000000600e+01 1.807294999999999732e+02 1.929470000000000027e+03
1.150000000000000050e-01 1.549685000000000090e-01 4.404619999999999891e+01 1.798725000000000023e+02 1.929275000000000091e+03
1.160000000000000059e-01 1.549425000000000108e-01 4.294259999999999877e+01 1.789359999999999786e+02 1.929030000000000200e+03
1.170000000000000068e-01 1.549129999999999951e-01 4.182464999999999833e+01 1.779495000000000005e+02 1.928744999999999891e+03
1.180000000000000077e-01 1.548809999999999909e-01 4.070595000000000141e+01 1.769404999999999859e+02 1.928440000000000055e+03
1.190000000000000085e-01 1.548464999999999980e-01 3.959905000000000541e+01 1.759325000000000045e+02 1.928110000000000127e+03
1.200000000000000094e-01 1.548120000000000052e-01 3.851449999999999818e+01 1.749449999999999932e+02 1.927779999999999973e+03
1.209999999999999964e-01 1.547769999999999979e-01 3.746115000000000350e+01 1.739934999999999832e+02 1.927445000000000164e+03
1.219999999999999973e-01 1.547425000000000050e-01 3.644565000000000055e+01 1.730880000000000223e+02 1.927110000000000127e+03
1.229999999999999982e-01 1.547094999999999998e-01 3.547234999999999872e+01 1.722350000000000136e+02 1.926784999999999854e+03
1.239999999999999991e-01 1.546779999999999822e-01 3.454350000000000165e+01 1.714354999999999905e+02 1.926480000000000018e+03
1.250000000000000000e-01 1.546474999999999933e-01 3.365905000000000058e+01 1.706864999999999952e+02 1.926174999999999955e+03
1.260000000000000009e-01 1.546180000000000054e-01 3.281704999999999472e+01 1.699789999999999850e+02 1.925894999999999982e+03
1.270000000000000018e-01 1.545900000000000052e-01 3.201339999999999719e+01 1.693034999999999854e+02 1.925619999999999891e+03
1.280000000000000027e-01 1.545630000000000059e-01 3.124284999999999712e+01 1.686460000000000150e+02 1.925355000000000018e+03
1.290000000000000036e-01 1.545369999999999799e-01 3.049865000000000137e+01 1.679895000000000209e+02 1.925095000000000027e+03
1.300000000000000044e-01 1.545099999999999807e-01 2.977315000000000111e+01 1.673174999999999955e+02 1.924829999999999927e+03
1.310000000000000053e-01 1.544824999999999948e-01 2.905834999999999724e+01 1.666125000000000114e+02 1.924565000000000055e+03
1.320000000000000062e-01 1.544544999999999946e-01 2.834600000000000009e+01 1.658575000000000159e+02 1.924284999999999854e+03
1.330000000000000071e-01 1.544240000000000057e-01 2.762825000000000131e+01 1.650344999999999800e+02 1.923994999999999891e+03
1.340000000000000080e-01 1.543915000000000148e-01 2.689774999999999849e+01 1.641314999999999884e+02 1.923679999999999836e+03
1.350000000000000089e-01 1.543565000000000076e-01 2.614835000000000065e+01 1.631359999999999957e+02 1.923340000000000146e+03
1.360000000000000098e-01 1.543174999999999963e-01 2.537494999999999834e+01 1.620405000000000086e+02 1.922970000000000027e+03
1.370000000000000107e-01 1.542755000000000098e-01 2.457414999999999949e+01 1.608394999999999868e+02 1.922559999999999945e+03
1.380000000000000115e-01 1.542295000000000194e-01 2.374425000000000097e+01 1.595339999999999918e+02 1.922119999999999891e+03
1.390000000000000124e-01 1.541800000000000115e-01 2.288524999999999920e+01 1.581270000000000095e+02 1.921650000000000091e+03
1.400000000000000133e-01 1.541270000000000140e-01 2.199915000000000020e+01 1.566254999999999882e+02 1.921134999999999991e+03
1.410000000000000142e-01 1.540704999999999991e-01 2.108959999999999724e+01 1.550420000000000016e+02 1.920595000000000027e+03
1.420000000000000151e-01 1.540104999999999946e-01 2.016199999999999903e+01 1.533915000000000077e+02 1.920025000000000091e+03
1.430000000000000160e-01 1.539480000000000015e-01 1.922315000000000040e+01 1.516920000000000073e+02 1.919430000000000064e+03
1.440000000000000169e-01 1.538839999999999930e-01 1.828115000000000023e+01 1.499639999999999986e+02 1.918815000000000055e+03
1.450000000000000178e-01 1.538189999999999835e-01 1.734485000000000099e+01 1.482280000000000086e+02 1.918190000000000055e+03
1.459999999999999909e-01 1.537530000000000008e-01 1.642350000000000065e+01 1.465074999999999932e+02 1.917559999999999945e+03
1.469999999999999918e-01 1.536870000000000180e-01 1.552660000000000018e+01 1.448245000000000005e+02 1.916930000000000064e+03
1.479999999999999927e-01 1.536230000000000095e-01 1.466349999999999909e+01 1.431990000000000123e+02 1.916309999999999945e+03
1.489999999999999936e-01 1.535600000000000021e-01 1.384249999999999936e+01 1.416505000000000223e+02 1.915710000000000036e+03
1.499999999999999944e-01 1.534999999999999976e-01 1.307124999999999915e+01 1.401945000000000050e+02 1.915134999999999991e+03
1.509999999999999953e-01 1.534429999999999961e-01 1.235620000000000118e+01 1.388439999999999941e+02 1.914585000000000036e+03
1.519999999999999962e-01 1.533889999999999976e-01 1.170202000000000098e+01 1.376090000000000089e+02 1.914069999999999936e+03
1.529999999999999971e-01 1.533394999999999897e-01 1.111216999999999899e+01 1.364945000000000164e+02 1.913589999999999918e+03
1.539999999999999980e-01 1.532939999999999858e-01 1.058811000000000035e+01 1.355024999999999977e+02 1.913150000000000091e+03
1.549999999999999989e-01 1.532530000000000003e-01 1.012982500000000030e+01 1.346310000000000002e+02 1.912750000000000000e+03
1.559999999999999998e-01 1.532159999999999911e-01 9.735789999999999722e+00 1.338745000000000118e+02 1.912394999999999982e+03
1.570000000000000007e-01 1.531835000000000002e-01 9.402960000000000207e+00 1.332255000000000109e+02 1.912075000000000045e+03
1.580000000000000016e-01 1.531544999999999990e-01 9.127100000000000435e+00 1.326730000000000018e+02 1.911799999999999955e+03
1.590000000000000024e-01 1.531295000000000017e-01 8.902915000000000134e+00 1.322049999999999841e+02 1.911554999999999836e+03
