# t [s], A [cm^2], U [cm/s], P [cPa], c [cm/s]
1.000000000000000021e-03 1.869509999999999783e-01 1.979309999999999958e-01 1.054774999999999920e+02 2.153414999999999964e+03
2.000000000000000042e-03 1.869135000000000102e-01 1.609173499999999812e+00 1.023875500000000045e+02 2.153085000000000036e+03
3.000000000000000062e-03 1.867949999999999888e-01 3.416636000000000006e+00 9.801975000000000193e+01 2.152114999999999782e+03
4.000000000000000083e-03 1.866249999999999853e-01 5.470955850000000176e+00 9.300569999999999027e+01 2.150739999999999782e+03
5.000000000000000104e-03 1.864350000000000174e-01 7.705560000000000187e+00 8.822630000000000905e+01 2.149225000000000364e+03
6.000000000000000125e-03 1.862459999999999949e-01 9.981189999999999785e+00 8.413409999999998945e+01 2.147730000000000018e+03
7.000000000000000146e-03 1.860669999999999824e-01 1.209363999999999884e+01 8.064599999999998658e+01 2.146340000000000146e+03
8.000000000000000167e-03 1.859004999999999963e-01 1.391522499999999951e+01 7.752365000000000350e+01 2.145065000000000055e+03
9.000000000000001055e-03 1.857504999999999851e-01 1.544744999999999990e+01 7.474905000000001110e+01 2.143940000000000055e+03
1.000000000000000194e-02 1.856214999999999948e-01 1.672615000000000052e+01 7.241290000000000759e+01 2.142980000000000018e+03
1.099999999999999936e-02 1.855134999999999978e-01 1.777230000000000132e+01 7.053849999999999909e+01 2.142190000000000055e+03
1.200000000000000025e-02 1.854275000000000229e-01 1.859840000000000160e+01 6.908195000000000618e+01 2.141565000000000055e+03
1.300000000000000114e-02 1.853579999999999950e-01 1.920670000000000144e+01 6.794650000000000034e+01 2.141069999999999709e+03
1.400000000000000203e-02 1.853019999999999945e-01 1.959844999999999970e+01 6.699975000000000591e+01 2.140680000000000291e+03
1.499999999999999944e-02 1.852555000000000174e-01 1.981179999999999808e+01 6.617475000000000307e+01 2.140359999999999673e+03
1.600000000000000033e-02 1.852205000000000101e-01 1.994639999999999702e+01 6.558369999999999322e+01 2.140125000000000000e+03
1.700000000000000122e-02 1.852030000000000065e-01 2.013745000000000118e+01 6.550509999999999877e+01 2.140010000000000218e+03
1.800000000000000211e-02 1.852110000000000145e-01 2.049380000000000024e+01 6.622675000000000978e+01 2.140074999999999818e+03
1.900000000000000300e-02 1.852475000000000094e-01 2.104459999999999908e+01 6.785829999999999984e+01 2.140360000000000127e+03
2.000000000000000042e-02 1.853115000000000179e-01 2.172745000000000104e+01 7.023584999999999923e+01 2.140835000000000036e+03
2.100000000000000130e-02 1.853934999999999889e-01 2.241844999999999999e+01 7.296500000000000341e+01 2.141444999999999709e+03
2.200000000000000219e-02 1.854804999999999926e-01 2.298310000000000031e+01 7.556024999999999636e+01 2.142105000000000018e+03
2.299999999999999961e-02 1.855584999999999873e-01 2.332325000000000159e+01 7.760765000000000668e+01 2.142704999999999927e+03
2.400000000000000050e-02 1.856194999999999928e-01 2.340350000000000108e+01 7.888204999999999245e+01 2.143185000000000400e+03
2.500000000000000139e-02 1.856595000000000051e-01 2.325104999999999933e+01 7.938309999999999889e+01 2.143510000000000218e+03
2.600000000000000228e-02 1.856800000000000117e-01 2.293424999999999869e+01 7.929079999999999018e+01 2.143680000000000291e+03
2.700000000000000316e-02 1.856860000000000177e-01 2.253085000000000093e+01 7.886879999999999313e+01 2.143739999999999782e+03
2.800000000000000058e-02 1.856829999999999870e-01 2.209909999999999997e+01 7.835755000000000337e+01 2.143730000000000018e+03
2.900000000000000147e-02 1.856769999999999810e-01 2.166130000000000067e+01 7.789689999999998804e+01 2.143689999999999600e+03
3.000000000000000236e-02 1.856690000000000007e-01 2.120360000000000156e+01 7.749850000000000705e+01 2.143635000000000218e+03
3.099999999999999978e-02 1.856590000000000185e-01 2.068950000000000244e+01 7.707025000000000148e+01 2.143555000000000291e+03
3.200000000000000067e-02 1.856424999999999881e-01 2.008044999999999902e+01 7.647594999999999743e+01 2.143440000000000055e+03
3.300000000000000155e-02 1.856184999999999918e-01 1.935630000000000095e+01 7.560609999999999786e+01 2.143270000000000437e+03
3.400000000000000244e-02 1.855844999999999856e-01 1.852949999999999875e+01 7.443649999999999523e+01 2.143019999999999982e+03
3.500000000000000333e-02 1.855424999999999991e-01 1.764799999999999969e+01 7.305539999999999168e+01 2.142715000000000146e+03
3.600000000000000422e-02 1.854974999999999818e-01 1.678645000000000209e+01 7.165209999999999013e+01 2.142375000000000000e+03
3.700000000000000511e-02 1.854545000000000221e-01 1.602890000000000015e+01 7.047050000000000125e+01 2.142059999999999945e+03
3.799999999999999906e-02 1.854215000000000169e-01 1.544810000000000016e+01 6.974455000000000382e+01 2.141804999999999836e+03
3.899999999999999994e-02 1.854055000000000009e-01 1.508790000000000120e+01 6.963595000000000823e+01 2.141664999999999964e+03
4.000000000000000083e-02 1.854080000000000172e-01 1.495410000000000039e+01 7.019259999999999877e+01 2.141675000000000182e+03
4.100000000000000172e-02 1.854304999999999981e-01 1.501480000000000103e+01 7.133830000000000382e+01 2.141824999999999818e+03
4.200000000000000261e-02 1.854689999999999950e-01 1.520889999999999986e+01 7.289205000000001178e+01 2.142105000000000018e+03
4.300000000000000350e-02 1.855180000000000162e-01 1.545945000000000036e+01 7.460935000000000628e+01 2.142460000000000036e+03
4.400000000000000439e-02 1.855700000000000127e-01 1.568850000000000122e+01 7.623140000000000782e+01 2.142845000000000255e+03
4.499999999999999833e-02 1.856185000000000196e-01 1.582890000000000086e+01 7.753059999999999263e+01 2.143204999999999927e+03
4.599999999999999922e-02 1.856555000000000011e-01 1.583244999999999969e+01 7.834225000000000705e+01 2.143489999999999782e+03
4.700000000000000011e-02 1.856774999999999953e-01 1.567229999999999990e+01 7.857884999999998854e+01 2.143664999999999964e+03
4.800000000000000100e-02 1.856814999999999993e-01 1.534120000000000061e+01 7.822735000000000127e+01 2.143704999999999927e+03
4.900000000000000189e-02 1.856679999999999997e-01 1.484694999999999965e+01 7.733329999999999416e+01 2.143609999999999673e+03
5.000000000000000278e-02 1.856369999999999965e-01 1.420645000000000024e+01 7.597865000000000180e+01 2.143389999999999873e+03
5.100000000000000366e-02 1.855919999999999792e-01 1.344059999999999988e+01 7.425964999999999350e+01 2.143054999999999836e+03
5.200000000000000455e-02 1.855335000000000178e-01 1.257069999999999865e+01 7.226940000000000452e+01 2.142625000000000000e+03
5.300000000000000544e-02 1.854659999999999920e-01 1.161677500000000052e+01 7.008879999999999200e+01 2.142119999999999891e+03
5.399999999999999939e-02 1.853899999999999992e-01 1.059821499999999972e+01 6.778479999999998995e+01 2.141559999999999945e+03
5.500000000000000028e-02 1.853100000000000025e-01 9.535130000000000550e+00 6.541450000000000387e+01 2.140954999999999927e+03
5.600000000000000117e-02 1.852260000000000018e-01 8.450385000000000701e+00 6.303260000000000218e+01 2.140329999999999927e+03
5.700000000000000205e-02 1.851415000000000144e-01 7.371095000000000397e+00 6.069884999999999309e+01 2.139694999999999709e+03
5.800000000000000294e-02 1.850590000000000013e-01 6.329190000000000538e+00 5.848345000000000482e+01 2.139074999999999818e+03
5.900000000000000383e-02 1.849800000000000055e-01 5.361064999999999969e+00 5.646829999999999927e+01 2.138480000000000018e+03
6.000000000000000472e-02 1.849089999999999900e-01 4.505900000000000460e+00 5.474510000000000076e+01 2.137939999999999600e+03
6.099999999999999867e-02 1.848484999999999989e-01 3.803259999999999863e+00 5.340935000000000343e+01 2.137480000000000018e+03
6.199999999999999956e-02 1.848015000000000074e-01 3.290294999999999970e+00 5.255275000000000318e+01 2.137119999999999891e+03
6.300000000000000044e-02 1.847719999999999918e-01 2.998905000000000154e+00 5.225509999999999877e+01 2.136880000000000109e+03
6.400000000000000133e-02 1.847619999999999818e-01 2.953400000000000247e+00 5.257639999999999958e+01 2.136784999999999854e+03
6.500000000000000222e-02 1.847735000000000072e-01 3.168769999999999865e+00 5.355219999999999914e+01 2.136855000000000018e+03
6.600000000000000311e-02 1.848080000000000001e-01 3.649865000000000137e+00 5.518984999999999985e+01 2.137095000000000255e+03
6.700000000000000400e-02 1.848650000000000015e-01 4.391384999999999650e+00 5.746914999999999907e+01 2.137505000000000109e+03
6.800000000000000488e-02 1.849445000000000117e-01 5.378619999999999735e+00 6.034430000000000405e+01 2.138085000000000036e+03
6.900000000000000577e-02 1.850450000000000150e-01 6.588839999999999364e+00 6.374860000000000326e+01 2.138819999999999709e+03
7.000000000000000666e-02 1.851634999999999809e-01 7.993055000000000021e+00 6.759975000000000023e+01 2.139695000000000164e+03
7.100000000000000755e-02 1.852985000000000049e-01 9.558104999999999407e+00 7.180665000000000475e+01 2.140695000000000164e+03
7.200000000000000844e-02 1.854465000000000141e-01 1.124887499999999996e+01 7.627594999999999459e+01 2.141800000000000182e+03
7.300000000000000933e-02 1.856045000000000056e-01 1.303022999999999954e+01 8.091790000000000305e+01 2.142974999999999909e+03
7.399999999999999634e-02 1.857695000000000041e-01 1.486895000000000167e+01 8.565205000000000268e+01 2.144215000000000146e+03
7.499999999999999722e-02 1.859385000000000066e-01 1.673525000000000063e+01 9.041089999999999804e+01 2.145489999999999782e+03
7.599999999999999811e-02 1.861094999999999833e-01 1.860379999999999967e+01 9.514244999999999663e+01 2.146784999999999854e+03
7.699999999999999900e-02 1.862814999999999888e-01 2.045394999999999897e+01 9.981024999999999636e+01 2.148090000000000146e+03
7.799999999999999989e-02 1.864520000000000066e-01 2.227000000000000313e+01 1.043935500000000047e+02 2.149385000000000218e+03
7.900000000000000078e-02 1.866210000000000091e-01 2.404064999999999941e+01 1.088840000000000003e+02 2.150675000000000182e+03
8.000000000000000167e-02 1.867880000000000096e-01 2.575799999999999912e+01 1.132824999999999989e+02 2.151944999999999709e+03
8.100000000000000255e-02 1.869520000000000071e-01 2.741700000000000159e+01 1.175949999999999989e+02 2.153199999999999818e+03
8.200000000000000344e-02 1.871140000000000025e-01 2.901395000000000124e+01 1.218299999999999983e+02 2.154444999999999709e+03
8.300000000000000433e-02 1.872739999999999960e-01 3.054629999999999868e+01 1.259934999999999974e+02 2.155670000000000073e+03
8.400000000000000522e-02 1.874315000000000009e-01 3.201129999999999853e+01 1.300900000000000034e+02 2.156880000000000109e+03
8.500000000000000611e-02 1.875864999999999894e-01 3.340635000000000332e+01 1.341165000000000020e+02 2.158074999999999818e+03
8.600000000000000699e-02 1.877395000000000036e-01 3.472825000000000273e+01 1.380690000000000168e+02 2.159250000000000000e+03
8.700000000000000788e-02 1.878900000000000015e-01 3.597339999999999804e+01 1.419354999999999905e+02 2.160409999999999854e+03
8.800000000000000877e-02 1.880364999999999953e-01 3.713795000000000357e+01 1.457040000000000077e+02 2.161550000000000182e+03
8.899999999999999578e-02 1.881794999999999995e-01 3.821790000000000020e+01 1.493559999999999945e+02 2.162655000000000200e+03
8.999999999999999667e-02 1.883190000000000142e-01 3.920900000000000318e+01 1.528765000000000214e+02 2.163734999999999673e+03
9.099999999999999756e-02 1.884534999999999960e-01 4.010710000000000264e+01 1.562470000000000141e+02 2.164774999999999636e+03
9.199999999999999845e-02 1.885819999999999996e-01 4.090800000000000125e+01 1.594485000000000241e+02 2.165775000000000091e+03
9.299999999999999933e-02 1.887050000000000116e-01 4.160760000000000502e+01 1.624644999999999868e+02 2.166730000000000018e+03
9.400000000000000022e-02 1.888210000000000166e-01 4.220165000000000077e+01 1.652774999999999750e+02 2.167635000000000218e+03
9.500000000000000111e-02 1.889290000000000136e-01 4.268619999999999948e+01 1.678704999999999927e+02 2.168480000000000018e+03
9.600000000000000200e-02 1.890294999999999892e-01 4.305734999999999957e+01 1.702264999999999873e+02 2.169260000000000218e+03
9.700000000000000289e-02 1.891214999999999979e-01 4.331179999999999808e+01 1.723329999999999984e+02 2.169984999999999673e+03
9.800000000000000377e-02 1.892039999999999833e-01 4.344710000000000605e+01 1.741754999999999995e+02 2.170630000000000109e+03
9.900000000000000466e-02 1.892765000000000142e-01 4.346170000000000044e+01 1.757454999999999927e+02 2.171204999999999927e+03
1.000000000000000056e-01 1.893394999999999939e-01 4.335585000000000377e+01 1.770364999999999895e+02 2.171704999999999927e+03
1.010000000000000064e-01 1.893925000000000192e-01 4.313134999999999764e+01 1.780484999999999900e+02 2.172125000000000000e+03
1.020000000000000073e-01 1.894345000000000057e-01 4.279214999999999947e+01 1.787875000000000227e+02 2.172465000000000146e+03
1.030000000000000082e-01 1.894675000000000109e-01 4.234439999999999316e+01 1.792630000000000052e+02 2.172725000000000364e+03
1.040000000000000091e-01 1.894905000000000062e-01 4.179609999999999559e+01 1.794915000000000020e+02 2.172914999999999964e+03
1.050000000000000100e-01 1.895040000000000058e-01 4.115729999999999933e+01 1.794959999999999809e+02 2.173029999999999745e+03
1.059999999999999970e-01 1.895100000000000118e-01 4.043935000000000457e+01 1.793015000000000043e+02 2.173090000000000146e+03
1.069999999999999979e-01 1.895080000000000098e-01 3.965484999999999616e+01 1.789370000000000118e+02 2.173079999999999927e+03
1.079999999999999988e-01 1.895000000000000018e-01 3.881694999999999851e+01 1.784320000000000164e+02 2.173024999999999636e+03
1.089999999999999997e-01 1.894865000000000022e-01 3.793890000000000384e+01 1.778179999999999836e+02 2.172929999999999836e+03
1.100000000000000006e-01 1.894689999999999985e-01 3.703350000000000364e+01 1.771225000000000023e+02 2.172800000000000182e+03
1.110000000000000014e-01 1.894474999999999909e-01 3.611280000000000001e+01 1.763729999999999905e+02 2.172639999999999873e+03
1.120000000000000023e-01 1.894240000000000090e-01 3.518765000000000498e+01 1.755914999999999964e+02 2.172454999999999927e+03
1.130000000000000032e-01 1.893984999999999974e-01 3.426749999999999829e+01 1.747975000000000136e+02 2.172260000000000218e+03
1.140000000000000041e-01 1.893719999999999848e-01 3.335990000000000322e+01 1.740060000000000002e+02 2.172054999999999836e+03
1.150000000000000050e-01 1.893449999999999855e-01 3.247079999999999700e+01 1.732259999999999991e+02 2.171850000000000364e+03
1.160000000000000059e-01 1.893179999999999863e-01 3.160405000000000086e+01 1.724635000000000105e+02 2.171639999999999873e+03
1.170000000000000068e-01 1.892909999999999870e-01 3.076169999999999760e+01 1.717189999999999941e+02 2.171430000000000291e+03
1.180000000000000077e-01 1.892645000000000022e-01 2.994404999999999717e+01 1.709884999999999877e+02 2.171220000000000255e+03
1.190000000000000085e-01 1.892380000000000173e-01 2.914965000000000117e+01 1.702665000000000077e+02 2.171014999999999873e+03
1.200000000000000094e-01 1.892109999999999903e-01 2.837559999999999860e+01 1.695425000000000182e+02 2.170805000000000291e+03
1.209999999999999964e-01 1.891839999999999911e-01 2.761805000000000021e+01 1.688034999999999854e+02 2.170595000000000255e+03
1.219999999999999973e-01 1.891559999999999908e-01 2.687185000000000201e+01 1.680374999999999943e+02 2.170375000000000000e+03
1.229999999999999982e-01 1.891269999999999896e-01 2.613179999999999836e+01 1.672289999999999850e+02 2.170149999999999636e+03
1.239999999999999991e-01 1.890965000000000007e-01 2.539215000000000089e+01 1.663645000000000209e+02 2.169904999999999745e+03
1.250000000000000000e-01 1.890634999999999954e-01 2.464754999999999896e+01 1.654314999999999998e+02 2.169654999999999745e+03
1.260000000000000009e-01 1.890275000000000150e-01 2.389310000000000045e+01 1.644184999999999945e+02 2.169380000000000109e+03
1.270000000000000018e-01 1.889894999999999770e-01 2.312480000000000047e+01 1.633174999999999955e+02 2.169079999999999927e+03
1.280000000000000027e-01 1.889480000000000048e-01 2.233974999999999866e+01 1.621229999999999905e+02 2.168765000000000327e+03
1.290000000000000036e-01 1.889035000000000020e-01 2.153645000000000209e+01 1.608350000000000080e+02 2.168420000000000073e+03
1.300000000000000044e-01 1.888555000000000095e-01 2.071490000000000009e+01 1.594555000000000007e+02 2.168050000000000182e+03
1.310000000000000053e-01 1.888039999999999996e-01 1.987675000000000125e+01 1.579925000000000068e+02 2.167654999999999745e+03
1.320000000000000062e-01 1.887504999999999877e-01 1.902524999999999977e+01 1.564565000000000055e+02 2.167239999999999782e+03
1.330000000000000071e-01 1.886935000000000140e-01 1.816515000000000057e+01 1.548629999999999995e+02 2.166805000000000291e+03
1.340000000000000080e-01 1.886349999999999971e-01 1.730259999999999820e+01 1.532314999999999827e+02 2.166350000000000364e+03
1.350000000000000089e-01 1.885749999999999926e-01 1.644474999999999909e+01 1.515810000000000173e+02 2.165890000000000327e+03
1.360000000000000098e-01 1.885140000000000149e-01 1.559950000000000081e+01 1.499345000000000141e+02 2.165425000000000182e+03
1.370000000000000107e-01 1.884540000000000104e-01 1.477515000000000001e+01 1.483149999999999977e+02 2.164960000000000036e+03
1.380000000000000115e-01 1.883940000000000059e-01 1.397990000000000066e+01 1.467439999999999998e+02 2.164500000000000000e+03
1.390000000000000124e-01 1.883360000000000034e-01 1.322155000000000058e+01 1.452425000000000068e+02 2.164050000000000182e+03
1.400000000000000133e-01 1.882805000000000173e-01 1.250724999999999909e+01 1.438285000000000196e+02 2.163619999999999891e+03
1.410000000000000142e-01 1.882280000000000064e-01 1.184290500000000002e+01 1.425169999999999959e+02 2.163210000000000036e+03
1.420000000000000151e-01 1.881789999999999852e-01 1.123327000000000098e+01 1.413179999999999836e+02 2.162829999999999927e+03
1.430000000000000160e-01 1.881335000000000091e-01 1.068166499999999886e+01 1.402394999999999925e+02 2.162475000000000364e+03
1.440000000000000169e-01 1.880919999999999814e-01 1.018994499999999981e+01 1.392844999999999800e+02 2.162159999999999854e+03
1.450000000000000178e-01 1.880554999999999866e-01 9.758485000000000298e+00 1.384530000000000030e+02 2.161869999999999891e+03
1.459999999999999909e-01 1.880229999999999957e-01 9.386279999999999291e+00 1.377400000000000091e+02 2.161614999999999782e+03
1.469999999999999918e-01 1.879945000000000088e-01 9.071139999999999759e+00 1.371399999999999864e+02 2.161390000000000327e+03
1.479999999999999927e-01 1.879699999999999982e-01 8.809810000000000585e+00 1.366429999999999723e+02 2.161194999999999709e+03
1.489999999999999936e-01 1.879494999999999916e-01 8.598214999999999719e+00 1.362400000000000091e+02 2.161030000000000200e+03
1.499999999999999944e-01 1.879319999999999879e-01 8.431610000000000937e+00 1.359174999999999898e+02 2.160890000000000327e+03
1.509999999999999953e-01 1.879175000000000151e-01 8.304830000000000823e+00 1.356639999999999873e+02 2.160774999999999636e+03
1.519999999999999962e-01 1.879060000000000175e-01 8.212490000000000734e+00 1.354675000000000011e+02 2.160684999999999945e+03
1.529999999999999971e-01 1.878960000000000075e-01 8.149129999999999541e+00 1.353160000000000025e+02 2.160605000000000018e+03
1.539999999999999980e-01 1.878885000000000138e-01 8.109424999999999883e+00 1.351995000000000005e+02 2.160545000000000073e+03
1.549999999999999989e-01 1.878819999999999935e-01 8.088305000000000078e+00 1.351064999999999827e+02 2.160485000000000127e+03
1.559999999999999998e-01 1.878765000000000018e-01 8.081105000000000871e+00 1.350285000000000082e+02 2.160440000000000055e+03
1.570000000000000007e-01 1.878714999999999968e-01 8.083629999999999427e+00 1.349585000000000150e+02 2.160404999999999745e+03
1.580000000000000016e-01 1.878679999999999795e-01 8.092285000000000394e+00 1.348915000000000077e+02 2.160369999999999891e+03
1.590000000000000024e-01 1.878640000000000032e-01 8.104085000000001315e+00 1.348209999999999980e+02 2.160340000000000146e+03
