# t [s], A [cm^2], U [cm/s], P [cPa], c [cm/s]
1.000000000000000021e-03 7.726779999999999760e-01 3.909650000000000625e-03 9.060049999999999670e+01 1.568519999999999982e+03
2.000000000000000042e-03 7.726655000000000051e-01 -2.939999999999999905e-03 9.057874999999999943e+01 1.568514999999999873e+03
3.000000000000000062e-03 7.727104999999999668e-01 5.839510000000000534e-02 9.063974999999999227e+01 1.568530000000000200e+03
4.000000000000000083e-03 7.727740000000000720e-01 1.509816499999999950e-01 9.075374999999999659e+01 1.568554999999999836e+03
5.000000000000000104e-03 7.727755000000000596e-01 1.669490000000000141e-01 9.076784999999999570e+01 1.568565000000000055e+03
6.000000000000000125e-03 7.727174999999999461e-01 1.016180000000000000e-01 9.064144999999999186e+01 1.568535000000000082e+03
7.000000000000000146e-03 7.726595000000000546e-01 3.163349999999998108e-02 9.045504999999999995e+01 1.568494999999999891e+03
8.000000000000000167e-03 7.725984999999999658e-01 -5.022999999999999687e-02 9.021659999999999968e+01 1.568445000000000164e+03
9.000000000000001055e-03 7.724914999999999976e-01 -2.066204999999999847e-01 8.985304999999999609e+01 1.568365000000000009e+03
1.000000000000000194e-02 7.723240000000000105e-01 -4.608250000000000401e-01 8.931470000000000198e+01 1.568244999999999891e+03
1.099999999999999936e-02 7.720860000000000500e-01 -8.235449999999998605e-01 8.856139999999999191e+01 1.568079999999999927e+03
1.200000000000000025e-02 7.717609999999999193e-01 -1.311465000000000103e+00 8.754285000000000139e+01 1.567849999999999909e+03
1.300000000000000114e-02 7.713490000000000624e-01 -1.910595000000000265e+00 8.624195000000000277e+01 1.567555000000000064e+03
1.400000000000000203e-02 7.708874999999999478e-01 -2.550165000000000237e+00 8.471895000000000664e+01 1.567200000000000045e+03
1.499999999999999944e-02 7.704345000000000221e-01 -3.124419999999999753e+00 8.309995000000000687e+01 1.566815000000000055e+03
1.600000000000000033e-02 7.700384999999999591e-01 -3.538729499999999639e+00 8.152309999999999945e+01 1.566420000000000073e+03
1.700000000000000122e-02 7.697184999999999722e-01 -3.742721949999999964e+00 8.008735000000000070e+01 1.566049999999999955e+03
1.800000000000000211e-02 7.694650000000000656e-01 -3.737111500000000142e+00 7.882824999999999704e+01 1.565700000000000045e+03
1.900000000000000300e-02 7.692495000000000305e-01 -3.560746500000000037e+00 7.772239999999999327e+01 1.565380000000000109e+03
2.000000000000000042e-02 7.690360000000000529e-01 -3.269638500000000114e+00 7.670839999999999748e+01 1.565075000000000045e+03
2.100000000000000130e-02 7.687969999999999526e-01 -2.916615500000000250e+00 7.571469999999999345e+01 1.564775000000000091e+03
2.200000000000000219e-02 7.685189999999999522e-01 -2.536801499999999709e+00 7.468404999999999916e+01 1.564464999999999918e+03
2.299999999999999961e-02 7.682020000000000515e-01 -2.141707499999999875e+00 7.358885000000000787e+01 1.564139999999999873e+03
2.400000000000000050e-02 7.678595000000000281e-01 -1.722635000000000138e+00 7.243410000000000082e+01 1.563805000000000064e+03
2.500000000000000139e-02 7.675095000000000667e-01 -1.261415000000000175e+00 7.124790000000000134e+01 1.563465000000000146e+03
2.600000000000000228e-02 7.671675000000000022e-01 -7.435899999999999732e-01 7.006489999999999441e+01 1.563119999999999891e+03
2.700000000000000316e-02 7.668380000000000196e-01 -1.692000000000000171e-01 6.890885000000000105e+01 1.562779999999999973e+03
2.800000000000000058e-02 7.665159999999999751e-01 4.420949999999999047e-01 6.778095000000000425e+01 1.562445000000000164e+03
2.900000000000000147e-02 7.661854999999999638e-01 1.052330000000000210e+00 6.665585000000000093e+01 1.562110000000000127e+03
3.000000000000000236e-02 7.658245000000000191e-01 1.611685000000000034e+00 6.548610000000000753e+01 1.561769999999999982e+03
3.099999999999999978e-02 7.654115000000000224e-01 2.068175000000000097e+00 6.421280000000000143e+01 1.561404999999999973e+03
3.200000000000000067e-02 7.649295000000000400e-01 2.378115000000000201e+00 6.277984999999999616e+01 1.561009999999999991e+03
3.300000000000000155e-02 7.643720000000000514e-01 2.515070000000000139e+00 6.114860000000000184e+01 1.560569999999999936e+03
3.400000000000000244e-02 7.637435000000000196e-01 2.475130000000000052e+00 5.930904999999999916e+01 1.560085000000000036e+03
3.500000000000000333e-02 7.630620000000000180e-01 2.277250000000000441e+00 5.728494999999999493e+01 1.559559999999999945e+03
3.600000000000000422e-02 7.623530000000000584e-01 1.958799999999999653e+00 5.513170000000000215e+01 1.559005000000000109e+03
3.700000000000000511e-02 7.616480000000001027e-01 1.568010000000000570e+00 5.292825000000000557e+01 1.558434999999999945e+03
3.799999999999999906e-02 7.609759999999999858e-01 1.155555000000000110e+00 5.076525000000000176e+01 1.557869999999999891e+03
3.899999999999999994e-02 7.603634999999999700e-01 7.674750000000001293e-01 4.873324999999999818e+01 1.557325000000000045e+03
4.000000000000000083e-02 7.598314999999999930e-01 4.406449999999999534e-01 4.691315000000000168e+01 1.556835000000000036e+03
4.100000000000000172e-02 7.593925000000000258e-01 2.010999999999998344e-01 4.536945000000000050e+01 1.556400000000000091e+03
4.200000000000000261e-02 7.590550000000000352e-01 6.476499999999996149e-02 4.414809999999999945e+01 1.556039999999999964e+03
4.300000000000000350e-02 7.588209999999999678e-01 3.981499999999993378e-02 4.327705000000000268e+01 1.555764999999999873e+03
4.400000000000000439e-02 7.586915000000000742e-01 1.296950000000000047e-01 4.276930000000000121e+01 1.555585000000000036e+03
4.499999999999999833e-02 7.586645000000000749e-01 3.360469999999999846e-01 4.262725000000000364e+01 1.555490000000000009e+03
4.599999999999999922e-02 7.587380000000000235e-01 6.607933500000000571e-01 4.284669999999999845e+01 1.555490000000000009e+03
4.700000000000000011e-02 7.589110000000000023e-01 1.107087500000000002e+00 4.341989999999999839e+01 1.555589999999999918e+03
4.800000000000000100e-02 7.591824999999999823e-01 1.679009999999999891e+00 4.433804999999999552e+01 1.555769999999999982e+03
4.900000000000000189e-02 7.595515000000000461e-01 2.380359999999999587e+00 4.559064999999999657e+01 1.556045000000000073e+03
5.000000000000000278e-02 7.600135000000000085e-01 3.212979999999999947e+00 4.716535000000000366e+01 1.556410000000000082e+03
5.100000000000000366e-02 7.605649999999999356e-01 4.175030000000000463e+00 4.904564999999999486e+01 1.556855000000000018e+03
5.200000000000000455e-02 7.611995000000000289e-01 5.259815000000000573e+00 5.121009999999999707e+01 1.557375000000000000e+03
5.300000000000000544e-02 7.619065000000000420e-01 6.455352500000000049e+00 5.363054999999999950e+01 1.557970000000000027e+03
5.399999999999999939e-02 7.626749999999999918e-01 7.744592530000000252e+00 5.627239999999999753e+01 1.558625000000000000e+03
5.500000000000000028e-02 7.634914999999999896e-01 9.106424999999999770e+00 5.909560000000000457e+01 1.559335000000000036e+03
5.600000000000000117e-02 7.643429999999999946e-01 1.051719999999999899e+01 6.205590000000000828e+01 1.560090000000000146e+03
5.700000000000000205e-02 7.652149999999999785e-01 1.195227500000000020e+01 6.510730000000000928e+01 1.560875000000000000e+03
5.800000000000000294e-02 7.660934999999999828e-01 1.338752999999999993e+01 6.820429999999998927e+01 1.561680000000000064e+03
5.900000000000000383e-02 7.669684999999999420e-01 1.480111499999999936e+01 7.130469999999999686e+01 1.562500000000000000e+03
6.000000000000000472e-02 7.678294999999999426e-01 1.617408500000000160e+01 7.437109999999999843e+01 1.563315000000000055e+03
6.099999999999999867e-02 7.686690000000000467e-01 1.749129999999999896e+01 7.737269999999999470e+01 1.564125000000000000e+03
6.199999999999999956e-02 7.694825000000000692e-01 1.874119999999999919e+01 8.028620000000000800e+01 1.564920000000000073e+03
6.300000000000000044e-02 7.702670000000000350e-01 1.991639999999999944e+01 8.309565000000000623e+01 1.565684999999999945e+03
6.400000000000000133e-02 7.710209999999999564e-01 2.101250000000000284e+01 8.579234999999999900e+01 1.566434999999999945e+03
6.500000000000000222e-02 7.717450000000000143e-01 2.202824999999999989e+01 8.837399999999999523e+01 1.567159999999999854e+03
6.600000000000000311e-02 7.724415000000000031e-01 2.296424999999999983e+01 9.084329999999999927e+01 1.567855000000000018e+03
6.700000000000000400e-02 7.731120000000000214e-01 2.382294999999999874e+01 9.320714999999999861e+01 1.568529999999999973e+03
6.800000000000000488e-02 7.737600000000000033e-01 2.460780000000000101e+01 9.547435000000000116e+01 1.569170000000000073e+03
6.900000000000000577e-02 7.743875000000000064e-01 2.532254999999999967e+01 9.765579999999999927e+01 1.569795000000000073e+03
7.000000000000000666e-02 7.749969999999999359e-01 2.597104999999999819e+01 9.976185000000000969e+01 1.570394999999999982e+03
7.100000000000000755e-02 7.755920000000000591e-01 2.655675000000000097e+01 1.018006000000000029e+02 1.570985000000000127e+03
7.200000000000000844e-02 7.761715000000000142e-01 2.708230000000000004e+01 1.037804000000000002e+02 1.571555000000000064e+03
7.300000000000000933e-02 7.767379999999999285e-01 2.754950000000000188e+01 1.057044999999999959e+02 1.572110000000000127e+03
7.399999999999999634e-02 7.772900000000000365e-01 2.795924999999999727e+01 1.075739999999999981e+02 1.572644999999999982e+03
7.499999999999999722e-02 7.778260000000000174e-01 2.831135000000000090e+01 1.093875000000000028e+02 1.573170000000000073e+03
7.599999999999999811e-02 7.783454999999999124e-01 2.860500000000000043e+01 1.111400000000000006e+02 1.573675000000000182e+03
7.699999999999999900e-02 7.788435000000000219e-01 2.883869999999999933e+01 1.128255000000000052e+02 1.574170000000000073e+03
7.799999999999999989e-02 7.793194999999999428e-01 2.901089999999999947e+01 1.144335000000000093e+02 1.574640000000000100e+03
7.900000000000000078e-02 7.797700000000000742e-01 2.911984999999999957e+01 1.159555000000000007e+02 1.575079999999999927e+03
8.000000000000000167e-02 7.801919999999999966e-01 2.916409999999999769e+01 1.173810000000000002e+02 1.575500000000000000e+03
8.100000000000000255e-02 7.805819999999999981e-01 2.914254999999999995e+01 1.187000000000000028e+02 1.575900000000000091e+03
8.200000000000000344e-02 7.809390000000000498e-01 2.905474999999999852e+01 1.199050000000000011e+02 1.576259999999999991e+03
8.300000000000000433e-02 7.812600000000000655e-01 2.890090000000000003e+01 1.209869999999999948e+02 1.576590000000000146e+03
8.400000000000000522e-02 7.815444999999999753e-01 2.868175000000000097e+01 1.219414999999999907e+02 1.576889999999999873e+03
8.500000000000000611e-02 7.817910000000000137e-01 2.839894999999999925e+01 1.227644999999999982e+02 1.577144999999999982e+03
8.600000000000000699e-02 7.819994999999999585e-01 2.805470000000000041e+01 1.234535000000000053e+02 1.577375000000000000e+03
8.700000000000000788e-02 7.821694999999999620e-01 2.765174999999999983e+01 1.240090000000000003e+02 1.577565000000000055e+03
8.800000000000000877e-02 7.823025000000000118e-01 2.719379999999999953e+01 1.244325000000000045e+02 1.577714999999999918e+03
8.899999999999999578e-02 7.823990000000000666e-01 2.668515000000000015e+01 1.247284999999999968e+02 1.577835000000000036e+03
8.999999999999999667e-02 7.824610000000000731e-01 2.613069999999999737e+01 1.249020000000000010e+02 1.577909999999999854e+03
9.099999999999999756e-02 7.824904999999999777e-01 2.553594999999999970e+01 1.249604999999999961e+02 1.577960000000000036e+03
9.199999999999999845e-02 7.824910000000000476e-01 2.490735000000000099e+01 1.249139999999999873e+02 1.577985000000000127e+03
9.299999999999999933e-02 7.824645000000000072e-01 2.425150000000000006e+01 1.247729999999999961e+02 1.577974999999999909e+03
9.400000000000000022e-02 7.824150000000000826e-01 2.357549999999999812e+01 1.245480000000000018e+02 1.577934999999999945e+03
9.500000000000000111e-02 7.823459999999999859e-01 2.288694999999999879e+01 1.242539999999999907e+02 1.577880000000000109e+03
9.600000000000000200e-02 7.822609999999999841e-01 2.219294999999999973e+01 1.239029999999999916e+02 1.577809999999999945e+03
9.700000000000000289e-02 7.821644999999999293e-01 2.150084999999999980e+01 1.235095000000000027e+02 1.577715000000000146e+03
9.800000000000000377e-02 7.820599999999999774e-01 2.081709999999999994e+01 1.230854999999999961e+02 1.577615000000000009e+03
9.900000000000000466e-02 7.819510000000000627e-01 2.014770000000000039e+01 1.226440000000000055e+02 1.577505000000000109e+03
1.000000000000000056e-01 7.818389999999999507e-01 1.949739999999999895e+01 1.221955000000000098e+02 1.577389999999999873e+03
1.010000000000000064e-01 7.817275000000000196e-01 1.886994999999999933e+01 1.217504999999999882e+02 1.577275000000000091e+03
1.020000000000000073e-01 7.816190000000000637e-01 1.826780000000000115e+01 1.213155000000000001e+02 1.577155000000000200e+03
1.030000000000000082e-01 7.815130000000000132e-01 1.769194999999999851e+01 1.208960000000000008e+02 1.577035000000000082e+03
1.040000000000000091e-01 7.814110000000000777e-01 1.714215000000000089e+01 1.204950000000000045e+02 1.576924999999999955e+03
1.050000000000000100e-01 7.813120000000000065e-01 1.661700000000000088e+01 1.201129999999999995e+02 1.576815000000000055e+03
1.059999999999999970e-01 7.812160000000000215e-01 1.611380000000000123e+01 1.197489999999999952e+02 1.576714999999999918e+03
1.069999999999999979e-01 7.811220000000000940e-01 1.562920000000000087e+01 1.194000000000000057e+02 1.576610000000000127e+03
1.079999999999999988e-01 7.810285000000000144e-01 1.515909999999999869e+01 1.190604999999999905e+02 1.576509999999999991e+03
1.089999999999999997e-01 7.809334999999999471e-01 1.469879999999999853e+01 1.187265000000000015e+02 1.576414999999999964e+03
1.100000000000000006e-01 7.808355000000000157e-01 1.424364999999999881e+01 1.183909999999999911e+02 1.576309999999999945e+03
1.110000000000000014e-01 7.807334999999999692e-01 1.378885000000000005e+01 1.180480000000000018e+02 1.576214999999999918e+03
1.120000000000000023e-01 7.806245000000000545e-01 1.333000499999999988e+01 1.176914999999999907e+02 1.576115000000000009e+03
1.130000000000000032e-01 7.805090000000000083e-01 1.286295000000000144e+01 1.173160000000000025e+02 1.576005000000000109e+03
1.140000000000000041e-01 7.803849999999999953e-01 1.238431500000000085e+01 1.169174999999999898e+02 1.575900000000000091e+03
1.150000000000000050e-01 7.802525000000000155e-01 1.189141500000000029e+01 1.164929999999999950e+02 1.575779999999999973e+03
1.160000000000000059e-01 7.801109999999999989e-01 1.138230499999999878e+01 1.160399999999999920e+02 1.575655000000000200e+03
1.170000000000000068e-01 7.799610000000000154e-01 1.085613000000000028e+01 1.155579999999999927e+02 1.575525000000000091e+03
1.180000000000000077e-01 7.798030000000000239e-01 1.031287000000000020e+01 1.150494999999999948e+02 1.575389999999999873e+03
1.190000000000000085e-01 7.796380000000000532e-01 9.753539999999999210e+00 1.145160000000000053e+02 1.575250000000000000e+03
1.200000000000000094e-01 7.794680000000000497e-01 9.179890000000000327e+00 1.139625000000000057e+02 1.575099999999999909e+03
1.209999999999999964e-01 7.792950000000000710e-01 8.594750000000001222e+00 1.133944999999999936e+02 1.574950000000000045e+03
1.219999999999999973e-01 7.791204999999999936e-01 8.001564999999999372e+00 1.128190000000000026e+02 1.574795000000000073e+03
1.229999999999999982e-01 7.789485000000000436e-01 7.404395000000000060e+00 1.122429999999999950e+02 1.574644999999999982e+03
1.239999999999999991e-01 7.787794999999999579e-01 6.807809999999999917e+00 1.116760000000000019e+02 1.574490000000000009e+03
1.250000000000000000e-01 7.786170000000000035e-01 6.216625000000000512e+00 1.111255000000000024e+02 1.574335000000000036e+03
1.260000000000000009e-01 7.784640000000000448e-01 5.635779999999999568e+00 1.106004999999999967e+02 1.574194999999999936e+03
1.270000000000000018e-01 7.783219999999999583e-01 5.070165000000000255e+00 1.101099999999999994e+02 1.574059999999999945e+03
1.280000000000000027e-01 7.781934999999999825e-01 4.524414999999999409e+00 1.096595000000000084e+02 1.573934999999999945e+03
1.290000000000000036e-01 7.780804999999999527e-01 4.002720000000000056e+00 1.092579999999999956e+02 1.573815000000000055e+03
1.300000000000000044e-01 7.779840000000000089e-01 3.508739999999999970e+00 1.089099999999999966e+02 1.573714999999999918e+03
1.310000000000000053e-01 7.779049999999999576e-01 3.045430000000000081e+00 1.086189999999999998e+02 1.573625000000000000e+03
1.320000000000000062e-01 7.778445000000000498e-01 2.614955000000000140e+00 1.083880000000000052e+02 1.573554999999999836e+03
1.330000000000000071e-01 7.778015000000000345e-01 2.218659999999999854e+00 1.082179999999999893e+02 1.573494999999999891e+03
1.340000000000000080e-01 7.777760000000000229e-01 1.857034999999999769e+00 1.081069999999999993e+02 1.573454999999999927e+03
1.350000000000000089e-01 7.777669999999999861e-01 1.529725000000000001e+00 1.080534999999999997e+02 1.573430000000000064e+03
1.360000000000000098e-01 7.777734999999998955e-01 1.235609999999999875e+00 1.080534999999999997e+02 1.573420000000000073e+03
1.370000000000000107e-01 7.777924999999999978e-01 9.728600000000000581e-01 1.081005000000000109e+02 1.573420000000000073e+03
1.380000000000000115e-01 7.778235000000000010e-01 7.390710000000000335e-01 1.081895000000000095e+02 1.573434999999999945e+03
1.390000000000000124e-01 7.778635000000000410e-01 5.313805000000000334e-01 1.083125000000000000e+02 1.573454999999999927e+03
1.400000000000000133e-01 7.779104999999999492e-01 3.465964999999999741e-01 1.084620000000000033e+02 1.573485000000000127e+03
1.410000000000000142e-01 7.779614999999999725e-01 1.813345000000000096e-01 1.086304999999999978e+02 1.573525000000000091e+03
1.420000000000000151e-01 7.780154999999999710e-01 3.214400000000000590e-02 1.088089999999999975e+02 1.573559999999999945e+03
1.430000000000000160e-01 7.780694999999999695e-01 -1.043735000000000079e-01 1.089904999999999973e+02 1.573605000000000018e+03
1.440000000000000169e-01 7.781219999999999803e-01 -2.314710000000000101e-01 1.091689999999999969e+02 1.573650000000000091e+03
1.450000000000000178e-01 7.781700000000000284e-01 -3.521679999999999811e-01 1.093365000000000009e+02 1.573694999999999936e+03
1.459999999999999909e-01 7.782139999999999613e-01 -4.691885000000000083e-01 1.094874999999999972e+02 1.573730000000000018e+03
1.469999999999999918e-01 7.782514999999999850e-01 -5.849143849999999256e-01 1.096175000000000068e+02 1.573769999999999982e+03
1.479999999999999927e-01 7.782815000000000705e-01 -7.013535000000000741e-01 1.097240000000000038e+02 1.573800000000000182e+03
1.489999999999999936e-01 7.783039999999999958e-01 -8.201200000000000712e-01 1.098025000000000091e+02 1.573820000000000164e+03
1.499999999999999944e-01 7.783174999999999955e-01 -9.424359999999999404e-01 1.098520000000000039e+02 1.573835000000000036e+03
1.509999999999999953e-01 7.783229999999999871e-01 -1.069146500000000000e+00 1.098710000000000093e+02 1.573845000000000027e+03
1.519999999999999962e-01 7.783195000000000530e-01 -1.200714999999999977e+00 1.098590000000000089e+02 1.573844999999999800e+03
1.529999999999999971e-01 7.783085000000000697e-01 -1.337260000000000115e+00 1.098170000000000073e+02 1.573835000000000036e+03
1.539999999999999980e-01 7.782884999999999387e-01 -1.478625000000000078e+00 1.097454999999999927e+02 1.573824999999999818e+03
1.549999999999999989e-01 7.782610000000000916e-01 -1.624354999999999993e+00 1.096465000000000032e+02 1.573799999999999955e+03
1.559999999999999998e-01 7.782270000000000021e-01 -1.773810000000000109e+00 1.095210000000000008e+02 1.573775000000000091e+03
1.570000000000000007e-01 7.781860000000000444e-01 -1.926174999999999971e+00 1.093719999999999999e+02 1.573735000000000127e+03
1.580000000000000016e-01 7.781390000000000251e-01 -2.080550000000000122e+00 1.092009999999999934e+02 1.573695000000000164e+03
1.590000000000000024e-01 7.780869999999999731e-01 -2.235990000000000144e+00 1.090105000000000075e+02 1.573650000000000091e+03
