# t [s], A [cm^2], U [cm/s], P [cPa], c [cm/s]
1.000000000000000021e-03 7.592214999999999936e-01 6.535499999999992704e-03 1.041349999999999909e+02 1.773130000000000109e+03
2.000000000000000042e-03 7.592155000000000431e-01 1.231310000000000043e-02 1.041050000000000040e+02 1.773119999999999891e+03
3.000000000000000062e-03 7.593114999999999171e-01 1.809265999999999930e-01 1.043040000000000020e+02 1.773159999999999854e+03
4.000000000000000083e-03 7.593270000000000852e-01 2.430609999999999993e-01 1.043564999999999969e+02 1.773170000000000073e+03
5.000000000000000104e-03 7.592164999999999608e-01 1.028020000000000045e-01 1.040374999999999943e+02 1.773115000000000009e+03
6.000000000000000125e-03 7.591120000000000090e-01 -4.408000000000000806e-02 1.035799999999999983e+02 1.773025000000000091e+03
7.000000000000000146e-03 7.589605000000000379e-01 -2.893149999999999888e-01 1.029124999999999943e+02 1.772894999999999982e+03
8.000000000000000167e-03 7.586935000000000207e-01 -7.535399999999999876e-01 1.018316499999999962e+02 1.772694999999999936e+03
9.000000000000001055e-03 7.583269999999999733e-01 -1.404059999999999864e+00 1.003067000000000064e+02 1.772405000000000200e+03
1.000000000000000194e-02 7.578255000000000408e-01 -2.273890000000000189e+00 9.823005000000000564e+01 1.772009999999999991e+03
1.099999999999999936e-02 7.571685000000000221e-01 -3.364189999999999792e+00 9.551964999999999861e+01 1.771480000000000018e+03
1.200000000000000025e-02 7.564519999999999023e-01 -4.474655000000000271e+00 9.239015000000000555e+01 1.770860000000000127e+03
1.300000000000000114e-02 7.558350000000000346e-01 -5.281733449999999941e+00 8.932689999999999486e+01 1.770215000000000146e+03
1.400000000000000203e-02 7.554205000000000503e-01 -5.552224999999999966e+00 8.678374999999999773e+01 1.769644999999999982e+03
1.499999999999999944e-02 7.552004999999999413e-01 -5.260479999999999379e+00 8.494235000000000468e+01 1.769190000000000055e+03
1.600000000000000033e-02 7.550799999999999734e-01 -4.564135000000000275e+00 8.366684999999999661e+01 1.768829999999999927e+03
1.700000000000000122e-02 7.549335000000000351e-01 -3.705045000000000144e+00 8.261209999999999809e+01 1.768525000000000091e+03
1.800000000000000211e-02 7.546664999999999068e-01 -2.894277499999999836e+00 8.140330000000000155e+01 1.768194999999999936e+03
1.900000000000000300e-02 7.542545000000000499e-01 -2.225613500000000133e+00 7.980754999999999200e+01 1.767809999999999945e+03
2.000000000000000042e-02 7.537395000000000067e-01 -1.658060000000000089e+00 7.781700000000000728e+01 1.767349999999999909e+03
2.100000000000000130e-02 7.532010000000000094e-01 -1.074694999999999956e+00 7.560320000000000107e+01 1.766845000000000027e+03
2.200000000000000219e-02 7.527019999999999822e-01 -3.743799999999999351e-01 7.338485000000000014e+01 1.766335000000000036e+03
2.299999999999999961e-02 7.522600000000000398e-01 4.593300000000000161e-01 7.129600000000000648e+01 1.765835000000000036e+03
2.400000000000000050e-02 7.518389999999999240e-01 1.337829999999999853e+00 6.931239999999999668e+01 1.765360000000000127e+03
2.500000000000000139e-02 7.513655000000000195e-01 2.091114999999999835e+00 6.725105000000000643e+01 1.764865000000000009e+03
2.600000000000000228e-02 7.507559999999999789e-01 2.519770000000000287e+00 6.482945000000000846e+01 1.764309999999999945e+03
2.700000000000000316e-02 7.499445000000000139e-01 2.458324999999999871e+00 6.176425000000000409e+01 1.763644999999999982e+03
2.800000000000000058e-02 7.489099999999999646e-01 1.831744999999999735e+00 5.787744999999999607e+01 1.762829999999999927e+03
2.900000000000000147e-02 7.476869999999999905e-01 6.834500000000005571e-01 5.317404999999999404e+01 1.761855000000000018e+03
3.000000000000000236e-02 7.463560000000000194e-01 -8.363500000000003709e-01 4.785739999999999839e+01 1.760750000000000000e+03
3.099999999999999978e-02 7.450239999999999085e-01 -2.515554999999999986e+00 4.228245000000000431e+01 1.759579999999999927e+03
3.200000000000000067e-02 7.437945000000000251e-01 -4.134854999999999947e+00 3.687055000000000149e+01 1.758420000000000073e+03
3.300000000000000155e-02 7.427504999999999802e-01 -5.511185000000000223e+00 3.202400000000000091e+01 1.757349999999999909e+03
3.400000000000000244e-02 7.419445000000000068e-01 -6.520190000000000374e+00 2.806175000000000352e+01 1.756434999999999945e+03
3.500000000000000333e-02 7.414000000000000590e-01 -7.099749999999999339e+00 2.518674999999999642e+01 1.755724999999999909e+03
3.600000000000000422e-02 7.411145000000000094e-01 -7.238529999999999909e+00 2.348310000000000031e+01 1.755255000000000109e+03
3.700000000000000511e-02 7.410725000000000229e-01 -6.957684999999999675e+00 2.293605000000000160e+01 1.755019999999999982e+03
3.799999999999999906e-02 7.412494999999998946e-01 -6.291365000000000762e+00 2.346555000000000035e+01 1.755019999999999982e+03
3.899999999999999994e-02 7.416205000000000158e-01 -5.272046999999999706e+00 2.496135000000000304e+01 1.755230000000000018e+03
4.000000000000000083e-02 7.421664999999999512e-01 -3.924234999999999474e+00 2.730940000000000012e+01 1.755634999999999991e+03
4.100000000000000172e-02 7.428690000000000015e-01 -2.266849999999999810e+00 3.040425000000000111e+01 1.756219999999999800e+03
4.200000000000000261e-02 7.437120000000000397e-01 -3.217499999999997584e-01 3.414709999999999468e+01 1.756949999999999818e+03
4.300000000000000350e-02 7.446729999999999183e-01 1.877334999999999532e+00 3.843609999999999616e+01 1.757815000000000055e+03
4.400000000000000439e-02 7.457240000000000535e-01 4.279065000000000119e+00 4.315599999999999881e+01 1.758779999999999973e+03
4.499999999999999833e-02 7.468330000000000801e-01 6.814379999999999882e+00 4.817390000000000327e+01 1.759829999999999927e+03
4.599999999999999922e-02 7.479639999999999622e-01 9.402070000000000149e+00 5.334170000000000300e+01 1.760924999999999955e+03
4.700000000000000011e-02 7.490795000000000092e-01 1.195711000000000013e+01 5.850590000000000401e+01 1.762035000000000082e+03
4.800000000000000100e-02 7.501480000000000370e-01 1.440031499999999909e+01 6.352160000000000650e+01 1.763139999999999873e+03
4.900000000000000189e-02 7.511460000000000914e-01 1.666648999999999958e+01 6.826595000000000368e+01 1.764195000000000164e+03
5.000000000000000278e-02 7.520575000000000454e-01 1.870920000000000272e+01 7.264934999999999832e+01 1.765195000000000164e+03
5.100000000000000366e-02 7.528770000000000184e-01 2.050280000000000058e+01 7.662090000000000600e+01 1.766119999999999891e+03
5.200000000000000455e-02 7.536069999999999158e-01 2.204064999999999941e+01 8.016855000000001041e+01 1.766960000000000036e+03
5.300000000000000544e-02 7.542575000000000252e-01 2.333214999999999861e+01 8.331470000000000198e+01 1.767720000000000027e+03
5.399999999999999939e-02 7.548405000000000253e-01 2.439849999999999852e+01 8.610875000000000057e+01 1.768400000000000091e+03
5.500000000000000028e-02 7.553739999999999899e-01 2.526944999999999908e+01 8.861965000000000714e+01 1.769025000000000091e+03
5.600000000000000117e-02 7.558745000000000047e-01 2.598029999999999973e+01 9.092805000000001314e+01 1.769599999999999909e+03
5.700000000000000205e-02 7.563619999999999788e-01 2.657000000000000028e+01 9.312035000000000196e+01 1.770139999999999873e+03
5.800000000000000294e-02 7.568539999999999157e-01 2.707920000000000016e+01 9.528340000000000032e+01 1.770664999999999964e+03
5.900000000000000383e-02 7.573670000000000124e-01 2.754824999999999946e+01 9.749909999999999854e+01 1.771195000000000164e+03
6.000000000000000472e-02 7.579164999999999930e-01 2.801415000000000077e+01 9.983894999999999698e+01 1.771744999999999891e+03
6.099999999999999867e-02 7.585124999999999229e-01 2.850760000000000005e+01 1.023589999999999947e+02 1.772329999999999927e+03
6.199999999999999956e-02 7.591600000000000570e-01 2.904970000000000141e+01 1.050919999999999987e+02 1.772950000000000045e+03
6.300000000000000044e-02 7.598584999999999923e-01 2.964994999999999692e+01 1.080469999999999970e+02 1.773619999999999891e+03
6.400000000000000133e-02 7.605999999999999428e-01 3.030499999999999972e+01 1.112034999999999911e+02 1.774324999999999818e+03
6.500000000000000222e-02 7.613715000000000899e-01 3.099929999999999808e+01 1.145160000000000053e+02 1.775065000000000055e+03
6.600000000000000311e-02 7.621560000000000556e-01 3.170759999999999934e+01 1.179155000000000086e+02 1.775829999999999927e+03
6.700000000000000400e-02 7.629329999999999723e-01 3.239730000000000132e+01 1.213179999999999978e+02 1.776594999999999800e+03
6.800000000000000488e-02 7.636804999999999843e-01 3.303249999999999886e+01 1.246294999999999931e+02 1.777349999999999909e+03
6.900000000000000577e-02 7.643794999999999895e-01 3.357744999999999891e+01 1.277584999999999980e+02 1.778070000000000164e+03
7.000000000000000666e-02 7.650109999999999966e-01 3.399925000000000352e+01 1.306175000000000068e+02 1.778744999999999891e+03
7.100000000000000755e-02 7.655609999999999360e-01 3.427044999999999675e+01 1.331340000000000146e+02 1.779340000000000146e+03
7.200000000000000844e-02 7.660184999999999356e-01 3.437080000000000268e+01 1.352529999999999859e+02 1.779865000000000009e+03
7.300000000000000933e-02 7.663790000000000324e-01 3.428810000000000002e+01 1.369390000000000214e+02 1.780295000000000073e+03
7.399999999999999634e-02 7.666399999999999881e-01 3.401850000000000307e+01 1.381790000000000020e+02 1.780630000000000109e+03
7.499999999999999722e-02 7.668060000000000986e-01 3.356665000000000276e+01 1.389795000000000016e+02 1.780865000000000009e+03
7.599999999999999811e-02 7.668829999999999814e-01 3.294500000000000028e+01 1.393665000000000020e+02 1.781014999999999873e+03
7.699999999999999900e-02 7.668825000000000225e-01 3.217289999999999850e+01 1.393834999999999980e+02 1.781069999999999936e+03
7.799999999999999989e-02 7.668174999999999297e-01 3.127560000000000073e+01 1.390844999999999914e+02 1.781059999999999945e+03
7.900000000000000078e-02 7.667019999999999946e-01 3.028240000000000265e+01 1.385355000000000132e+02 1.780985000000000127e+03
8.000000000000000167e-02 7.665520000000000111e-01 2.922530000000000427e+01 1.378075000000000045e+02 1.780860000000000127e+03
8.100000000000000255e-02 7.663824999999999665e-01 2.813694999999999879e+01 1.369705000000000155e+02 1.780710000000000036e+03
8.200000000000000344e-02 7.662090000000000289e-01 2.704899999999999949e+01 1.360939999999999941e+02 1.780534999999999854e+03
8.300000000000000433e-02 7.660439999999999472e-01 2.599014999999999986e+01 1.352394999999999925e+02 1.780360000000000127e+03
8.400000000000000522e-02 7.658985000000000376e-01 2.498499999999999943e+01 1.344594999999999914e+02 1.780190000000000055e+03
8.500000000000000611e-02 7.657789999999999875e-01 2.405279999999999774e+01 1.337940000000000111e+02 1.780045000000000073e+03
8.600000000000000699e-02 7.656909999999998995e-01 2.320649999999999835e+01 1.332709999999999866e+02 1.779920000000000073e+03
8.700000000000000788e-02 7.656365000000000531e-01 2.245284999999999798e+01 1.329025000000000034e+02 1.779824999999999818e+03
8.800000000000000877e-02 7.656134999999999469e-01 2.179209999999999781e+01 1.326884999999999764e+02 1.779759999999999991e+03
8.899999999999999578e-02 7.656190000000000495e-01 2.121875000000000000e+01 1.326154999999999973e+02 1.779724999999999909e+03
8.999999999999999667e-02 7.656460000000000488e-01 2.072194999999999965e+01 1.326594999999999800e+02 1.779714999999999918e+03
9.099999999999999756e-02 7.656870000000000065e-01 2.028654999999999831e+01 1.327880000000000109e+02 1.779724999999999909e+03
9.199999999999999845e-02 7.657335000000000669e-01 1.989410000000000167e+01 1.329619999999999891e+02 1.779750000000000000e+03
9.299999999999999933e-02 7.657754999999999423e-01 1.952404999999999902e+01 1.331370000000000005e+02 1.779779999999999973e+03
9.400000000000000022e-02 7.658019999999999827e-01 1.915504999999999924e+01 1.332694999999999936e+02 1.779804999999999836e+03
9.500000000000000111e-02 7.658059999999999867e-01 1.876634999999999920e+01 1.333165000000000191e+02 1.779809999999999945e+03
9.600000000000000200e-02 7.657779999999999587e-01 1.833905000000000030e+01 1.332395000000000209e+02 1.779795000000000073e+03
9.700000000000000289e-02 7.657135000000000469e-01 1.785745000000000005e+01 1.330074999999999932e+02 1.779744999999999891e+03
9.800000000000000377e-02 7.656065000000000786e-01 1.731020000000000181e+01 1.325980000000000132e+02 1.779664999999999964e+03
9.900000000000000466e-02 7.654564999999999841e-01 1.669089999999999918e+01 1.319989999999999952e+02 1.779545000000000073e+03
1.000000000000000056e-01 7.652649999999999730e-01 1.599859999999999971e+01 1.312104999999999961e+02 1.779384999999999991e+03
1.010000000000000064e-01 7.650350000000000206e-01 1.523804999999999943e+01 1.302439999999999998e+02 1.779190000000000055e+03
1.020000000000000073e-01 7.647729999999999251e-01 1.441941500000000076e+01 1.291220000000000141e+02 1.778954999999999927e+03
1.030000000000000082e-01 7.644874999999999865e-01 1.355750499999999903e+01 1.278769999999999953e+02 1.778695000000000164e+03
1.040000000000000091e-01 7.641875000000000195e-01 1.267093000000000025e+01 1.265504999999999995e+02 1.778409999999999854e+03
1.050000000000000100e-01 7.638834999999999376e-01 1.178100000000000058e+01 1.251875000000000000e+02 1.778115000000000009e+03
1.059999999999999970e-01 7.635879999999999335e-01 1.091041000000000061e+01 1.238365000000000009e+02 1.777820000000000164e+03
1.069999999999999979e-01 7.633090000000000153e-01 1.008185999999999893e+01 1.225475000000000136e+02 1.777529999999999973e+03
1.079999999999999988e-01 7.630580000000000140e-01 9.316660000000000608e+00 1.213644999999999925e+02 1.777259999999999991e+03
1.089999999999999997e-01 7.628429999999999378e-01 8.633544999999999803e+00 1.203280000000000030e+02 1.777014999999999873e+03
1.100000000000000006e-01 7.626699999999999591e-01 8.047605000000000786e+00 1.194689999999999941e+02 1.776809999999999945e+03
1.110000000000000014e-01 7.625425000000000120e-01 7.569599999999999440e+00 1.188104999999999905e+02 1.776639999999999873e+03
1.120000000000000023e-01 7.624619999999999731e-01 7.205384999999999707e+00 1.183640000000000043e+02 1.776514999999999873e+03
1.130000000000000032e-01 7.624279999999999946e-01 6.955734999999999779e+00 1.181299999999999955e+02 1.776434999999999945e+03
1.140000000000000041e-01 7.624379999999999491e-01 6.816670000000000229e+00 1.180999999999999943e+02 1.776400000000000091e+03
1.150000000000000050e-01 7.624859999999999971e-01 6.779804999999999637e+00 1.182549999999999955e+02 1.776409999999999854e+03
1.160000000000000059e-01 7.625665000000000360e-01 6.833085000000000520e+00 1.185689999999999884e+02 1.776449999999999818e+03
1.170000000000000068e-01 7.626714999999999467e-01 6.961570000000000036e+00 1.190109999999999957e+02 1.776525000000000091e+03
1.180000000000000077e-01 7.627945000000000420e-01 7.148394999999999833e+00 1.195469999999999970e+02 1.776625000000000000e+03
1.190000000000000085e-01 7.629254999999999232e-01 7.375680000000000014e+00 1.201389999999999958e+02 1.776740000000000009e+03
1.200000000000000094e-01 7.630585000000000839e-01 7.625440000000000218e+00 1.207519999999999953e+02 1.776865000000000009e+03
1.209999999999999964e-01 7.631854999999999611e-01 7.880409999999999471e+00 1.213529999999999944e+02 1.776985000000000127e+03
1.219999999999999973e-01 7.633010000000000073e-01 8.124774999999999636e+00 1.219115000000000038e+02 1.777105000000000018e+03
1.229999999999999982e-01 7.634000000000000785e-01 8.344754999999999256e+00 1.224039999999999964e+02 1.777215000000000146e+03
1.239999999999999991e-01 7.634784999999999489e-01 8.529090000000000060e+00 1.228110000000000070e+02 1.777305000000000064e+03
1.250000000000000000e-01 7.635349999999999637e-01 8.669319999999999027e+00 1.231195000000000022e+02 1.777380000000000109e+03
1.260000000000000009e-01 7.635674999999999546e-01 8.759964999999999336e+00 1.233229999999999933e+02 1.777440000000000055e+03
1.270000000000000018e-01 7.635775000000000201e-01 8.798580000000001178e+00 1.234215000000000089e+02 1.777469999999999800e+03
1.280000000000000027e-01 7.635665000000000369e-01 8.785589999999999122e+00 1.234194999999999993e+02 1.777480000000000018e+03
1.290000000000000036e-01 7.635365000000000624e-01 8.724119999999999209e+00 1.233264999999999958e+02 1.777474999999999909e+03
1.300000000000000044e-01 7.634920000000000595e-01 8.619650000000000034e+00 1.231570000000000107e+02 1.777445000000000164e+03
1.310000000000000053e-01 7.634354999999999336e-01 8.479514999999999247e+00 1.229275000000000091e+02 1.777404999999999973e+03
1.320000000000000062e-01 7.633730000000000793e-01 8.312490000000000379e+00 1.226570000000000107e+02 1.777355000000000018e+03
1.330000000000000071e-01 7.633075000000000276e-01 8.128114999999999313e+00 1.223650000000000091e+02 1.777300000000000182e+03
1.340000000000000080e-01 7.632434999999999636e-01 7.936135000000000161e+00 1.220720000000000027e+02 1.777240000000000009e+03
1.350000000000000089e-01 7.631854999999999611e-01 7.746030000000000193e+00 1.217944999999999993e+02 1.777179999999999836e+03
1.360000000000000098e-01 7.631360000000000365e-01 7.566304999999999836e+00 1.215490000000000066e+02 1.777125000000000000e+03
1.370000000000000107e-01 7.630974999999999842e-01 7.404114999999999114e+00 1.213474999999999966e+02 1.777079999999999927e+03
1.380000000000000115e-01 7.630719999999999725e-01 7.264924999999999855e+00 1.211980000000000075e+02 1.777050000000000182e+03
1.390000000000000124e-01 7.630584999999999729e-01 7.152244999999999742e+00 1.211055000000000064e+02 1.777025000000000091e+03
1.400000000000000133e-01 7.630580000000000140e-01 7.067614999999999981e+00 1.210695000000000050e+02 1.777009999999999991e+03
1.410000000000000142e-01 7.630680000000000796e-01 7.010624999999999218e+00 1.210854999999999961e+02 1.777009999999999991e+03
1.420000000000000151e-01 7.630879999999999885e-01 6.979160000000000252e+00 1.211479999999999961e+02 1.777019999999999982e+03
1.430000000000000160e-01 7.631140000000000700e-01 6.969659999999999300e+00 1.212450000000000045e+02 1.777029999999999973e+03
1.440000000000000169e-01 7.631440000000000445e-01 6.977484999999999715e+00 1.213654999999999973e+02 1.777054999999999836e+03
1.450000000000000178e-01 7.631755000000000067e-01 6.997349999999999959e+00 1.214964999999999975e+02 1.777079999999999927e+03
1.459999999999999909e-01 7.632045000000000634e-01 7.023719999999999963e+00 1.216255000000000024e+02 1.777110000000000127e+03
1.469999999999999918e-01 7.632295000000000051e-01 7.051149999999999807e+00 1.217404999999999973e+02 1.777130000000000109e+03
1.479999999999999927e-01 7.632479999999999265e-01 7.074675000000000935e+00 1.218309999999999889e+02 1.777150000000000091e+03
1.489999999999999936e-01 7.632579999999999920e-01 7.090054999999999552e+00 1.218889999999999958e+02 1.777164999999999964e+03
1.499999999999999944e-01 7.632594999999999796e-01 7.093984999999999985e+00 1.219085000000000036e+02 1.777170000000000073e+03
1.509999999999999953e-01 7.632510000000000128e-01 7.084244999999999237e+00 1.218870000000000005e+02 1.777164999999999964e+03
1.519999999999999962e-01 7.632335000000000091e-01 7.059789999999999566e+00 1.218240000000000123e+02 1.777154999999999973e+03
1.529999999999999971e-01 7.632075000000000387e-01 7.020754999999999413e+00 1.217219999999999942e+02 1.777134999999999991e+03
1.539999999999999980e-01 7.631740000000000190e-01 6.968379999999999797e+00 1.215865000000000009e+02 1.777105000000000018e+03
1.549999999999999989e-01 7.631354999999999666e-01 6.904984999999999928e+00 1.214250000000000114e+02 1.777075000000000045e+03
1.559999999999999998e-01 7.630939999999999390e-01 6.833750000000000213e+00 1.212450000000000045e+02 1.777034999999999854e+03
1.570000000000000007e-01 7.630509999999999238e-01 6.758550000000000502e+00 1.210579999999999927e+02 1.777000000000000000e+03
1.580000000000000016e-01 7.630105000000000359e-01 6.683749999999999858e+00 1.208739999999999952e+02 1.776954999999999927e+03
1.590000000000000024e-01 7.629730000000000123e-01 6.613929999999999865e+00 1.207039999999999935e+02 1.776920000000000073e+03
