# t [s], A [cm^2], U [cm/s], P [cPa], c [cm/s]
1.000000000000000021e-03 1.759985000000000022e-01 2.708716999999999930e-01 9.334754999999999825e+01 2.320550000000000182e+03
2.000000000000000042e-03 1.759479999999999933e-01 1.683818000000000037e+00 8.988134999999999764e+01 2.320010000000000218e+03
3.000000000000000062e-03 1.758250000000000091e-01 3.473144000000000009e+00 8.491075000000000728e+01 2.318750000000000000e+03
4.000000000000000083e-03 1.756650000000000156e-01 5.527379999999999960e+00 7.958774999999999977e+01 2.317135000000000218e+03
5.000000000000000104e-03 1.755019999999999913e-01 7.749209999999999710e+00 7.497659999999999059e+01 2.315500000000000000e+03
6.000000000000000125e-03 1.753500000000000059e-01 9.882089999999999819e+00 7.124675000000000580e+01 2.314005000000000109e+03
7.000000000000000146e-03 1.752095000000000180e-01 1.167759500000000017e+01 6.794765000000001010e+01 2.312644999999999982e+03
8.000000000000000167e-03 1.750839999999999896e-01 1.312481000000000009e+01 6.497755000000000791e+01 2.311465000000000146e+03
9.000000000000001055e-03 1.749780000000000224e-01 1.428954999999999842e+01 6.251725000000000421e+01 2.310484999999999673e+03
1.000000000000000194e-02 1.748934999999999795e-01 1.519955000000000034e+01 6.059850000000000136e+01 2.309699999999999818e+03
1.099999999999999936e-02 1.748274999999999968e-01 1.587984999999999935e+01 5.916575000000000273e+01 2.309105000000000018e+03
1.200000000000000025e-02 1.747779999999999889e-01 1.633360000000000056e+01 5.808589999999999520e+01 2.308659999999999854e+03
1.300000000000000114e-02 1.747370000000000034e-01 1.655509999999999948e+01 5.714070000000000249e+01 2.308305000000000291e+03
1.400000000000000203e-02 1.747024999999999828e-01 1.662705000000000055e+01 5.630075000000000074e+01 2.308014999999999873e+03
1.499999999999999944e-02 1.746830000000000049e-01 1.675769999999999982e+01 5.596710000000000207e+01 2.307850000000000364e+03
1.600000000000000033e-02 1.746914999999999996e-01 1.717325000000000301e+01 5.677485000000000070e+01 2.307934999999999945e+03
1.700000000000000122e-02 1.747385000000000188e-01 1.796085000000000065e+01 5.908919999999999817e+01 2.308359999999999673e+03
1.800000000000000211e-02 1.748200000000000032e-01 1.899765000000000015e+01 6.263934999999999320e+01 2.309114999999999782e+03
1.900000000000000300e-02 1.749204999999999788e-01 2.000905000000000200e+01 6.656130000000000280e+01 2.310059999999999945e+03
2.000000000000000042e-02 1.750145000000000173e-01 2.070459999999999923e+01 6.978464999999999918e+01 2.310965000000000146e+03
2.100000000000000130e-02 1.750805000000000000e-01 2.090660000000000096e+01 7.150379999999999825e+01 2.311625000000000000e+03
2.200000000000000219e-02 1.751079999999999859e-01 2.061159999999999926e+01 7.148749999999999716e+01 2.311925000000000182e+03
2.299999999999999961e-02 1.750990000000000046e-01 1.996640000000000015e+01 7.010014999999999930e+01 2.311880000000000109e+03
2.400000000000000050e-02 1.750659999999999994e-01 1.918379999999999797e+01 6.806499999999999773e+01 2.311585000000000036e+03
2.500000000000000139e-02 1.750240000000000129e-01 1.844395000000000095e+01 6.611249999999999716e+01 2.311195000000000164e+03
2.600000000000000228e-02 1.749870000000000037e-01 1.782775000000000176e+01 6.468569999999999709e+01 2.310835000000000036e+03
2.700000000000000316e-02 1.749585000000000168e-01 1.730399999999999849e+01 6.381700000000000017e+01 2.310560000000000400e+03
2.800000000000000058e-02 1.749360000000000082e-01 1.676510000000000034e+01 6.319445000000000334e+01 2.310345000000000255e+03
2.900000000000000147e-02 1.749109999999999832e-01 1.609009999999999962e+01 6.236034999999999684e+01 2.310105000000000018e+03
3.000000000000000236e-02 1.748740000000000017e-01 1.520895000000000152e+01 6.094955000000000211e+01 2.309769999999999982e+03
3.099999999999999978e-02 1.748220000000000052e-01 1.414455000000000062e+01 5.887774999999999892e+01 2.309289999999999964e+03
3.200000000000000067e-02 1.747575000000000101e-01 1.301665000000000028e+01 5.640890000000000271e+01 2.308694999999999709e+03
3.300000000000000155e-02 1.746920000000000139e-01 1.200649999999999906e+01 5.407835000000000036e+01 2.308070000000000164e+03
3.400000000000000244e-02 1.746389999999999887e-01 1.129631499999999988e+01 5.250435000000000230e+01 2.307559999999999945e+03
3.500000000000000333e-02 1.746119999999999894e-01 1.100846999999999909e+01 5.216769999999999641e+01 2.307279999999999745e+03
3.600000000000000422e-02 1.746189999999999964e-01 1.116765000000000008e+01 5.324645000000000294e+01 2.307315000000000055e+03
3.700000000000000511e-02 1.746600000000000097e-01 1.169569999999999865e+01 5.555939999999999657e+01 2.307670000000000073e+03
3.799999999999999906e-02 1.747270000000000212e-01 1.243584999999999852e+01 5.862314999999999543e+01 2.308279999999999745e+03
3.899999999999999994e-02 1.748060000000000169e-01 1.319474999999999909e+01 6.178780000000000427e+01 2.309014999999999873e+03
4.000000000000000083e-02 1.748804999999999943e-01 1.378659999999999997e+01 6.439889999999999759e+01 2.309720000000000255e+03
4.100000000000000172e-02 1.749364999999999948e-01 1.406814999999999927e+01 6.593805000000000405e+01 2.310260000000000218e+03
4.200000000000000261e-02 1.749625000000000208e-01 1.395814999999999984e+01 6.610939999999999372e+01 2.310524999999999636e+03
4.300000000000000350e-02 1.749525000000000108e-01 1.343939999999999912e+01 6.486039999999999850e+01 2.310460000000000036e+03
4.400000000000000439e-02 1.749074999999999935e-01 1.254715000000000025e+01 6.234459999999999980e+01 2.310055000000000291e+03
4.499999999999999833e-02 1.748315000000000008e-01 1.134934999999999938e+01 5.884700000000000131e+01 2.309355000000000018e+03
4.599999999999999922e-02 1.747315000000000118e-01 9.926784999999998860e+00 5.470064999999999600e+01 2.308425000000000182e+03
4.700000000000000011e-02 1.746145000000000058e-01 8.357649999999999579e+00 5.021734999999999616e+01 2.307335000000000036e+03
4.800000000000000100e-02 1.744884999999999908e-01 6.709830000000000183e+00 4.564829999999999899e+01 2.306144999999999982e+03
4.900000000000000189e-02 1.743595000000000006e-01 5.040280000000000094e+00 4.117555000000000121e+01 2.304929999999999836e+03
5.000000000000000278e-02 1.742319999999999980e-01 3.398979999999999890e+00 3.692699999999999960e+01 2.303720000000000255e+03
5.100000000000000366e-02 1.741095000000000004e-01 1.834549999999999903e+00 3.300254999999999939e+01 2.302559999999999945e+03
5.200000000000000455e-02 1.739964999999999984e-01 3.986250000000000071e-01 2.949985000000000213e+01 2.301485000000000127e+03
5.300000000000000544e-02 1.738959999999999950e-01 -8.526949999999998697e-01 2.652990000000000137e+01 2.300525000000000091e+03
5.399999999999999939e-02 1.738115000000000077e-01 -1.860727500000000090e+00 2.421990000000000265e+01 2.299710000000000036e+03
5.500000000000000028e-02 1.737470000000000125e-01 -2.568925000000000125e+00 2.270345000000000013e+01 2.299085000000000036e+03
5.600000000000000117e-02 1.737070000000000003e-01 -2.928974999999999884e+00 2.210245000000000104e+01 2.298680000000000291e+03
5.700000000000000205e-02 1.736940000000000150e-01 -2.906730000000000036e+00 2.250724999999999909e+01 2.298529999999999745e+03
5.800000000000000294e-02 1.737100000000000033e-01 -2.486584999999999823e+00 2.395984999999999943e+01 2.298650000000000091e+03
5.900000000000000383e-02 1.737555000000000072e-01 -1.673543999999999921e+00 2.644469999999999743e+01 2.299055000000000291e+03
6.000000000000000472e-02 1.738304999999999989e-01 -4.927949999999998720e-01 2.988785000000000025e+01 2.299725000000000364e+03
6.099999999999999867e-02 1.739324999999999899e-01 1.012794999999999890e+00 3.416389999999999816e+01 2.300659999999999854e+03
6.199999999999999956e-02 1.740574999999999761e-01 2.786466000000000331e+00 3.910810000000000031e+01 2.301815000000000055e+03
6.300000000000000044e-02 1.742000000000000215e-01 4.762233999999999412e+00 4.453180000000000405e+01 2.303149999999999636e+03
6.400000000000000133e-02 1.743569999999999842e-01 6.869670000000000165e+00 5.023765000000000214e+01 2.304619999999999891e+03
6.500000000000000222e-02 1.745209999999999817e-01 9.038650000000000517e+00 5.603475000000000250e+01 2.306164999999999964e+03
6.600000000000000311e-02 1.746880000000000099e-01 1.120386500000000041e+01 6.175190000000000623e+01 2.307755000000000109e+03
6.700000000000000400e-02 1.748534999999999950e-01 1.330889999999999951e+01 6.724875000000000114e+01 2.309319999999999709e+03
6.800000000000000488e-02 1.750130000000000019e-01 1.530945000000000000e+01 7.242444999999999311e+01 2.310850000000000364e+03
6.900000000000000577e-02 1.751645000000000008e-01 1.717520000000000024e+01 7.722225000000000250e+01 2.312309999999999945e+03
7.000000000000000666e-02 1.753065000000000040e-01 1.889099999999999824e+01 8.162995000000000800e+01 2.313675000000000182e+03
7.100000000000000755e-02 1.754390000000000116e-01 2.045574999999999832e+01 8.567635000000001355e+01 2.314954999999999927e+03
7.200000000000000844e-02 1.755629999999999968e-01 2.188029999999999831e+01 8.942230000000000700e+01 2.316154999999999745e+03
7.300000000000000933e-02 1.756785000000000152e-01 2.318439999999999657e+01 9.295005000000000450e+01 2.317284999999999854e+03
7.399999999999999634e-02 1.757900000000000018e-01 2.439300000000000068e+01 9.634999999999999432e+01 2.318364999999999782e+03
7.499999999999999722e-02 1.758979999999999988e-01 2.553224999999999767e+01 9.970984999999998877e+01 2.319414999999999964e+03
7.599999999999999811e-02 1.760049999999999948e-01 2.662655000000000172e+01 1.031030499999999961e+02 2.320454999999999927e+03
7.699999999999999900e-02 1.761135000000000062e-01 2.769585000000000008e+01 1.065815000000000055e+02 2.321500000000000000e+03
7.799999999999999989e-02 1.762239999999999918e-01 2.875379999999999825e+01 1.101740000000000066e+02 2.322574999999999818e+03
7.900000000000000078e-02 1.763374999999999804e-01 2.980724999999999980e+01 1.138815000000000026e+02 2.323670000000000073e+03
8.000000000000000167e-02 1.764529999999999987e-01 3.085605000000000331e+01 1.176860000000000070e+02 2.324789999999999964e+03
8.100000000000000255e-02 1.765710000000000057e-01 3.189354999999999762e+01 1.215455000000000041e+02 2.325929999999999836e+03
8.200000000000000344e-02 1.766889999999999850e-01 3.290775000000000006e+01 1.254060000000000059e+02 2.327079999999999927e+03
8.300000000000000433e-02 1.768069999999999919e-01 3.388230000000000075e+01 1.292034999999999911e+02 2.328224999999999909e+03
8.400000000000000522e-02 1.769219999999999959e-01 3.479829999999999757e+01 1.328695000000000164e+02 2.329340000000000146e+03
8.500000000000000611e-02 1.770324999999999815e-01 3.563504999999999967e+01 1.363340000000000032e+02 2.330414999999999964e+03
8.600000000000000699e-02 1.771369999999999889e-01 3.637215000000000487e+01 1.395330000000000155e+02 2.331434999999999945e+03
8.700000000000000788e-02 1.772324999999999873e-01 3.699034999999999940e+01 1.424074999999999989e+02 2.332375000000000000e+03
8.800000000000000877e-02 1.773190000000000044e-01 3.747289999999999566e+01 1.449099999999999966e+02 2.333224999999999909e+03
8.899999999999999578e-02 1.773945000000000105e-01 3.780700000000000216e+01 1.470049999999999955e+02 2.333960000000000036e+03
8.999999999999999667e-02 1.774580000000000046e-01 3.798425000000000296e+01 1.486715000000000089e+02 2.334590000000000146e+03
9.099999999999999756e-02 1.775085000000000135e-01 3.800195000000000078e+01 1.499039999999999964e+02 2.335100000000000364e+03
9.199999999999999845e-02 1.775470000000000104e-01 3.786265000000000214e+01 1.507139999999999986e+02 2.335485000000000127e+03
9.299999999999999933e-02 1.775730000000000086e-01 3.757484999999999786e+01 1.511265000000000214e+02 2.335755000000000109e+03
9.400000000000000022e-02 1.775875000000000092e-01 3.715200000000000102e+01 1.511825000000000045e+02 2.335909999999999854e+03
9.500000000000000111e-02 1.775919999999999999e-01 3.661185000000000400e+01 1.509319999999999879e+02 2.335970000000000255e+03
9.600000000000000200e-02 1.775879999999999959e-01 3.597539999999999338e+01 1.504325000000000045e+02 2.335944999999999709e+03
9.700000000000000289e-02 1.775764999999999982e-01 3.526574999999999704e+01 1.497470000000000141e+02 2.335840000000000146e+03
9.800000000000000377e-02 1.775599999999999956e-01 3.450654999999999717e+01 1.489375000000000000e+02 2.335685000000000400e+03
9.900000000000000466e-02 1.775395000000000167e-01 3.372119999999999607e+01 1.480625000000000000e+02 2.335494999999999891e+03
1.000000000000000056e-01 1.775169999999999804e-01 3.293140000000000356e+01 1.471769999999999925e+02 2.335274999999999636e+03
1.010000000000000064e-01 1.774939999999999851e-01 3.215644999999999953e+01 1.463269999999999982e+02 2.335055000000000291e+03
1.020000000000000073e-01 1.774715000000000042e-01 3.141234999999999999e+01 1.455469999999999970e+02 2.334835000000000036e+03
1.030000000000000082e-01 1.774505000000000110e-01 3.071105000000000018e+01 1.448629999999999995e+02 2.334630000000000109e+03
1.040000000000000091e-01 1.774319999999999786e-01 3.006029999999999802e+01 1.442884999999999991e+02 2.334449999999999818e+03
1.050000000000000100e-01 1.774160000000000181e-01 2.946310000000000073e+01 1.438245000000000005e+02 2.334295000000000073e+03
1.059999999999999970e-01 1.774030000000000051e-01 2.891785000000000139e+01 1.434610000000000127e+02 2.334159999999999854e+03
1.069999999999999979e-01 1.773919999999999941e-01 2.841875000000000284e+01 1.431759999999999877e+02 2.334050000000000182e+03
1.079999999999999988e-01 1.773830000000000129e-01 2.795609999999999928e+01 1.429399999999999977e+02 2.333960000000000036e+03
1.089999999999999997e-01 1.773750000000000049e-01 2.751719999999999899e+01 1.427144999999999868e+02 2.333869999999999891e+03
1.100000000000000006e-01 1.773669999999999969e-01 2.708735000000000070e+01 1.424579999999999984e+02 2.333789999999999964e+03
1.110000000000000014e-01 1.773569999999999869e-01 2.665084999999999837e+01 1.421264999999999930e+02 2.333694999999999709e+03
1.120000000000000023e-01 1.773450000000000026e-01 2.619239999999999924e+01 1.416795000000000186e+02 2.333574999999999818e+03
1.130000000000000032e-01 1.773295000000000010e-01 2.569794999999999874e+01 1.410810000000000173e+02 2.333425000000000182e+03
1.140000000000000041e-01 1.773095000000000088e-01 2.515589999999999904e+01 1.403029999999999973e+02 2.333230000000000018e+03
1.150000000000000050e-01 1.772839999999999971e-01 2.455809999999999960e+01 1.393269999999999982e+02 2.332985000000000127e+03
1.160000000000000059e-01 1.772529999999999939e-01 2.390030000000000143e+01 1.381465000000000032e+02 2.332690000000000055e+03
1.170000000000000068e-01 1.772164999999999990e-01 2.318254999999999910e+01 1.367684999999999889e+02 2.332340000000000146e+03
1.180000000000000077e-01 1.771739999999999982e-01 2.240939999999999799e+01 1.352100000000000080e+02 2.331930000000000291e+03
1.190000000000000085e-01 1.771270000000000067e-01 2.158955000000000268e+01 1.335015000000000214e+02 2.331480000000000018e+03
1.200000000000000094e-01 1.770760000000000112e-01 2.073525000000000063e+01 1.316814999999999998e+02 2.330989999999999782e+03
1.209999999999999964e-01 1.770220000000000127e-01 1.986180000000000234e+01 1.297964999999999804e+02 2.330470000000000255e+03
1.219999999999999973e-01 1.769664999999999988e-01 1.898624999999999829e+01 1.278960000000000008e+02 2.329934999999999945e+03
1.229999999999999982e-01 1.769104999999999983e-01 1.812650000000000006e+01 1.260304999999999893e+02 2.329390000000000327e+03
1.239999999999999991e-01 1.768560000000000132e-01 1.730030000000000001e+01 1.242500000000000000e+02 2.328864999999999782e+03
1.250000000000000000e-01 1.768040000000000167e-01 1.652380000000000138e+01 1.225970000000000084e+02 2.328359999999999673e+03
1.260000000000000009e-01 1.767555000000000098e-01 1.581129999999999924e+01 1.211089999999999947e+02 2.327885000000000218e+03
1.270000000000000018e-01 1.767120000000000080e-01 1.517409999999999926e+01 1.198129999999999882e+02 2.327460000000000036e+03
1.280000000000000027e-01 1.766734999999999833e-01 1.462010000000000076e+01 1.187270000000000039e+02 2.327085000000000036e+03
1.290000000000000036e-01 1.766415000000000068e-01 1.415390000000000015e+01 1.178590000000000089e+02 2.326765000000000327e+03
1.300000000000000044e-01 1.766150000000000220e-01 1.377650000000000041e+01 1.172079999999999984e+02 2.326505000000000109e+03
1.310000000000000053e-01 1.765955000000000163e-01 1.348564999999999969e+01 1.167634999999999934e+02 2.326304999999999836e+03
1.320000000000000062e-01 1.765809999999999880e-01 1.327655000000000030e+01 1.165084999999999980e+02 2.326159999999999854e+03
1.330000000000000071e-01 1.765724999999999933e-01 1.314170000000000016e+01 1.164219999999999970e+02 2.326065000000000055e+03
1.340000000000000080e-01 1.765685000000000171e-01 1.307225000000000037e+01 1.164784999999999968e+02 2.326019999999999982e+03
1.350000000000000089e-01 1.765685000000000171e-01 1.305764999999999887e+01 1.166495000000000033e+02 2.326014999999999873e+03
1.360000000000000098e-01 1.765720000000000067e-01 1.308705000000000140e+01 1.169085000000000036e+02 2.326039999999999964e+03
1.370000000000000107e-01 1.765780000000000127e-01 1.314920000000000044e+01 1.172259999999999991e+02 2.326095000000000255e+03
1.380000000000000115e-01 1.765855000000000063e-01 1.323310000000000031e+01 1.175775000000000006e+02 2.326164999999999964e+03
1.390000000000000124e-01 1.765940000000000010e-01 1.332835000000000036e+01 1.179389999999999930e+02 2.326244999999999891e+03
1.400000000000000133e-01 1.766034999999999966e-01 1.342569999999999908e+01 1.182890000000000015e+02 2.326335000000000036e+03
1.410000000000000142e-01 1.766125000000000056e-01 1.351689999999999969e+01 1.186109999999999900e+02 2.326420000000000073e+03
1.420000000000000151e-01 1.766210000000000002e-01 1.359544999999999959e+01 1.188915000000000077e+02 2.326500000000000000e+03
1.430000000000000160e-01 1.766284999999999938e-01 1.365644999999999953e+01 1.191225000000000023e+02 2.326574999999999818e+03
1.440000000000000169e-01 1.766344999999999998e-01 1.369669999999999987e+01 1.192980000000000018e+02 2.326635000000000218e+03
1.450000000000000178e-01 1.766389999999999905e-01 1.371494999999999997e+01 1.194184999999999945e+02 2.326680000000000291e+03
1.459999999999999909e-01 1.766424999999999801e-01 1.371150000000000091e+01 1.194879999999999995e+02 2.326715000000000146e+03
1.469999999999999918e-01 1.766444999999999821e-01 1.368829999999999991e+01 1.195139999999999958e+02 2.326734999999999673e+03
1.479999999999999927e-01 1.766455000000000108e-01 1.364835000000000065e+01 1.195065000000000026e+02 2.326744999999999891e+03
1.489999999999999936e-01 1.766459999999999975e-01 1.359580000000000055e+01 1.194770000000000039e+02 2.326750000000000000e+03
1.499999999999999944e-01 1.766449999999999965e-01 1.353509999999999991e+01 1.194385000000000048e+02 2.326744999999999891e+03
1.509999999999999953e-01 1.766444999999999821e-01 1.347080000000000055e+01 1.194039999999999964e+02 2.326739999999999782e+03
1.519999999999999962e-01 1.766444999999999821e-01 1.340729999999999933e+01 1.193834999999999980e+02 2.326739999999999782e+03
1.529999999999999971e-01 1.766444999999999821e-01 1.334825000000000017e+01 1.193864999999999981e+02 2.326739999999999782e+03
1.539999999999999980e-01 1.766449999999999965e-01 1.329670000000000130e+01 1.194180000000000064e+02 2.326750000000000000e+03
1.549999999999999989e-01 1.766464999999999841e-01 1.325450000000000017e+01 1.194809999999999945e+02 2.326760000000000218e+03
1.559999999999999998e-01 1.766490000000000005e-01 1.322259999999999991e+01 1.195764999999999958e+02 2.326779999999999745e+03
1.570000000000000007e-01 1.766520000000000035e-01 1.320100000000000051e+01 1.197009999999999934e+02 2.326810000000000400e+03
1.580000000000000016e-01 1.766560000000000075e-01 1.318880000000000052e+01 1.198495000000000061e+02 2.326849999999999909e+03
1.590000000000000024e-01 1.766604999999999981e-01 1.318445000000000000e+01 1.200169999999999959e+02 2.326890000000000327e+03
