# t [s], A [cm^2], U [cm/s], P [cPa], c [cm/s]
1.000000000000000021e-03 6.195245000000000335e-01 1.986399999999999277e-03 1.042469999999999999e+02 1.404994999999999891e+03
2.000000000000000042e-03 6.195185000000000830e-01 5.036059999999999322e-03 1.042300000000000040e+02 1.404994999999999891e+03
3.000000000000000062e-03 6.195855000000000112e-01 1.107831999999999983e-01 1.043245000000000005e+02 1.405025000000000091e+03
4.000000000000000083e-03 6.196364999999999235e-01 1.938979000000000119e-01 1.044189999999999969e+02 1.405054999999999836e+03
5.000000000000000104e-03 6.196085000000000065e-01 1.567181999999999742e-01 1.043609999999999900e+02 1.405045000000000073e+03
6.000000000000000125e-03 6.195414999999999672e-01 5.122399999999999176e-02 1.041564999999999941e+02 1.405000000000000000e+03
7.000000000000000146e-03 6.194679999999999076e-01 -6.983949999999999880e-02 1.038609999999999900e+02 1.404924999999999955e+03
8.000000000000000167e-03 6.193515000000000548e-01 -2.669949999999999823e-01 1.034164999999999992e+02 1.404809999999999945e+03
9.000000000000001055e-03 6.191584999999999450e-01 -5.926299999999999901e-01 1.027384999999999877e+02 1.404634999999999991e+03
1.000000000000000194e-02 6.188884999999999525e-01 -1.040000000000000036e+00 1.017930499999999938e+02 1.404384999999999991e+03
1.099999999999999936e-02 6.185315000000000119e-01 -1.606109999999999705e+00 1.005485999999999933e+02 1.404045000000000073e+03
1.200000000000000025e-02 6.180714999999999959e-01 -2.297460000000000058e+00 9.896505000000000507e+01 1.403605000000000018e+03
1.300000000000000114e-02 6.175150000000000361e-01 -3.078655000000000364e+00 9.704615000000001146e+01 1.403055000000000064e+03
1.400000000000000203e-02 6.169104999999999173e-01 -3.843250000000000277e+00 9.489334999999999809e+01 1.402420000000000073e+03
1.499999999999999944e-02 6.163300000000000445e-01 -4.444050000000000722e+00 9.268719999999999004e+01 1.401744999999999891e+03
1.600000000000000033e-02 6.158350000000000213e-01 -4.753820999999999408e+00 9.062559999999999150e+01 1.401090000000000146e+03
1.700000000000000122e-02 6.154519999999999991e-01 -4.711147899999999389e+00 8.885214999999999463e+01 1.400480000000000018e+03
1.800000000000000211e-02 6.151714999999999822e-01 -4.332356500000000388e+00 8.741795000000000471e+01 1.399950000000000045e+03
1.900000000000000300e-02 6.149534999999999307e-01 -3.695774999999999810e+00 8.627934999999999377e+01 1.399490000000000009e+03
2.000000000000000042e-02 6.147475000000000023e-01 -2.910942099999999755e+00 8.532349999999999568e+01 1.399074999999999818e+03
2.100000000000000130e-02 6.145070000000000254e-01 -2.084347500000000242e+00 8.441025000000000489e+01 1.398684999999999945e+03
2.200000000000000219e-02 6.142030000000000545e-01 -1.291675000000000129e+00 8.341570000000000107e+01 1.398275000000000091e+03
2.299999999999999961e-02 6.138284999999999991e-01 -5.645800000000000818e-01 8.226394999999999413e+01 1.397835000000000036e+03
2.400000000000000050e-02 6.133954999999999824e-01 1.047050000000000480e-01 8.093734999999999502e+01 1.397355000000000018e+03
2.500000000000000139e-02 6.129259999999999708e-01 7.451949999999998298e-01 7.946459999999999013e+01 1.396829999999999927e+03
2.600000000000000228e-02 6.124425000000000008e-01 1.384645000000000348e+00 7.789529999999999177e+01 1.396279999999999973e+03
2.700000000000000316e-02 6.119544999999999568e-01 2.031695000000000029e+00 7.627309999999999945e+01 1.395710000000000036e+03
2.800000000000000058e-02 6.114604999999999624e-01 2.667329999999999757e+00 7.461560000000000059e+01 1.395119999999999891e+03
2.900000000000000147e-02 6.109454999999999192e-01 3.246284999999999421e+00 7.290614999999999668e+01 1.394514999999999873e+03
3.000000000000000236e-02 6.103870000000000129e-01 3.705959999999999699e+00 7.109694999999999254e+01 1.393880000000000109e+03
3.099999999999999978e-02 6.097609999999999975e-01 3.979894999999999516e+00 6.912104999999999677e+01 1.393199999999999818e+03
3.200000000000000067e-02 6.090470000000000050e-01 4.012335000000000207e+00 6.691049999999999898e+01 1.392454999999999927e+03
3.300000000000000155e-02 6.082345000000000113e-01 3.770550000000000068e+00 6.441554999999999609e+01 1.391634999999999991e+03
3.400000000000000244e-02 6.073284999999999378e-01 3.253065000000000317e+00 6.162069999999999936e+01 1.390740000000000009e+03
3.500000000000000333e-02 6.063460000000000516e-01 2.491429999999999367e+00 5.855440000000000111e+01 1.389759999999999991e+03
3.600000000000000422e-02 6.053184999999999816e-01 1.546000000000000263e+00 5.529000000000000625e+01 1.388724999999999909e+03
3.700000000000000511e-02 6.042855000000000310e-01 4.969999999999998863e-01 5.193850000000000477e+01 1.387654999999999973e+03
3.799999999999999906e-02 6.032895000000000341e-01 -5.661000000000004917e-01 4.863599999999999568e+01 1.386589999999999918e+03
3.899999999999999994e-02 6.023724999999999774e-01 -1.555480000000000196e+00 4.552800000000000580e+01 1.385559999999999945e+03
4.000000000000000083e-02 6.015719999999999956e-01 -2.393324999999999925e+00 4.275450000000000017e+01 1.384619999999999891e+03
4.100000000000000172e-02 6.009174999999999933e-01 -3.017220000000000457e+00 4.043724999999999881e+01 1.383800000000000182e+03
4.200000000000000261e-02 6.004309999999999370e-01 -3.382744999999999891e+00 3.867109999999999559e+01 1.383134999999999991e+03
4.300000000000000350e-02 6.001229999999999620e-01 -3.462938999999999989e+00 3.751984999999999815e+01 1.382644999999999982e+03
4.400000000000000439e-02 5.999989999999999490e-01 -3.246340000000000003e+00 3.701559999999999917e+01 1.382345000000000027e+03
4.499999999999999833e-02 6.000560000000000338e-01 -2.733715000000000117e+00 3.716169999999999618e+01 1.382244999999999891e+03
4.599999999999999922e-02 6.002870000000000150e-01 -1.934804000000000190e+00 3.793784999999999741e+01 1.382349999999999909e+03
4.700000000000000011e-02 6.006789999999999630e-01 -8.656250000000000888e-01 3.930554999999999666e+01 1.382644999999999982e+03
4.800000000000000100e-02 6.012189999999999479e-01 4.533299999999997887e-01 4.121349999999999625e+01 1.383119999999999891e+03
4.900000000000000189e-02 6.018909999999999538e-01 1.997854999999999492e+00 4.360150000000000148e+01 1.383764999999999873e+03
5.000000000000000278e-02 6.026765000000000594e-01 3.740045000000000286e+00 4.640379999999999683e+01 1.384550000000000182e+03
5.100000000000000366e-02 6.035559999999999814e-01 5.648105000000001041e+00 4.955049999999999955e+01 1.385464999999999918e+03
5.200000000000000455e-02 6.045100000000001028e-01 7.686025000000000773e+00 5.296864999999999668e+01 1.386485000000000127e+03
5.300000000000000544e-02 6.055169999999999719e-01 9.814192999999999500e+00 5.658350000000000080e+01 1.387590000000000146e+03
5.399999999999999939e-02 6.065560000000000951e-01 1.198991499999999988e+01 6.031919999999999504e+01 1.388750000000000000e+03
5.500000000000000028e-02 6.076040000000000330e-01 1.416947000000000045e+01 6.410110000000000241e+01 1.389944999999999936e+03
5.600000000000000117e-02 6.086430000000000451e-01 1.630953500000000034e+01 6.785769999999999413e+01 1.391154999999999973e+03
5.700000000000000205e-02 6.096534999999999593e-01 1.836974999999999980e+01 7.152334999999999354e+01 1.392360000000000127e+03
5.800000000000000294e-02 6.106205000000000105e-01 2.031439999999999912e+01 7.504085000000000605e+01 1.393535000000000082e+03
5.900000000000000383e-02 6.115325000000000344e-01 2.211439999999999984e+01 7.836379999999999768e+01 1.394664999999999964e+03
6.000000000000000472e-02 6.123804999999999943e-01 2.374814999999999898e+01 8.145865000000000578e+01 1.395740000000000009e+03
6.099999999999999867e-02 6.131615000000000260e-01 2.520244999999999891e+01 8.430549999999999500e+01 1.396744999999999891e+03
6.199999999999999956e-02 6.138749999999999485e-01 2.647210000000000107e+01 8.689844999999999686e+01 1.397679999999999836e+03
6.300000000000000044e-02 6.145245000000000291e-01 2.755989999999999895e+01 8.924469999999999459e+01 1.398545000000000073e+03
6.400000000000000133e-02 6.151165000000000660e-01 2.847509999999999764e+01 9.136330000000000950e+01 1.399340000000000146e+03
6.500000000000000222e-02 6.156589999999999563e-01 2.923259999999999792e+01 9.328284999999999627e+01 1.400069999999999936e+03
6.600000000000000311e-02 6.161635000000000861e-01 2.985164999999999935e+01 9.503905000000000314e+01 1.400750000000000000e+03
6.700000000000000400e-02 6.166404999999999248e-01 3.035419999999999874e+01 9.667244999999999777e+01 1.401389999999999873e+03
6.800000000000000488e-02 6.171010000000000106e-01 3.076415000000000077e+01 9.822575000000000500e+01 1.401990000000000009e+03
6.900000000000000577e-02 6.175574999999999815e-01 3.110594999999999999e+01 9.974170000000000869e+01 1.402575000000000045e+03
7.000000000000000666e-02 6.180189999999999850e-01 3.140374999999999872e+01 1.012605000000000075e+02 1.403150000000000091e+03
7.100000000000000755e-02 6.184970000000000745e-01 3.168050000000000210e+01 1.028190000000000026e+02 1.403735000000000127e+03
7.200000000000000844e-02 6.189989999999999659e-01 3.195700000000000074e+01 1.044495000000000005e+02 1.404329999999999927e+03
7.300000000000000933e-02 6.195299999999999141e-01 3.225140000000000384e+01 1.061765000000000043e+02 1.404950000000000045e+03
7.399999999999999634e-02 6.200959999999999805e-01 3.257795000000000130e+01 1.080180000000000007e+02 1.405594999999999800e+03
7.499999999999999722e-02 6.206979999999999720e-01 3.294689999999999941e+01 1.099840000000000089e+02 1.406279999999999973e+03
7.599999999999999811e-02 6.213359999999999994e-01 3.336319999999999908e+01 1.120750000000000028e+02 1.407000000000000000e+03
7.699999999999999900e-02 6.220065000000000177e-01 3.382710000000000150e+01 1.142830000000000013e+02 1.407759999999999991e+03
7.799999999999999989e-02 6.227030000000000065e-01 3.433324999999999960e+01 1.165904999999999916e+02 1.408545000000000073e+03
7.900000000000000078e-02 6.234189999999999454e-01 3.487160000000000082e+01 1.189724999999999966e+02 1.409355000000000018e+03
8.000000000000000167e-02 6.241434999999999622e-01 3.542764999999999986e+01 1.213965000000000032e+02 1.410184999999999945e+03
8.100000000000000255e-02 6.248655000000000737e-01 3.598340000000000316e+01 1.238240000000000123e+02 1.411019999999999982e+03
8.200000000000000344e-02 6.255729999999999347e-01 3.651845000000000141e+01 1.262129999999999939e+02 1.411845000000000027e+03
8.300000000000000433e-02 6.262524999999999897e-01 3.701115000000000066e+01 1.285199999999999818e+02 1.412655000000000200e+03
8.400000000000000522e-02 6.268934999999999924e-01 3.743970000000000198e+01 1.307009999999999934e+02 1.413424999999999955e+03
8.500000000000000611e-02 6.274835000000000829e-01 3.778355000000000530e+01 1.327155000000000200e+02 1.414150000000000091e+03
8.600000000000000699e-02 6.280129999999999324e-01 3.802420000000000044e+01 1.345275000000000034e+02 1.414815000000000055e+03
8.700000000000000788e-02 6.284739999999999771e-01 3.814639999999999986e+01 1.361049999999999898e+02 1.415414999999999964e+03
8.800000000000000877e-02 6.288605000000000445e-01 3.813844999999999885e+01 1.374275000000000091e+02 1.415930000000000064e+03
8.899999999999999578e-02 6.291694999999999371e-01 3.799280000000000257e+01 1.384784999999999968e+02 1.416360000000000127e+03
8.999999999999999667e-02 6.293999999999999595e-01 3.770629999999999882e+01 1.392520000000000095e+02 1.416710000000000036e+03
9.099999999999999756e-02 6.295530000000000292e-01 3.728019999999999357e+01 1.397514999999999930e+02 1.416964999999999918e+03
9.199999999999999845e-02 6.296314999999998996e-01 3.671979999999999933e+01 1.399864999999999782e+02 1.417125000000000000e+03
9.299999999999999933e-02 6.296410000000000062e-01 3.603450000000000131e+01 1.399745000000000061e+02 1.417210000000000036e+03
9.400000000000000022e-02 6.295889999999999542e-01 3.523690000000000566e+01 1.397409999999999854e+02 1.417210000000000036e+03
9.500000000000000111e-02 6.294845000000000024e-01 3.434235000000000326e+01 1.393135000000000048e+02 1.417150000000000091e+03
9.600000000000000200e-02 6.293349999999999778e-01 3.336874999999999858e+01 1.387264999999999873e+02 1.417019999999999982e+03
9.700000000000000289e-02 6.291515000000000857e-01 3.233525000000000205e+01 1.380149999999999864e+02 1.416840000000000146e+03
9.800000000000000377e-02 6.289450000000000873e-01 3.126184999999999903e+01 1.372144999999999868e+02 1.416625000000000000e+03
9.900000000000000466e-02 6.287234999999999907e-01 3.016884999999999906e+01 1.363625000000000114e+02 1.416384999999999991e+03
1.000000000000000056e-01 6.284984999999999600e-01 2.907605000000000217e+01 1.354929999999999950e+02 1.416125000000000000e+03
1.010000000000000064e-01 6.282775000000000443e-01 2.800189999999999912e+01 1.346390000000000100e+02 1.415865000000000009e+03
1.020000000000000073e-01 6.280685000000000295e-01 2.696300000000000097e+01 1.338280000000000030e+02 1.415605000000000018e+03
1.030000000000000082e-01 6.278789999999999649e-01 2.597384999999999877e+01 1.330850000000000080e+02 1.415360000000000127e+03
1.040000000000000091e-01 6.277135000000000353e-01 2.504594999999999771e+01 1.324285000000000139e+02 1.415134999999999991e+03
1.050000000000000100e-01 6.275744999999999241e-01 2.418779999999999930e+01 1.318720000000000141e+02 1.414940000000000055e+03
1.059999999999999970e-01 6.274644999999999806e-01 2.340449999999999875e+01 1.314230000000000018e+02 1.414769999999999982e+03
1.069999999999999979e-01 6.273839999999999417e-01 2.269794999999999874e+01 1.310840000000000032e+02 1.414630000000000109e+03
1.079999999999999988e-01 6.273315000000000419e-01 2.206660000000000110e+01 1.308505000000000109e+02 1.414519999999999982e+03
1.089999999999999997e-01 6.273039999999999727e-01 2.150589999999999691e+01 1.307144999999999868e+02 1.414449999999999818e+03
1.100000000000000006e-01 6.272975000000000634e-01 2.100874999999999915e+01 1.306620000000000061e+02 1.414400000000000091e+03
1.110000000000000014e-01 6.273074999999999068e-01 2.056559999999999988e+01 1.306759999999999877e+02 1.414375000000000000e+03
1.120000000000000023e-01 6.273279999999999967e-01 2.016525000000000034e+01 1.307375000000000114e+02 1.414369999999999891e+03
1.130000000000000032e-01 6.273524999999999796e-01 1.979524999999999935e+01 1.308245000000000005e+02 1.414375000000000000e+03
1.140000000000000041e-01 6.273759999999999337e-01 1.944255000000000067e+01 1.309139999999999873e+02 1.414384999999999991e+03
1.150000000000000050e-01 6.273904999999999621e-01 1.909400000000000119e+01 1.309855000000000018e+02 1.414394999999999982e+03
1.160000000000000059e-01 6.273930000000000895e-01 1.873709999999999809e+01 1.310159999999999911e+02 1.414390000000000100e+03
1.170000000000000068e-01 6.273765000000000036e-01 1.836039999999999850e+01 1.309889999999999759e+02 1.414375000000000000e+03
1.180000000000000077e-01 6.273374999999999924e-01 1.795369999999999777e+01 1.308874999999999886e+02 1.414340000000000146e+03
1.190000000000000085e-01 6.272735000000000394e-01 1.750900000000000034e+01 1.306990000000000123e+02 1.414284999999999854e+03
1.200000000000000094e-01 6.271804999999999186e-01 1.702009999999999934e+01 1.304145000000000039e+02 1.414195000000000164e+03
1.209999999999999964e-01 6.270599999999999508e-01 1.648335000000000150e+01 1.300300000000000011e+02 1.414079999999999927e+03
1.219999999999999973e-01 6.269109999999999960e-01 1.589754999999999896e+01 1.295455000000000041e+02 1.413930000000000064e+03
1.229999999999999982e-01 6.267355000000000009e-01 1.526395000000000124e+01 1.289644999999999868e+02 1.413755000000000109e+03
1.239999999999999991e-01 6.265359999999999818e-01 1.458619999999999983e+01 1.282950000000000159e+02 1.413545000000000073e+03
1.250000000000000000e-01 6.263149999999999551e-01 1.387012999999999963e+01 1.275480000000000018e+02 1.413315000000000055e+03
1.260000000000000009e-01 6.260790000000000521e-01 1.312361999999999895e+01 1.267395000000000067e+02 1.413055000000000064e+03
1.270000000000000018e-01 6.258315000000000961e-01 1.235632500000000000e+01 1.258855000000000075e+02 1.412784999999999854e+03
1.280000000000000027e-01 6.255779999999999674e-01 1.157899000000000100e+01 1.250055000000000121e+02 1.412505000000000109e+03
1.290000000000000036e-01 6.253254999999999786e-01 1.080344499999999996e+01 1.241204999999999927e+02 1.412210000000000036e+03
1.300000000000000044e-01 6.250784999999999814e-01 1.004191499999999948e+01 1.232500000000000000e+02 1.411925000000000182e+03
1.310000000000000053e-01 6.248434999999999961e-01 9.306605000000001127e+00 1.224155000000000086e+02 1.411644999999999982e+03
1.320000000000000062e-01 6.246255000000000557e-01 8.609210000000000917e+00 1.216359999999999957e+02 1.411375000000000000e+03
1.330000000000000071e-01 6.244300000000000406e-01 7.960544999999999760e+00 1.209284999999999997e+02 1.411125000000000000e+03
1.340000000000000080e-01 6.242594999999999672e-01 7.370074999999999932e+00 1.203085000000000093e+02 1.410900000000000091e+03
1.350000000000000089e-01 6.241185000000000205e-01 6.845629999999999882e+00 1.197880000000000109e+02 1.410704999999999927e+03
1.360000000000000098e-01 6.240084999999999660e-01 6.393105000000000260e+00 1.193750000000000000e+02 1.410539999999999964e+03
1.370000000000000107e-01 6.239304999999999435e-01 6.016300000000000203e+00 1.190755000000000052e+02 1.410414999999999964e+03
1.380000000000000115e-01 6.238855000000000928e-01 5.716810000000000613e+00 1.188905000000000030e+02 1.410319999999999936e+03
1.390000000000000124e-01 6.238710000000000644e-01 5.494044999999999845e+00 1.188170000000000073e+02 1.410259999999999991e+03
1.400000000000000133e-01 6.238859999999999406e-01 5.345304999999999751e+00 1.188505000000000109e+02 1.410235000000000127e+03
1.410000000000000142e-01 6.239280000000000381e-01 5.265950000000000131e+00 1.189819999999999993e+02 1.410244999999999891e+03
1.420000000000000151e-01 6.239934999999999787e-01 5.249634999999999607e+00 1.191980000000000075e+02 1.410289999999999964e+03
1.430000000000000160e-01 6.240775000000000627e-01 5.288574999999999804e+00 1.194874999999999972e+02 1.410349999999999909e+03
1.440000000000000169e-01 6.241769999999999818e-01 5.373879999999999768e+00 1.198335000000000008e+02 1.410440000000000055e+03
1.450000000000000178e-01 6.242859999999998966e-01 5.495894999999999975e+00 1.202199999999999989e+02 1.410545000000000073e+03
1.459999999999999909e-01 6.244005000000000249e-01 5.644555000000000433e+00 1.206305000000000121e+02 1.410659999999999854e+03
1.469999999999999918e-01 6.245159999999999600e-01 5.809734999999999872e+00 1.210485000000000042e+02 1.410779999999999973e+03
1.479999999999999927e-01 6.246279999999999610e-01 5.981574999999999420e+00 1.214590000000000032e+02 1.410904999999999973e+03
1.489999999999999936e-01 6.247329999999999828e-01 6.150760000000000005e+00 1.218470000000000084e+02 1.411025000000000091e+03
1.499999999999999944e-01 6.248275000000000912e-01 6.308815000000000062e+00 1.221999999999999886e+02 1.411139999999999873e+03
1.509999999999999953e-01 6.249084999999999779e-01 6.448315000000000019e+00 1.225080000000000098e+02 1.411240000000000009e+03
1.519999999999999962e-01 6.249744999999999884e-01 6.563045000000000684e+00 1.227624999999999886e+02 1.411329999999999927e+03
1.529999999999999971e-01 6.250225000000000364e-01 6.648125000000000284e+00 1.229565000000000055e+02 1.411405000000000200e+03
1.539999999999999980e-01 6.250539999999999985e-01 6.700084999999999624e+00 1.230879999999999939e+02 1.411460000000000036e+03
1.549999999999999989e-01 6.250670000000000393e-01 6.716879999999999740e+00 1.231550000000000011e+02 1.411494999999999891e+03
1.559999999999999998e-01 6.250625000000000764e-01 6.697845000000000049e+00 1.231579999999999870e+02 1.411509999999999991e+03
1.570000000000000007e-01 6.250420000000000975e-01 6.643665000000000376e+00 1.231009999999999991e+02 1.411505000000000109e+03
1.580000000000000016e-01 6.250059999999999505e-01 6.556219999999999715e+00 1.229885000000000019e+02 1.411485000000000127e+03
1.590000000000000024e-01 6.249575000000000546e-01 6.438469999999999693e+00 1.228264999999999958e+02 1.411445000000000164e+03
