# t [s], A [cm^2], U [cm/s], P [cPa], c [cm/s]
1.000000000000000021e-03 7.138645000000000129e-01 6.506200000000003647e-03 1.030674999999999955e+02 1.760299999999999955e+03
2.000000000000000042e-03 7.138545000000000584e-01 1.504189999999999867e-03 1.030360000000000014e+02 1.760295000000000073e+03
3.000000000000000062e-03 7.139254999999999907e-01 1.255294999999999883e-01 1.031839999999999975e+02 1.760324999999999818e+03
4.000000000000000083e-03 7.139655000000000307e-01 2.136825500000000266e-01 1.032965000000000089e+02 1.760349999999999909e+03
5.000000000000000104e-03 7.139085000000000569e-01 1.449070000000000080e-01 1.031460000000000008e+02 1.760320000000000164e+03
6.000000000000000125e-03 7.138314999999999522e-01 3.391900000000003246e-02 1.028410000000000082e+02 1.760264999999999873e+03
7.000000000000000146e-03 7.137554999999999872e-01 -8.756200000000002870e-02 1.024540000000000077e+02 1.760190000000000055e+03
8.000000000000000167e-03 7.136145000000000405e-01 -3.381399999999999961e-01 1.018315000000000055e+02 1.760070000000000164e+03
9.000000000000001055e-03 7.133960000000000301e-01 -7.444650000000000434e-01 1.008914499999999919e+02 1.759889999999999873e+03
1.000000000000000194e-02 7.130859999999999976e-01 -1.320759999999999934e+00 9.956329999999999814e+01 1.759634999999999991e+03
1.099999999999999936e-02 7.126604999999999190e-01 -2.092545000000000321e+00 9.775329999999999586e+01 1.759275000000000091e+03
1.200000000000000025e-02 7.121439999999999992e-01 -2.990019999999999900e+00 9.549580000000000268e+01 1.758825000000000045e+03
1.300000000000000114e-02 7.116225000000000467e-01 -3.827075000000000227e+00 9.302334999999999354e+01 1.758315000000000055e+03
1.400000000000000203e-02 7.111840000000000384e-01 -4.404449500000000128e+00 9.065070000000000050e+01 1.757799999999999955e+03
1.499999999999999944e-02 7.108674999999999855e-01 -4.615124500000000296e+00 8.860930000000000462e+01 1.757335000000000036e+03
1.600000000000000033e-02 7.106495000000000450e-01 -4.473724999999999952e+00 8.695814999999998918e+01 1.756924999999999955e+03
1.700000000000000122e-02 7.104730000000000212e-01 -4.081834999999999880e+00 8.559825000000000728e+01 1.756565000000000055e+03
1.800000000000000211e-02 7.102749999999999897e-01 -3.568355000000000388e+00 8.434600000000000364e+01 1.756230000000000018e+03
1.900000000000000300e-02 7.100139999999999230e-01 -3.034318500000000363e+00 8.302355000000000018e+01 1.755880000000000109e+03
2.000000000000000042e-02 7.096834999999999116e-01 -2.520191499999999696e+00 8.152994999999999948e+01 1.755505000000000109e+03
2.100000000000000130e-02 7.093059999999999921e-01 -2.005539999999999878e+00 7.986724999999999852e+01 1.755095000000000027e+03
2.200000000000000219e-02 7.089185000000000070e-01 -1.438124999999999876e+00 7.811539999999999395e+01 1.754670000000000073e+03
2.299999999999999961e-02 7.085500000000000131e-01 -7.749900000000000677e-01 7.637405000000001110e+01 1.754240000000000009e+03
2.400000000000000050e-02 7.082079999999999487e-01 -1.481999999999983331e-02 7.470310000000000628e+01 1.753824999999999818e+03
2.500000000000000139e-02 7.078754999999999908e-01 7.903649999999999842e-01 7.308689999999999998e+01 1.753414999999999964e+03
2.600000000000000228e-02 7.075139999999999763e-01 1.544504999999999795e+00 7.143039999999999168e+01 1.752994999999999891e+03
2.700000000000000316e-02 7.070805000000000007e-01 2.131879999999999775e+00 6.958445000000000391e+01 1.752549999999999955e+03
2.800000000000000058e-02 7.065369999999999706e-01 2.448354999999999393e+00 6.739164999999999850e+01 1.752039999999999964e+03
2.900000000000000147e-02 7.058659999999999934e-01 2.430634999999999657e+00 6.473675000000000068e+01 1.751440000000000055e+03
3.000000000000000236e-02 7.050764999999999949e-01 2.074514999999999887e+00 6.158889999999999532e+01 1.750750000000000000e+03
3.099999999999999978e-02 7.042034999999999823e-01 1.435229999999999784e+00 5.801834999999999809e+01 1.749970000000000027e+03
3.200000000000000067e-02 7.032979999999999787e-01 6.116000000000001435e-01 5.418509999999999849e+01 1.749134999999999991e+03
3.300000000000000155e-02 7.024174999999999169e-01 -2.797149999999994918e-01 5.030400000000000205e+01 1.748284999999999854e+03
3.400000000000000244e-02 7.016109999999999847e-01 -1.129000000000000448e+00 4.660280000000000200e+01 1.747444999999999936e+03
3.500000000000000333e-02 7.009174999999999711e-01 -1.850330000000000030e+00 4.328444999999999965e+01 1.746684999999999945e+03
3.600000000000000422e-02 7.003584999999999949e-01 -2.388775000000000315e+00 4.050314999999999799e+01 1.746019999999999982e+03
3.700000000000000511e-02 6.999439999999998996e-01 -2.718205000000000204e+00 3.835415000000000418e+01 1.745474999999999909e+03
3.799999999999999906e-02 6.996704999999999730e-01 -2.833989499999999939e+00 3.687789999999999679e+01 1.745075000000000045e+03
3.899999999999999994e-02 6.995329999999999604e-01 -2.743005000000000138e+00 3.607200000000000273e+01 1.744820000000000164e+03
4.000000000000000083e-02 6.995219999999999771e-01 -2.454474999999999962e+00 3.590789999999999793e+01 1.744710000000000036e+03
4.100000000000000172e-02 6.996305000000000440e-01 -1.973946499999999826e+00 3.634624999999999773e+01 1.744734999999999900e+03
4.200000000000000261e-02 6.998530000000000584e-01 -1.301585000000000214e+00 3.734730000000000416e+01 1.744884999999999991e+03
4.300000000000000350e-02 7.001844999999999875e-01 -4.345000000000001084e-01 3.887489999999999668e+01 1.745164999999999964e+03
4.400000000000000439e-02 7.006215000000000082e-01 6.284250000000000114e-01 4.089405000000000001e+01 1.745550000000000182e+03
4.499999999999999833e-02 7.011544999999999028e-01 1.881360000000000365e+00 4.336594999999999800e+01 1.746049999999999955e+03
4.599999999999999922e-02 7.017725000000000213e-01 3.307925000000000004e+00 4.624159999999999826e+01 1.746644999999999982e+03
4.700000000000000011e-02 7.024614999999999609e-01 4.880069999999999908e+00 4.945870000000000033e+01 1.747320000000000164e+03
4.800000000000000100e-02 7.032009999999999650e-01 6.559635000000000105e+00 5.294154999999999944e+01 1.748065000000000055e+03
4.900000000000000189e-02 7.039720000000000422e-01 8.301888999999999186e+00 5.660420000000000584e+01 1.748860000000000127e+03
5.000000000000000278e-02 7.047525000000000039e-01 1.006003499999999917e+01 6.035649999999999693e+01 1.749684999999999945e+03
5.100000000000000366e-02 7.055260000000000975e-01 1.178996000000000066e+01 6.411164999999999736e+01 1.750530000000000200e+03
5.200000000000000455e-02 7.062764999999999738e-01 1.345364500000000163e+01 6.779279999999999973e+01 1.751365000000000009e+03
5.300000000000000544e-02 7.069935000000000525e-01 1.502195499999999839e+01 7.133875000000000455e+01 1.752184999999999945e+03
5.399999999999999939e-02 7.076709999999999390e-01 1.647544999999999860e+01 7.470720000000000027e+01 1.752970000000000027e+03
5.500000000000000028e-02 7.083079999999999377e-01 1.780414999999999992e+01 7.787559999999999150e+01 1.753719999999999800e+03
5.600000000000000117e-02 7.089045000000000485e-01 1.900639999999999930e+01 8.084024999999999750e+01 1.754434999999999945e+03
5.700000000000000205e-02 7.094664999999999999e-01 2.008715000000000117e+01 8.361314999999999031e+01 1.755110000000000127e+03
5.800000000000000294e-02 7.099995000000000056e-01 2.105614999999999881e+01 8.621885000000000332e+01 1.755744999999999891e+03
5.900000000000000383e-02 7.105114999999999625e-01 2.192640000000000100e+01 8.868979999999999109e+01 1.756349999999999909e+03
6.000000000000000472e-02 7.110100000000000309e-01 2.271249999999999858e+01 9.106279999999999575e+01 1.756934999999999945e+03
6.099999999999999867e-02 7.115015000000000089e-01 2.342905000000000015e+01 9.337484999999999502e+01 1.757505000000000109e+03
6.199999999999999956e-02 7.119934999999999459e-01 2.408964999999999890e+01 9.565940000000000509e+01 1.758065000000000055e+03
6.300000000000000044e-02 7.124894999999999978e-01 2.470524999999999949e+01 9.794315000000000282e+01 1.758619999999999891e+03
6.400000000000000133e-02 7.129924999999999180e-01 2.528379999999999939e+01 1.002447499999999962e+02 1.759175000000000182e+03
6.500000000000000222e-02 7.135019999999999696e-01 2.582905000000000229e+01 1.025699500000000057e+02 1.759735000000000127e+03
6.600000000000000311e-02 7.140159999999999840e-01 2.634074999999999989e+01 1.049155000000000086e+02 1.760295000000000073e+03
6.700000000000000400e-02 7.145299999999999985e-01 2.681484999999999985e+01 1.072669999999999959e+02 1.760860000000000127e+03
6.800000000000000488e-02 7.150384999999999103e-01 2.724419999999999931e+01 1.095989999999999895e+02 1.761420000000000073e+03
6.900000000000000577e-02 7.155335000000000445e-01 2.761955000000000027e+01 1.118824999999999932e+02 1.761970000000000027e+03
7.000000000000000666e-02 7.160085000000000477e-01 2.793064999999999998e+01 1.140829999999999984e+02 1.762505000000000109e+03
7.100000000000000755e-02 7.164550000000000640e-01 2.816729999999999734e+01 1.161639999999999873e+02 1.763009999999999991e+03
7.200000000000000844e-02 7.168665000000000731e-01 2.832019999999999982e+01 1.180925000000000011e+02 1.763490000000000009e+03
7.300000000000000933e-02 7.172385000000000010e-01 2.838179999999999836e+01 1.198384999999999962e+02 1.763924999999999955e+03
7.399999999999999634e-02 7.175644999999999385e-01 2.834644999999999726e+01 1.213780000000000001e+02 1.764319999999999936e+03
7.499999999999999722e-02 7.178430000000000089e-01 2.821090000000000231e+01 1.226924999999999955e+02 1.764660000000000082e+03
7.599999999999999811e-02 7.180710000000000148e-01 2.797475000000000023e+01 1.237704999999999984e+02 1.764954999999999927e+03
7.699999999999999900e-02 7.182490000000000263e-01 2.763969999999999771e+01 1.246099999999999994e+02 1.765184999999999945e+03
7.799999999999999989e-02 7.183779999999999610e-01 2.721045000000000158e+01 1.252129999999999939e+02 1.765369999999999891e+03
7.900000000000000078e-02 7.184610000000000163e-01 2.669389999999999930e+01 1.255900000000000034e+02 1.765494999999999891e+03
8.000000000000000167e-02 7.185004999999999864e-01 2.609959999999999880e+01 1.257580000000000098e+02 1.765574999999999818e+03
8.100000000000000255e-02 7.185025000000000439e-01 2.543890000000000029e+01 1.257370000000000090e+02 1.765605000000000018e+03
8.200000000000000344e-02 7.184725000000000694e-01 2.472514999999999930e+01 1.255535000000000139e+02 1.765599999999999909e+03
8.300000000000000433e-02 7.184154999999999847e-01 2.397274999999999778e+01 1.252364999999999924e+02 1.765555000000000064e+03
8.400000000000000522e-02 7.183395000000000197e-01 2.319669999999999987e+01 1.248170000000000073e+02 1.765485000000000127e+03
8.500000000000000611e-02 7.182500000000000551e-01 2.241194999999999737e+01 1.243259999999999934e+02 1.765394999999999982e+03
8.600000000000000699e-02 7.181539999999999591e-01 2.163260000000000005e+01 1.237940000000000111e+02 1.765284999999999854e+03
8.700000000000000788e-02 7.180560000000000276e-01 2.087129999999999797e+01 1.232480000000000047e+02 1.765170000000000073e+03
8.800000000000000877e-02 7.179610000000000714e-01 2.013844999999999885e+01 1.227120000000000033e+02 1.765059999999999945e+03
8.899999999999999578e-02 7.178709999999999258e-01 1.944200000000000017e+01 1.222044999999999959e+02 1.764940000000000055e+03
8.999999999999999667e-02 7.177904999999999980e-01 1.878665000000000163e+01 1.217385000000000019e+02 1.764829999999999927e+03
9.099999999999999756e-02 7.177185000000000370e-01 1.817445000000000022e+01 1.213209999999999980e+02 1.764730000000000018e+03
9.199999999999999845e-02 7.176544999999999730e-01 1.760435000000000016e+01 1.209530000000000030e+02 1.764639999999999873e+03
9.299999999999999933e-02 7.175985000000000280e-01 1.707274999999999920e+01 1.206289999999999907e+02 1.764559999999999945e+03
9.400000000000000022e-02 7.175464999999999760e-01 1.657369999999999877e+01 1.203394999999999868e+02 1.764480000000000018e+03
9.500000000000000111e-02 7.174964999999999815e-01 1.609965000000000046e+01 1.200715000000000003e+02 1.764409999999999854e+03
9.600000000000000200e-02 7.174439999999999706e-01 1.564195000000000135e+01 1.198089999999999975e+02 1.764345000000000027e+03
9.700000000000000289e-02 7.173869999999999969e-01 1.519125000000000014e+01 1.195339999999999918e+02 1.764269999999999982e+03
9.800000000000000377e-02 7.173199999999999577e-01 1.473825000000000074e+01 1.192295000000000016e+02 1.764195000000000164e+03
9.900000000000000466e-02 7.172410000000000174e-01 1.427424999999999855e+01 1.188795000000000073e+02 1.764110000000000127e+03
1.000000000000000056e-01 7.171469999999999789e-01 1.379165000000000063e+01 1.184679999999999893e+02 1.764014999999999873e+03
1.010000000000000064e-01 7.170365000000000766e-01 1.328423499999999891e+01 1.179855000000000018e+02 1.763904999999999973e+03
1.020000000000000073e-01 7.169079999999999897e-01 1.274803500000000156e+01 1.174240000000000066e+02 1.763779999999999973e+03
1.030000000000000082e-01 7.167615000000000514e-01 1.218109499999999912e+01 1.167810000000000059e+02 1.763635000000000218e+03
1.040000000000000091e-01 7.165985000000000271e-01 1.158388500000000043e+01 1.160585000000000093e+02 1.763480000000000018e+03
1.050000000000000100e-01 7.164209999999999745e-01 1.095942499999999953e+01 1.152644999999999982e+02 1.763300000000000182e+03
1.059999999999999970e-01 7.162319999999999798e-01 1.031285499999999900e+01 1.144094999999999942e+02 1.763105000000000018e+03
1.069999999999999979e-01 7.160349999999999770e-01 9.651495000000000601e+00 1.135099999999999909e+02 1.762910000000000082e+03
1.079999999999999988e-01 7.158345000000000402e-01 8.984389999999999432e+00 1.125854999999999961e+02 1.762695000000000164e+03
1.089999999999999997e-01 7.156365000000000087e-01 8.321699999999999875e+00 1.116580000000000013e+02 1.762490000000000009e+03
1.100000000000000006e-01 7.154439999999999689e-01 7.674355000000000260e+00 1.107504999999999882e+02 1.762275000000000091e+03
1.110000000000000014e-01 7.152639999999998999e-01 7.053314999999999557e+00 1.098870000000000005e+02 1.762074999999999818e+03
1.120000000000000023e-01 7.150994999999999990e-01 6.469229999999999592e+00 1.090884999999999962e+02 1.761884999999999991e+03
1.130000000000000032e-01 7.149554999999999660e-01 5.931585000000000107e+00 1.083764999999999930e+02 1.761710000000000036e+03
1.140000000000000041e-01 7.148345000000000393e-01 5.448479999999999990e+00 1.077669999999999959e+02 1.761559999999999945e+03
1.150000000000000050e-01 7.147395000000000831e-01 5.026119999999999699e+00 1.072740000000000009e+02 1.761429999999999836e+03
1.160000000000000059e-01 7.146710000000000562e-01 4.668585000000000207e+00 1.069044999999999987e+02 1.761329999999999927e+03
1.170000000000000068e-01 7.146295000000000286e-01 4.377670000000000172e+00 1.066614999999999895e+02 1.761255000000000109e+03
1.180000000000000077e-01 7.146144999999999303e-01 4.152915000000000134e+00 1.065444999999999993e+02 1.761215000000000146e+03
1.190000000000000085e-01 7.146235000000000781e-01 3.991700000000000248e+00 1.065469999999999970e+02 1.761190000000000055e+03
1.200000000000000094e-01 7.146544999999999703e-01 3.889524999999999899e+00 1.066585000000000036e+02 1.761199999999999818e+03
1.209999999999999964e-01 7.147040000000000060e-01 3.840304999999999858e+00 1.068660000000000139e+02 1.761230000000000018e+03
1.219999999999999973e-01 7.147689999999999877e-01 3.836770000000000014e+00 1.071520000000000010e+02 1.761279999999999973e+03
1.229999999999999982e-01 7.148449999999999527e-01 3.870885000000000353e+00 1.075010000000000048e+02 1.761345000000000027e+03
1.239999999999999991e-01 7.149284999999999668e-01 3.934260000000000090e+00 1.078940000000000055e+02 1.761420000000000073e+03
1.250000000000000000e-01 7.150170000000000137e-01 4.018500000000000405e+00 1.083139999999999930e+02 1.761509999999999991e+03
1.260000000000000009e-01 7.151054999999999495e-01 4.115565000000000140e+00 1.087429999999999950e+02 1.761595000000000027e+03
1.270000000000000018e-01 7.151920000000000499e-01 4.218024999999999913e+00 1.091680000000000064e+02 1.761690000000000055e+03
1.280000000000000027e-01 7.152739999999999654e-01 4.319295000000000329e+00 1.095755000000000052e+02 1.761775000000000091e+03
1.290000000000000036e-01 7.153495000000000825e-01 4.413750000000000284e+00 1.099555000000000007e+02 1.761865000000000009e+03
1.300000000000000044e-01 7.154175000000000395e-01 4.496850000000000236e+00 1.102999999999999972e+02 1.761945000000000164e+03
1.310000000000000053e-01 7.154769999999999186e-01 4.565150000000000041e+00 1.106049999999999898e+02 1.762014999999999873e+03
1.320000000000000062e-01 7.155275000000000940e-01 4.616355000000000430e+00 1.108669999999999902e+02 1.762085000000000036e+03
1.330000000000000071e-01 7.155690000000000106e-01 4.649235000000000007e+00 1.110850000000000080e+02 1.762134999999999991e+03
1.340000000000000080e-01 7.156029999999999891e-01 4.663569999999999993e+00 1.112614999999999981e+02 1.762184999999999945e+03
1.350000000000000089e-01 7.156289999999999596e-01 4.660064999999999458e+00 1.113995000000000033e+02 1.762224999999999909e+03
1.360000000000000098e-01 7.156489999999999796e-01 4.640185000000000670e+00 1.115039999999999907e+02 1.762250000000000000e+03
1.370000000000000107e-01 7.156635000000000080e-01 4.606024999999999814e+00 1.115799999999999983e+02 1.762280000000000200e+03
1.380000000000000115e-01 7.156744999999999912e-01 4.560125000000000206e+00 1.116330000000000098e+02 1.762295000000000073e+03
1.390000000000000124e-01 7.156824999999999992e-01 4.505290000000000461e+00 1.116709999999999923e+02 1.762309999999999945e+03
1.400000000000000133e-01 7.156894999999999785e-01 4.444399999999999906e+00 1.116980000000000075e+02 1.762320000000000164e+03
1.410000000000000142e-01 7.156964999999999577e-01 4.380189999999999806e+00 1.117205000000000013e+02 1.762325000000000045e+03
1.420000000000000151e-01 7.157035000000000480e-01 4.315154999999999852e+00 1.117429999999999950e+02 1.762340000000000146e+03
1.430000000000000160e-01 7.157120000000000148e-01 4.251345000000000596e+00 1.117685000000000031e+02 1.762345000000000027e+03
1.440000000000000169e-01 7.157214999999998994e-01 4.190319999999999823e+00 1.117994999999999948e+02 1.762355000000000018e+03
1.450000000000000178e-01 7.157329999999999526e-01 4.133070000000000022e+00 1.118365000000000009e+02 1.762365000000000009e+03
1.459999999999999909e-01 7.157454999999999234e-01 4.080045000000000144e+00 1.118795000000000073e+02 1.762375000000000000e+03
1.469999999999999918e-01 7.157584999999999642e-01 4.031164999999999665e+00 1.119260000000000019e+02 1.762389999999999873e+03
1.479999999999999927e-01 7.157715000000000050e-01 3.985924999999999940e+00 1.119740000000000038e+02 1.762400000000000091e+03
1.489999999999999936e-01 7.157839999999999758e-01 3.943489999999999718e+00 1.120200000000000102e+02 1.762409999999999854e+03
1.499999999999999944e-01 7.157949999999999591e-01 3.902829999999999799e+00 1.120600000000000023e+02 1.762420000000000073e+03
1.509999999999999953e-01 7.158029999999999671e-01 3.862859999999999960e+00 1.120904999999999916e+02 1.762424999999999955e+03
1.519999999999999962e-01 7.158074999999999299e-01 3.822550000000000114e+00 1.121084999999999923e+02 1.762434999999999945e+03
1.529999999999999971e-01 7.158089999999999176e-01 3.781024999999999636e+00 1.121099999999999994e+02 1.762434999999999945e+03
1.539999999999999980e-01 7.158065000000000122e-01 3.737675000000000303e+00 1.120945000000000107e+02 1.762429999999999836e+03
1.549999999999999989e-01 7.157990000000000741e-01 3.692194999999999894e+00 1.120589999999999975e+02 1.762424999999999955e+03
1.559999999999999998e-01 7.157880000000000908e-01 3.644614999999999938e+00 1.120049999999999955e+02 1.762414999999999964e+03
1.570000000000000007e-01 7.157729999999999926e-01 3.595330000000000137e+00 1.119325000000000045e+02 1.762400000000000091e+03
1.580000000000000016e-01 7.157545000000000712e-01 3.545040000000000191e+00 1.118435000000000059e+02 1.762384999999999991e+03
1.590000000000000024e-01 7.157335000000000225e-01 3.494769999999999932e+00 1.117409999999999997e+02 1.762360000000000127e+03
