# t [s], A [cm^2], U [cm/s], P [cPa], c [cm/s]
1.000000000000000021e-03 4.581585000000000241e-01 3.359649999999998748e-03 1.089234999999999900e+02 1.434619999999999891e+03
2.000000000000000042e-03 4.581525000000000181e-01 1.980775000000000157e-03 1.089050000000000011e+02 1.434610000000000127e+03
3.000000000000000062e-03 4.581939999999999902e-01 8.989769999999999706e-02 1.089859999999999900e+02 1.434634999999999991e+03
4.000000000000000083e-03 4.582349999999999479e-01 1.778138499999999955e-01 1.090895000000000010e+02 1.434670000000000073e+03
5.000000000000000104e-03 4.582239999999999647e-01 1.607765000000000166e-01 1.090614999999999952e+02 1.434670000000000073e+03
6.000000000000000125e-03 4.581800000000000317e-01 6.888350000000001416e-02 1.088905000000000030e+02 1.434630000000000109e+03
7.000000000000000146e-03 4.581339999999999857e-01 -3.184149999999996705e-02 1.086400000000000006e+02 1.434569999999999936e+03
8.000000000000000167e-03 4.580689999999999484e-01 -1.805364999999999887e-01 1.082794999999999987e+02 1.434490000000000009e+03
9.000000000000001055e-03 4.579585000000000461e-01 -4.361650000000000249e-01 1.077280000000000086e+02 1.434355000000000018e+03
1.000000000000000194e-02 4.577989999999999560e-01 -8.020649999999999169e-01 1.069449999999999932e+02 1.434160000000000082e+03
1.099999999999999936e-02 4.575844999999999496e-01 -1.276215000000000099e+00 1.058979999999999961e+02 1.433900000000000091e+03
1.200000000000000025e-02 4.573034999999999739e-01 -1.868040000000000145e+00 1.045440000000000111e+02 1.433549999999999955e+03
1.300000000000000114e-02 4.569555000000000144e-01 -2.556204999999999838e+00 1.028709999999999951e+02 1.433115000000000009e+03
1.400000000000000203e-02 4.565675000000000150e-01 -3.257304999999999673e+00 1.009470499999999902e+02 1.432590000000000146e+03
1.499999999999999944e-02 4.561824999999999908e-01 -3.845324999999999882e+00 9.891779999999999973e+01 1.432025000000000091e+03
1.600000000000000033e-02 4.558409999999999962e-01 -4.202444999999999986e+00 9.695385000000000275e+01 1.431449999999999818e+03
1.700000000000000122e-02 4.555629999999999957e-01 -4.261594999999999800e+00 9.518844999999998890e+01 1.430905000000000200e+03
1.800000000000000211e-02 4.553460000000000285e-01 -4.021104499999999859e+00 9.368160000000000309e+01 1.430400000000000091e+03
1.900000000000000300e-02 4.551695000000000046e-01 -3.534540000000000237e+00 9.241415000000000646e+01 1.429954999999999927e+03
2.000000000000000042e-02 4.550029999999999908e-01 -2.886565499999999673e+00 9.130590000000000828e+01 1.429539999999999964e+03
2.100000000000000130e-02 4.548170000000000268e-01 -2.164839999999999876e+00 9.024859999999999616e+01 1.429139999999999873e+03
2.200000000000000219e-02 4.545939999999999426e-01 -1.435789999999999900e+00 8.914164999999999850e+01 1.428735000000000127e+03
2.299999999999999961e-02 4.543289999999999829e-01 -7.309500000000002107e-01 8.792054999999999154e+01 1.428300000000000182e+03
2.400000000000000050e-02 4.540290000000000159e-01 -4.760499999999989740e-02 8.656880000000001019e+01 1.427840000000000146e+03
2.500000000000000139e-02 4.537080000000000002e-01 6.379450000000002063e-01 8.511090000000000089e+01 1.427355000000000018e+03
2.600000000000000228e-02 4.533809999999999785e-01 1.351395000000000124e+00 8.359219999999999118e+01 1.426849999999999909e+03
2.700000000000000316e-02 4.530579999999999607e-01 2.103464999999999918e+00 8.205485000000000184e+01 1.426329999999999927e+03
2.800000000000000058e-02 4.527375000000000149e-01 2.880375000000000352e+00 8.051890000000000214e+01 1.425815000000000055e+03
2.900000000000000147e-02 4.524114999999999664e-01 3.643014999999999670e+00 7.897235000000000582e+01 1.425289999999999964e+03
3.000000000000000236e-02 4.520640000000000214e-01 4.333700000000000330e+00 7.737255000000000393e+01 1.424750000000000000e+03
3.099999999999999978e-02 4.516780000000000239e-01 4.887299999999999756e+00 7.565569999999999595e+01 1.424180000000000064e+03
3.200000000000000067e-02 4.512384999999999868e-01 5.244945000000000412e+00 7.375265000000000271e+01 1.423569999999999936e+03
3.300000000000000155e-02 4.507349999999999968e-01 5.366299999999999848e+00 7.160714999999999009e+01 1.422904999999999973e+03
3.400000000000000244e-02 4.501689999999999858e-01 5.238615000000000244e+00 6.919229999999998881e+01 1.422170000000000073e+03
3.500000000000000333e-02 4.495485000000000175e-01 4.879925000000000068e+00 6.652100000000000080e+01 1.421369999999999891e+03
3.600000000000000422e-02 4.488935000000000564e-01 4.336649999999999672e+00 6.364914999999999878e+01 1.420514999999999873e+03
3.700000000000000511e-02 4.482285000000000297e-01 3.675799999999999734e+00 6.066989999999999839e+01 1.419619999999999891e+03
3.799999999999999906e-02 4.475824999999999942e-01 2.974699999999999900e+00 5.770230000000000103e+01 1.418730000000000018e+03
3.899999999999999994e-02 4.469819999999999904e-01 2.310575000000000045e+00 5.487640000000000384e+01 1.417860000000000127e+03
4.000000000000000083e-02 4.464525000000000299e-01 1.752029999999999976e+00 5.231884999999999764e+01 1.417059999999999945e+03
4.100000000000000172e-02 4.460115000000000052e-01 1.353879999999999750e+00 5.014074999999999704e+01 1.416345000000000027e+03
4.200000000000000261e-02 4.456734999999999447e-01 1.154869999999999841e+00 4.842954999999999899e+01 1.415755000000000109e+03
4.300000000000000350e-02 4.454464999999999675e-01 1.178325000000000067e+00 4.724500000000000455e+01 1.415305000000000064e+03
4.400000000000000439e-02 4.453325000000000200e-01 1.434634999999999661e+00 4.661955000000000382e+01 1.415009999999999991e+03
4.499999999999999833e-02 4.453310000000000324e-01 1.924705000000000110e+00 4.656114999999999782e+01 1.414875000000000000e+03
4.599999999999999922e-02 4.454374999999999862e-01 2.643440000000000012e+00 4.705859999999999843e+01 1.414909999999999854e+03
4.700000000000000011e-02 4.456470000000000153e-01 3.582446000000000019e+00 4.808675000000000210e+01 1.415105000000000018e+03
4.800000000000000100e-02 4.459539999999999615e-01 4.731659999999999755e+00 4.961164999999999736e+01 1.415450000000000045e+03
4.900000000000000189e-02 4.463509999999999978e-01 6.079685500000000076e+00 5.159409999999999741e+01 1.415944999999999936e+03
5.000000000000000278e-02 4.468294999999999906e-01 7.613132999999999484e+00 5.399119999999999919e+01 1.416570000000000164e+03
5.100000000000000366e-02 4.473820000000000019e-01 9.315679999999998628e+00 5.675744999999999152e+01 1.417315000000000055e+03
5.200000000000000455e-02 4.479980000000000073e-01 1.116667999999999950e+01 5.984430000000000405e+01 1.418170000000000073e+03
5.300000000000000544e-02 4.486680000000000113e-01 1.314108500000000035e+01 6.319965000000000543e+01 1.419119999999999891e+03
5.399999999999999939e-02 4.493789999999999729e-01 1.520927999999999969e+01 6.676820000000000732e+01 1.420144999999999982e+03
5.500000000000000028e-02 4.501204999999999790e-01 1.733820000000000050e+01 7.049184999999999945e+01 1.421235000000000127e+03
5.600000000000000117e-02 4.508790000000000298e-01 1.949278999999999940e+01 7.431159999999999854e+01 1.422365000000000009e+03
5.700000000000000205e-02 4.516424999999999468e-01 2.163804999999999978e+01 7.816939999999999600e+01 1.423525000000000091e+03
5.800000000000000294e-02 4.524015000000000120e-01 2.374089999999999989e+01 8.201085000000000491e+01 1.424695000000000164e+03
5.900000000000000383e-02 4.531450000000000200e-01 2.577205000000000013e+01 8.578745000000000687e+01 1.425865000000000009e+03
6.000000000000000472e-02 4.538679999999999937e-01 2.770710000000000051e+01 8.945914999999999395e+01 1.427014999999999873e+03
6.099999999999999867e-02 4.545629999999999948e-01 2.952765000000000128e+01 9.299520000000001119e+01 1.428139999999999873e+03
6.199999999999999956e-02 4.552285000000000359e-01 3.122140000000000271e+01 9.637590000000000146e+01 1.429234999999999900e+03
6.300000000000000044e-02 4.558639999999999914e-01 3.278215000000000146e+01 9.959215000000000373e+01 1.430279999999999973e+03
6.400000000000000133e-02 4.564694999999999725e-01 3.420895000000000152e+01 1.026443500000000029e+02 1.431289999999999964e+03
6.500000000000000222e-02 4.570480000000000098e-01 3.550554999999999950e+01 1.055408999999999935e+02 1.432260000000000218e+03
6.600000000000000311e-02 4.576029999999999820e-01 3.667945000000000277e+01 1.082986999999999966e+02 1.433184999999999945e+03
6.700000000000000400e-02 4.581385000000000041e-01 3.774105000000000132e+01 1.109385000000000048e+02 1.434079999999999927e+03
6.800000000000000488e-02 4.586599999999999566e-01 3.870260000000000389e+01 1.134849999999999994e+02 1.434945000000000164e+03
6.900000000000000577e-02 4.591724999999999834e-01 3.957750000000000057e+01 1.159639999999999986e+02 1.435789999999999964e+03
7.000000000000000666e-02 4.596799999999999775e-01 4.037975000000000136e+01 1.184019999999999868e+02 1.436615000000000009e+03
7.100000000000000755e-02 4.601880000000000415e-01 4.112284999999999968e+01 1.208234999999999957e+02 1.437434999999999945e+03
7.200000000000000844e-02 4.606989999999999696e-01 4.181940000000000168e+01 1.232489999999999952e+02 1.438250000000000000e+03
7.300000000000000933e-02 4.612169999999999881e-01 4.248045000000000471e+01 1.256959999999999980e+02 1.439074999999999818e+03
7.399999999999999634e-02 4.617434999999999734e-01 4.311459999999999582e+01 1.281765000000000043e+02 1.439894999999999982e+03
7.499999999999999722e-02 4.622789999999999955e-01 4.372785000000000366e+01 1.306959999999999980e+02 1.440730000000000018e+03
7.599999999999999811e-02 4.628229999999999844e-01 4.432300000000000040e+01 1.332549999999999955e+02 1.441579999999999927e+03
7.699999999999999900e-02 4.633730000000000349e-01 4.489960000000000662e+01 1.358455000000000155e+02 1.442430000000000064e+03
7.799999999999999989e-02 4.639259999999999495e-01 4.545385000000000275e+01 1.384524999999999864e+02 1.443289999999999964e+03
7.900000000000000078e-02 4.644774999999999876e-01 4.597905000000000086e+01 1.410589999999999975e+02 1.444144999999999982e+03
8.000000000000000167e-02 4.650225000000000053e-01 4.646614999999999895e+01 1.436390000000000100e+02 1.445000000000000000e+03
8.100000000000000255e-02 4.655549999999999966e-01 4.690404999999999802e+01 1.461650000000000205e+02 1.445835000000000036e+03
8.200000000000000344e-02 4.660684999999999967e-01 4.728079999999999927e+01 1.486069999999999993e+02 1.446654999999999973e+03
8.300000000000000433e-02 4.665569999999999995e-01 4.758404999999999774e+01 1.509339999999999975e+02 1.447440000000000055e+03
8.400000000000000522e-02 4.670149999999999579e-01 4.780204999999999416e+01 1.531179999999999950e+02 1.448180000000000064e+03
8.500000000000000611e-02 4.674369999999999914e-01 4.792414999999999736e+01 1.551309999999999718e+02 1.448880000000000109e+03
8.600000000000000699e-02 4.678185000000000260e-01 4.794155000000000655e+01 1.569505000000000052e+02 1.449519999999999982e+03
8.700000000000000788e-02 4.681560000000000166e-01 4.784779999999999944e+01 1.585584999999999809e+02 1.450095000000000027e+03
8.800000000000000877e-02 4.684484999999999899e-01 4.763880000000000337e+01 1.599410000000000025e+02 1.450605000000000018e+03
8.899999999999999578e-02 4.686939999999999440e-01 4.731324999999999648e+01 1.610919999999999845e+02 1.451045000000000073e+03
8.999999999999999667e-02 4.688919999999999755e-01 4.687284999999999968e+01 1.620099999999999909e+02 1.451414999999999964e+03
9.099999999999999756e-02 4.690449999999999897e-01 4.632184999999999775e+01 1.627004999999999768e+02 1.451710000000000036e+03
9.199999999999999845e-02 4.691540000000000155e-01 4.566710000000000491e+01 1.631730000000000018e+02 1.451934999999999945e+03
9.299999999999999933e-02 4.692230000000000012e-01 4.491774999999999807e+01 1.634420000000000073e+02 1.452094999999999800e+03
9.400000000000000022e-02 4.692554999999999921e-01 4.408485000000000298e+01 1.635269999999999868e+02 1.452195000000000164e+03
9.500000000000000111e-02 4.692564999999999653e-01 4.318124999999999858e+01 1.634505000000000052e+02 1.452240000000000009e+03
9.600000000000000200e-02 4.692300000000000360e-01 4.222064999999999912e+01 1.632364999999999782e+02 1.452230000000000018e+03
9.700000000000000289e-02 4.691815000000000291e-01 4.121779999999999688e+01 1.629114999999999895e+02 1.452184999999999945e+03
9.800000000000000377e-02 4.691159999999999775e-01 4.018730000000000047e+01 1.625000000000000000e+02 1.452099999999999909e+03
9.900000000000000466e-02 4.690394999999999981e-01 3.914365000000000094e+01 1.620305000000000177e+02 1.451994999999999891e+03
1.000000000000000056e-01 4.689554999999999696e-01 3.810074999999999790e+01 1.615244999999999891e+02 1.451869999999999891e+03
1.010000000000000064e-01 4.688694999999999946e-01 3.707110000000000127e+01 1.610065000000000168e+02 1.451730000000000018e+03
1.020000000000000073e-01 4.687839999999999785e-01 3.606579999999999586e+01 1.604959999999999809e+02 1.451590000000000146e+03
1.030000000000000082e-01 4.687025000000000219e-01 3.509404999999999575e+01 1.600074999999999932e+02 1.451445000000000164e+03
1.040000000000000091e-01 4.686274999999999746e-01 3.416295000000000215e+01 1.595550000000000068e+02 1.451305000000000064e+03
1.050000000000000100e-01 4.685605000000000464e-01 3.327729999999999677e+01 1.591469999999999914e+02 1.451180000000000064e+03
1.059999999999999970e-01 4.685019999999999740e-01 3.243939999999999912e+01 1.587864999999999895e+02 1.451059999999999945e+03
1.069999999999999979e-01 4.684515000000000207e-01 3.164959999999999951e+01 1.584749999999999943e+02 1.450954999999999927e+03
1.079999999999999988e-01 4.684085000000000054e-01 3.090585000000000093e+01 1.582085000000000150e+02 1.450860000000000127e+03
1.089999999999999997e-01 4.683714999999999962e-01 3.020400000000000063e+01 1.579799999999999898e+02 1.450769999999999982e+03
1.100000000000000006e-01 4.683384999999999909e-01 2.953869999999999862e+01 1.577805000000000177e+02 1.450695000000000164e+03
1.110000000000000014e-01 4.683064999999999589e-01 2.890275000000000105e+01 1.575964999999999918e+02 1.450625000000000000e+03
1.120000000000000023e-01 4.682739999999999680e-01 2.828840000000000288e+01 1.574159999999999968e+02 1.450555000000000064e+03
1.130000000000000032e-01 4.682370000000000143e-01 2.768725000000000236e+01 1.572235000000000014e+02 1.450485000000000127e+03
1.140000000000000041e-01 4.681929999999999703e-01 2.709074999999999989e+01 1.570055000000000121e+02 1.450405000000000200e+03
1.150000000000000050e-01 4.681389999999999718e-01 2.649054999999999893e+01 1.567470000000000141e+02 1.450319999999999936e+03
1.160000000000000059e-01 4.680734999999999757e-01 2.587904999999999944e+01 1.564359999999999786e+02 1.450220000000000027e+03
1.170000000000000068e-01 4.679940000000000211e-01 2.524949999999999761e+01 1.560614999999999952e+02 1.450105000000000018e+03
1.180000000000000077e-01 4.678984999999999950e-01 2.459649999999999892e+01 1.556144999999999925e+02 1.449965000000000146e+03
1.190000000000000085e-01 4.677875000000000227e-01 2.391600000000000037e+01 1.550894999999999868e+02 1.449805000000000064e+03
1.200000000000000094e-01 4.676595000000000057e-01 2.320570000000000022e+01 1.544825000000000159e+02 1.449625000000000000e+03
1.209999999999999964e-01 4.675144999999999440e-01 2.246484999999999843e+01 1.537944999999999993e+02 1.449414999999999964e+03
1.219999999999999973e-01 4.673540000000000472e-01 2.169460000000000122e+01 1.530289999999999964e+02 1.449184999999999945e+03
1.229999999999999982e-01 4.671790000000000109e-01 2.089780000000000015e+01 1.521899999999999977e+02 1.448930000000000064e+03
1.239999999999999991e-01 4.669924999999999771e-01 2.007880000000000109e+01 1.512880000000000109e+02 1.448659999999999854e+03
1.250000000000000000e-01 4.667955000000000298e-01 1.924350000000000094e+01 1.503335000000000150e+02 1.448369999999999891e+03
1.260000000000000009e-01 4.665915000000000479e-01 1.839890000000000114e+01 1.493399999999999750e+02 1.448065000000000055e+03
1.270000000000000018e-01 4.663835000000000064e-01 1.755315000000000225e+01 1.483215000000000146e+02 1.447750000000000000e+03
1.280000000000000027e-01 4.661754999999999649e-01 1.671504999999999797e+01 1.472944999999999993e+02 1.447430000000000064e+03
1.290000000000000036e-01 4.659689999999999666e-01 1.589358500000000163e+01 1.462744999999999891e+02 1.447105000000000018e+03
1.300000000000000044e-01 4.657679999999999598e-01 1.509792500000000004e+01 1.452780000000000200e+02 1.446785000000000082e+03
1.310000000000000053e-01 4.655759999999999899e-01 1.433689000000000036e+01 1.443204999999999814e+02 1.446480000000000018e+03
1.320000000000000062e-01 4.653960000000000319e-01 1.361866500000000002e+01 1.434155000000000086e+02 1.446184999999999945e+03
1.330000000000000071e-01 4.652295000000000180e-01 1.295057500000000061e+01 1.425754999999999768e+02 1.445904999999999973e+03
1.340000000000000080e-01 4.650784999999999503e-01 1.233867500000000028e+01 1.418114999999999952e+02 1.445644999999999982e+03
1.350000000000000089e-01 4.649449999999999972e-01 1.178766500000000050e+01 1.411310000000000002e+02 1.445409999999999854e+03
1.360000000000000098e-01 4.648289999999999367e-01 1.130085500000000032e+01 1.405395000000000039e+02 1.445194999999999936e+03
1.370000000000000107e-01 4.647320000000000340e-01 1.087985999999999898e+01 1.400389999999999873e+02 1.445014999999999873e+03
1.380000000000000115e-01 4.646520000000000095e-01 1.052462500000000034e+01 1.396295000000000073e+02 1.444855000000000018e+03
1.390000000000000124e-01 4.645899999999999475e-01 1.023374500000000076e+01 1.393079999999999927e+02 1.444719999999999800e+03
1.400000000000000133e-01 4.645440000000000125e-01 1.000421500000000030e+01 1.390690000000000168e+02 1.444619999999999891e+03
1.410000000000000142e-01 4.645124999999999948e-01 9.831730000000000302e+00 1.389044999999999845e+02 1.444534999999999854e+03
1.420000000000000151e-01 4.644929999999999892e-01 9.711079999999999046e+00 1.388075000000000045e+02 1.444480000000000018e+03
1.430000000000000160e-01 4.644845000000000224e-01 9.636074999999999946e+00 1.387655000000000030e+02 1.444434999999999945e+03
1.440000000000000169e-01 4.644834999999999936e-01 9.600024999999998698e+00 1.387680000000000007e+02 1.444414999999999964e+03
1.450000000000000178e-01 4.644884999999999708e-01 9.595850000000000435e+00 1.388040000000000020e+02 1.444394999999999982e+03
1.459999999999999909e-01 4.644970000000000487e-01 9.616509999999999891e+00 1.388615000000000066e+02 1.444394999999999982e+03
1.469999999999999918e-01 4.645064999999999888e-01 9.655039999999999623e+00 1.389295000000000186e+02 1.444400000000000091e+03
1.479999999999999927e-01 4.645164999999999988e-01 9.704905000000000115e+00 1.389985000000000070e+02 1.444404999999999973e+03
1.489999999999999936e-01 4.645239999999999370e-01 9.760059999999999292e+00 1.390600000000000023e+02 1.444414999999999964e+03
1.499999999999999944e-01 4.645279999999999965e-01 9.815179999999999794e+00 1.391059999999999945e+02 1.444420000000000073e+03
1.509999999999999953e-01 4.645274999999999821e-01 9.865825000000000955e+00 1.391310000000000002e+02 1.444420000000000073e+03
1.519999999999999962e-01 4.645219999999999905e-01 9.908335000000001003e+00 1.391310000000000002e+02 1.444420000000000073e+03
1.529999999999999971e-01 4.645110000000000072e-01 9.939859999999999474e+00 1.391039999999999850e+02 1.444404999999999973e+03
1.539999999999999980e-01 4.644944999999999768e-01 9.958684999999999121e+00 1.390484999999999900e+02 1.444389999999999873e+03
1.549999999999999989e-01 4.644730000000000247e-01 9.963729999999999976e+00 1.389650000000000034e+02 1.444364999999999782e+03
1.559999999999999998e-01 4.644460000000000255e-01 9.954720000000000013e+00 1.388559999999999945e+02 1.444329999999999927e+03
1.570000000000000007e-01 4.644160000000000510e-01 9.932179999999998898e+00 1.387239999999999895e+02 1.444295000000000073e+03
1.580000000000000016e-01 4.643815000000000026e-01 9.897149999999999892e+00 1.385720000000000027e+02 1.444250000000000000e+03
1.590000000000000024e-01 4.643450000000000077e-01 9.851224999999999454e+00 1.384050000000000011e+02 1.444199999999999818e+03
