# t [s], A [cm^2], U [cm/s], P [cPa], c [cm/s]
1.000000000000000021e-03 1.572675000000000045e-01 3.352229999999999932e-01 1.033460000000000036e+02 1.740549999999999955e+03
2.000000000000000042e-03 1.572410000000000196e-01 1.977377999999999858e+00 1.002875999999999976e+02 1.740289999999999964e+03
3.000000000000000062e-03 1.571325000000000083e-01 3.972995999999999750e+00 9.637299999999999045e+01 1.739309999999999945e+03
4.000000000000000083e-03 1.569659999999999944e-01 6.166774999999999451e+00 9.201664999999999850e+01 1.737829999999999927e+03
5.000000000000000104e-03 1.567699999999999927e-01 8.505015000000000214e+00 8.789750000000000796e+01 1.736105000000000018e+03
6.000000000000000125e-03 1.565670000000000117e-01 1.088756500000000038e+01 8.438139999999999930e+01 1.734339999999999918e+03
7.000000000000000146e-03 1.563694999999999946e-01 1.316683500000000073e+01 8.146200000000000330e+01 1.732634999999999991e+03
8.000000000000000167e-03 1.561815000000000009e-01 1.522063999999999950e+01 7.895060000000000855e+01 1.731045000000000073e+03
9.000000000000001055e-03 1.560075000000000212e-01 1.701105000000000089e+01 7.672434999999998695e+01 1.729585000000000036e+03
1.000000000000000194e-02 1.558505000000000029e-01 1.855825000000000102e+01 7.478855000000000075e+01 1.728280000000000200e+03
1.099999999999999936e-02 1.557125000000000037e-01 1.988500000000000156e+01 7.316835000000000377e+01 1.727144999999999982e+03
1.200000000000000025e-02 1.555934999999999957e-01 2.100290000000000035e+01 7.184544999999999959e+01 1.726184999999999945e+03
1.300000000000000114e-02 1.554935000000000067e-01 2.192229999999999990e+01 7.077859999999999729e+01 1.725375000000000000e+03
1.400000000000000203e-02 1.554094999999999782e-01 2.265354999999999919e+01 6.992170000000000130e+01 1.724715000000000146e+03
1.499999999999999944e-02 1.553410000000000069e-01 2.320589999999999975e+01 6.922155000000000769e+01 1.724174999999999955e+03
1.600000000000000033e-02 1.552835000000000187e-01 2.359709999999999752e+01 6.863505000000000678e+01 1.723735000000000127e+03
1.700000000000000122e-02 1.552364999999999995e-01 2.386925000000000097e+01 6.817064999999999486e+01 1.723384999999999991e+03
1.800000000000000211e-02 1.552014999999999922e-01 2.409195000000000064e+01 6.791599999999999682e+01 1.723130000000000109e+03
1.900000000000000300e-02 1.551819999999999866e-01 2.434604999999999819e+01 6.801599999999999113e+01 1.722994999999999891e+03
2.000000000000000042e-02 1.551815000000000000e-01 2.469500000000000028e+01 6.860755000000000337e+01 1.723009999999999991e+03
2.100000000000000130e-02 1.552040000000000086e-01 2.516129999999999711e+01 6.974649999999999750e+01 1.723204999999999927e+03
2.200000000000000219e-02 1.552485000000000115e-01 2.571824999999999761e+01 7.136645000000000039e+01 1.723579999999999927e+03
2.299999999999999961e-02 1.553120000000000056e-01 2.629894999999999783e+01 7.328419999999999845e+01 1.724105000000000018e+03
2.400000000000000050e-02 1.553859999999999963e-01 2.681799999999999784e+01 7.524645000000001005e+01 1.724720000000000027e+03
2.500000000000000139e-02 1.554635000000000045e-01 2.719529999999999959e+01 7.699554999999999438e+01 1.725365000000000009e+03
2.600000000000000228e-02 1.555340000000000056e-01 2.737624999999999886e+01 7.833189999999999031e+01 1.725960000000000036e+03
2.700000000000000316e-02 1.555924999999999947e-01 2.734224999999999994e+01 7.915404999999999802e+01 1.726454999999999927e+03
2.800000000000000058e-02 1.556345000000000089e-01 2.711010000000000275e+01 7.946970000000000312e+01 1.726825000000000045e+03
2.900000000000000147e-02 1.556605000000000072e-01 2.672250000000000014e+01 7.937684999999999036e+01 1.727065000000000055e+03
3.000000000000000236e-02 1.556730000000000058e-01 2.623385000000000034e+01 7.902500000000000568e+01 1.727179999999999836e+03
3.099999999999999978e-02 1.556750000000000078e-01 2.569514999999999816e+01 7.857014999999999816e+01 1.727215000000000146e+03
3.200000000000000067e-02 1.556720000000000048e-01 2.514285000000000281e+01 7.813609999999999900e+01 1.727200000000000045e+03
3.300000000000000155e-02 1.556669999999999998e-01 2.459394999999999953e+01 7.779110000000000014e+01 1.727164999999999964e+03
3.400000000000000244e-02 1.556620000000000226e-01 2.404720000000000013e+01 7.754425000000000523e+01 1.727130000000000109e+03
3.500000000000000333e-02 1.556569999999999898e-01 2.348879999999999768e+01 7.735734999999999673e+01 1.727095000000000027e+03
3.600000000000000422e-02 1.556514999999999982e-01 2.290109999999999957e+01 7.716779999999999973e+01 1.727054999999999836e+03
3.700000000000000511e-02 1.556444999999999912e-01 2.227089999999999748e+01 7.691474999999999795e+01 1.727000000000000000e+03
3.799999999999999906e-02 1.556345000000000089e-01 2.159615000000000151e+01 7.656109999999999616e+01 1.726924999999999955e+03
3.899999999999999994e-02 1.556204999999999949e-01 2.088915000000000077e+01 7.610814999999999486e+01 1.726809999999999945e+03
4.000000000000000083e-02 1.556025000000000047e-01 2.017640000000000100e+01 7.559890000000000043e+01 1.726675000000000182e+03
4.100000000000000172e-02 1.555834999999999857e-01 1.949415000000000120e+01 7.511050000000000182e+01 1.726525000000000091e+03
4.200000000000000261e-02 1.555664999999999965e-01 1.888219999999999743e+01 7.473839999999999861e+01 1.726384999999999991e+03
4.300000000000000350e-02 1.555535000000000112e-01 1.837624999999999886e+01 7.457574999999999932e+01 1.726280000000000200e+03
4.400000000000000439e-02 1.555489999999999928e-01 1.800114999999999910e+01 7.469319999999999027e+01 1.726235000000000127e+03
4.499999999999999833e-02 1.555544999999999844e-01 1.776604999999999990e+01 7.512334999999998786e+01 1.726275000000000091e+03
4.599999999999999922e-02 1.555715000000000015e-01 1.766264999999999930e+01 7.585290000000000532e+01 1.726404999999999973e+03
4.700000000000000011e-02 1.555999999999999883e-01 1.766610000000000014e+01 7.682335000000000491e+01 1.726625000000000000e+03
4.800000000000000100e-02 1.556369999999999976e-01 1.773864999999999981e+01 7.793965000000000032e+01 1.726920000000000073e+03
4.900000000000000189e-02 1.556804999999999994e-01 1.783509999999999707e+01 7.908404999999999063e+01 1.727269999999999982e+03
5.000000000000000278e-02 1.557255000000000167e-01 1.790804999999999936e+01 8.013230000000000075e+01 1.727634999999999991e+03
5.100000000000000366e-02 1.557669999999999888e-01 1.791349999999999909e+01 8.096925000000000239e+01 1.727970000000000027e+03
5.200000000000000455e-02 1.558019999999999960e-01 1.781514999999999915e+01 8.150190000000000623e+01 1.728255000000000109e+03
5.300000000000000544e-02 1.558255000000000057e-01 1.758680000000000021e+01 8.166720000000000823e+01 1.728460000000000036e+03
5.399999999999999939e-02 1.558364999999999889e-01 1.721369999999999933e+01 8.143545000000000300e+01 1.728545000000000073e+03
5.500000000000000028e-02 1.558319999999999983e-01 1.669200000000000017e+01 8.080880000000000507e+01 1.728519999999999982e+03
5.600000000000000117e-02 1.558114999999999917e-01 1.602749999999999986e+01 7.981645000000000323e+01 1.728355000000000018e+03
5.700000000000000205e-02 1.557764999999999844e-01 1.523359999999999914e+01 7.850785000000000480e+01 1.728075000000000045e+03
5.800000000000000294e-02 1.557275000000000187e-01 1.432934999999999981e+01 7.694525000000000148e+01 1.727684999999999945e+03
5.900000000000000383e-02 1.556669999999999998e-01 1.333745000000000047e+01 7.519689999999999941e+01 1.727190000000000055e+03
6.000000000000000472e-02 1.555969999999999853e-01 1.228286500000000103e+01 7.333214999999999861e+01 1.726619999999999891e+03
6.099999999999999867e-02 1.555205000000000060e-01 1.119183500000000109e+01 7.141790000000000305e+01 1.726000000000000000e+03
6.199999999999999956e-02 1.554389999999999938e-01 1.009140499999999996e+01 6.951725000000000421e+01 1.725335000000000036e+03
6.300000000000000044e-02 1.553565000000000085e-01 9.008935000000001025e+00 6.768925000000000125e+01 1.724660000000000082e+03
6.400000000000000133e-02 1.552759999999999974e-01 7.972220000000000084e+00 6.598954999999999416e+01 1.724000000000000000e+03
6.500000000000000222e-02 1.551985000000000170e-01 7.009335000000000093e+00 6.447124999999999773e+01 1.723360000000000127e+03
6.600000000000000311e-02 1.551270000000000149e-01 6.148229999999999862e+00 6.318550000000000466e+01 1.722780000000000200e+03
6.700000000000000400e-02 1.550644999999999940e-01 5.416375000000000384e+00 6.218160000000000309e+01 1.722259999999999991e+03
6.800000000000000488e-02 1.550134999999999985e-01 4.840049999999999741e+00 6.150629999999999598e+01 1.721835000000000036e+03
6.900000000000000577e-02 1.549750000000000016e-01 4.443444999999999645e+00 6.120244999999999891e+01 1.721514999999999873e+03
7.000000000000000666e-02 1.549524999999999930e-01 4.247704999999999842e+00 6.130740000000000123e+01 1.721319999999999936e+03
7.100000000000000755e-02 1.549470000000000014e-01 4.269940000000000069e+00 6.185060000000000002e+01 1.721259999999999991e+03
7.200000000000000844e-02 1.549605000000000010e-01 4.522344999999999615e+00 6.285190000000000055e+01 1.721355000000000018e+03
7.300000000000000933e-02 1.549935000000000063e-01 5.011490000000000222e+00 6.431999999999999318e+01 1.721610000000000127e+03
7.399999999999999634e-02 1.550469999999999904e-01 5.737899999999999778e+00 6.625114999999999554e+01 1.722034999999999854e+03
7.499999999999999722e-02 1.551214999999999955e-01 6.695934999999999526e+00 6.862919999999999732e+01 1.722625000000000000e+03
7.599999999999999811e-02 1.552155000000000062e-01 7.873974999999999724e+00 7.142570000000000618e+01 1.723375000000000000e+03
7.699999999999999900e-02 1.553289999999999949e-01 9.254974999999999952e+00 7.460150000000000148e+01 1.724289999999999964e+03
7.799999999999999989e-02 1.554610000000000158e-01 1.081710999999999956e+01 7.810835000000000150e+01 1.725360000000000127e+03
7.900000000000000078e-02 1.556084999999999829e-01 1.253482999999999947e+01 8.189135000000000275e+01 1.726559999999999945e+03
8.000000000000000167e-02 1.557705000000000062e-01 1.437985000000000113e+01 8.589144999999999186e+01 1.727875000000000000e+03
8.100000000000000255e-02 1.559439999999999993e-01 1.632219999999999871e+01 9.004805000000000348e+01 1.729295000000000073e+03
8.200000000000000344e-02 1.561259999999999870e-01 1.833169999999999789e+01 9.430180000000000007e+01 1.730789999999999964e+03
8.300000000000000433e-02 1.563154999999999961e-01 2.037845000000000084e+01 9.859624999999999773e+01 1.732349999999999909e+03
8.400000000000000522e-02 1.565090000000000092e-01 2.243424999999999869e+01 1.028806000000000012e+02 1.733949999999999818e+03
8.500000000000000611e-02 1.567040000000000100e-01 2.447334999999999994e+01 1.071119500000000073e+02 1.735565000000000055e+03
8.600000000000000699e-02 1.568994999999999973e-01 2.647289999999999921e+01 1.112535000000000025e+02 1.737190000000000055e+03
8.700000000000000788e-02 1.570930000000000104e-01 2.841369999999999862e+01 1.152789999999999964e+02 1.738804999999999836e+03
8.800000000000000877e-02 1.572830000000000061e-01 3.028024999999999878e+01 1.191699999999999875e+02 1.740394999999999982e+03
8.899999999999999578e-02 1.574689999999999979e-01 3.206114999999999782e+01 1.229180000000000064e+02 1.741954999999999927e+03
8.999999999999999667e-02 1.576500000000000123e-01 3.374880000000000280e+01 1.265199999999999960e+02 1.743480000000000018e+03
9.099999999999999756e-02 1.578260000000000218e-01 3.533899999999999864e+01 1.299819999999999993e+02 1.744964999999999918e+03
9.199999999999999845e-02 1.579964999999999842e-01 3.683070000000000022e+01 1.333145000000000095e+02 1.746410000000000082e+03
9.299999999999999933e-02 1.581615000000000104e-01 3.822549999999999670e+01 1.365314999999999941e+02 1.747809999999999945e+03
9.400000000000000022e-02 1.583220000000000183e-01 3.952684999999999604e+01 1.396485000000000127e+02 1.749175000000000182e+03
9.500000000000000111e-02 1.584785000000000221e-01 4.073940000000000339e+01 1.426820000000000164e+02 1.750505000000000109e+03
9.600000000000000200e-02 1.586305000000000076e-01 4.186860000000000070e+01 1.456485000000000127e+02 1.751799999999999955e+03
9.700000000000000289e-02 1.587795000000000178e-01 4.291980000000000217e+01 1.485589999999999975e+02 1.753075000000000045e+03
9.800000000000000377e-02 1.589260000000000117e-01 4.389789999999999992e+01 1.514245000000000232e+02 1.754329999999999927e+03
9.900000000000000466e-02 1.590695000000000026e-01 4.480679999999999552e+01 1.542500000000000000e+02 1.755559999999999945e+03
1.000000000000000056e-01 1.592109999999999914e-01 4.564934999999999832e+01 1.570364999999999895e+02 1.756779999999999973e+03
1.010000000000000064e-01 1.593509999999999927e-01 4.642695000000000505e+01 1.597800000000000011e+02 1.757974999999999909e+03
1.020000000000000073e-01 1.594880000000000186e-01 4.713960000000000150e+01 1.624745000000000061e+02 1.759154999999999973e+03
1.030000000000000082e-01 1.596230000000000149e-01 4.778580000000000183e+01 1.651069999999999993e+02 1.760315000000000055e+03
1.040000000000000091e-01 1.597544999999999937e-01 4.836285000000000167e+01 1.676649999999999920e+02 1.761454999999999927e+03
1.050000000000000100e-01 1.598829999999999973e-01 4.886719999999999686e+01 1.701310000000000002e+02 1.762559999999999945e+03
1.059999999999999970e-01 1.600070000000000103e-01 4.929425000000000523e+01 1.724869999999999948e+02 1.763630000000000109e+03
1.069999999999999979e-01 1.601265000000000049e-01 4.963915000000000077e+01 1.747155000000000200e+02 1.764664999999999964e+03
1.079999999999999988e-01 1.602399999999999936e-01 4.989690000000000225e+01 1.767984999999999900e+02 1.765650000000000091e+03
1.089999999999999997e-01 1.603475000000000039e-01 5.006255000000000166e+01 1.787194999999999823e+02 1.766579999999999927e+03
1.100000000000000006e-01 1.604470000000000063e-01 5.013179999999999836e+01 1.804639999999999986e+02 1.767449999999999818e+03
1.110000000000000014e-01 1.605395000000000016e-01 5.010094999999999743e+01 1.820194999999999936e+02 1.768255000000000109e+03
1.120000000000000023e-01 1.606235000000000024e-01 4.996730000000000160e+01 1.833754999999999882e+02 1.768985000000000127e+03
1.130000000000000032e-01 1.606984999999999941e-01 4.972905000000000086e+01 1.845260000000000105e+02 1.769639999999999873e+03
1.140000000000000041e-01 1.607644999999999769e-01 4.938594999999999402e+01 1.854669999999999845e+02 1.770220000000000027e+03
1.150000000000000050e-01 1.608205000000000051e-01 4.893900000000000006e+01 1.861984999999999957e+02 1.770715000000000146e+03
1.160000000000000059e-01 1.608670000000000100e-01 4.839059999999999917e+01 1.867230000000000132e+02 1.771125000000000000e+03
1.170000000000000068e-01 1.609039999999999915e-01 4.774450000000000216e+01 1.870459999999999923e+02 1.771460000000000036e+03
1.180000000000000077e-01 1.609319999999999917e-01 4.700605000000000189e+01 1.871770000000000209e+02 1.771704999999999927e+03
1.190000000000000085e-01 1.609499999999999820e-01 4.618175000000000097e+01 1.871274999999999977e+02 1.771880000000000109e+03
1.200000000000000094e-01 1.609599999999999920e-01 4.527944999999999709e+01 1.869120000000000061e+02 1.771974999999999909e+03
1.209999999999999964e-01 1.609619999999999940e-01 4.430790000000000362e+01 1.865459999999999923e+02 1.772000000000000000e+03
1.219999999999999973e-01 1.609559999999999880e-01 4.327684999999999604e+01 1.860469999999999970e+02 1.771960000000000036e+03
1.229999999999999982e-01 1.609434999999999893e-01 4.219655000000000200e+01 1.854345000000000141e+02 1.771860000000000127e+03
1.239999999999999991e-01 1.609249999999999847e-01 4.107760000000000389e+01 1.847270000000000039e+02 1.771704999999999927e+03
1.250000000000000000e-01 1.609010000000000162e-01 3.993090000000000117e+01 1.839445000000000050e+02 1.771509999999999991e+03
1.260000000000000009e-01 1.608729999999999882e-01 3.876695000000000135e+01 1.831055000000000064e+02 1.771269999999999982e+03
1.270000000000000018e-01 1.608414999999999984e-01 3.759595000000000198e+01 1.822275000000000205e+02 1.771000000000000000e+03
1.280000000000000027e-01 1.608070000000000055e-01 3.642740000000000578e+01 1.813274999999999864e+02 1.770710000000000036e+03
1.290000000000000036e-01 1.607704999999999829e-01 3.526975000000000193e+01 1.804189999999999827e+02 1.770394999999999982e+03
1.300000000000000044e-01 1.607325000000000004e-01 3.413070000000000448e+01 1.795140000000000100e+02 1.770069999999999936e+03
1.310000000000000053e-01 1.606940000000000035e-01 3.301635000000000275e+01 1.786225000000000023e+02 1.769740000000000009e+03
1.320000000000000062e-01 1.606555000000000066e-01 3.193160000000000309e+01 1.777504999999999882e+02 1.769404999999999973e+03
1.330000000000000071e-01 1.606164999999999954e-01 3.088000000000000256e+01 1.769030000000000200e+02 1.769070000000000164e+03
1.340000000000000080e-01 1.605779999999999985e-01 2.986364999999999981e+01 1.760800000000000125e+02 1.768734999999999900e+03
1.350000000000000089e-01 1.605400000000000160e-01 2.888325000000000031e+01 1.752810000000000059e+02 1.768404999999999973e+03
1.360000000000000098e-01 1.605024999999999924e-01 2.793825000000000003e+01 1.745035000000000025e+02 1.768074999999999818e+03
1.370000000000000107e-01 1.604659999999999975e-01 2.702680000000000149e+01 1.737404999999999973e+02 1.767759999999999991e+03
1.380000000000000115e-01 1.604295000000000027e-01 2.614610000000000056e+01 1.729844999999999970e+02 1.767440000000000055e+03
1.390000000000000124e-01 1.603930000000000078e-01 2.529245000000000232e+01 1.722284999999999968e+02 1.767119999999999891e+03
1.400000000000000133e-01 1.603565000000000129e-01 2.446150000000000091e+01 1.714619999999999891e+02 1.766799999999999955e+03
1.410000000000000142e-01 1.603195000000000037e-01 2.364849999999999852e+01 1.706750000000000114e+02 1.766485000000000127e+03
1.420000000000000151e-01 1.602814999999999934e-01 2.284825000000000017e+01 1.698580000000000041e+02 1.766150000000000091e+03
1.430000000000000160e-01 1.602425000000000099e-01 2.205564999999999998e+01 1.690010000000000048e+02 1.765809999999999945e+03
1.440000000000000169e-01 1.602014999999999967e-01 2.126585000000000036e+01 1.680949999999999989e+02 1.765454999999999927e+03
1.450000000000000178e-01 1.601585000000000092e-01 2.047424999999999784e+01 1.671334999999999980e+02 1.765085000000000036e+03
1.459999999999999909e-01 1.601134999999999919e-01 1.967689999999999984e+01 1.661089999999999804e+02 1.764695000000000164e+03
1.469999999999999918e-01 1.600650000000000128e-01 1.887044999999999817e+01 1.650180000000000007e+02 1.764279999999999973e+03
1.479999999999999927e-01 1.600145000000000040e-01 1.805260000000000176e+01 1.638575000000000159e+02 1.763844999999999800e+03
1.489999999999999936e-01 1.599605000000000055e-01 1.722194999999999965e+01 1.626279999999999859e+02 1.763375000000000000e+03
1.499999999999999944e-01 1.599034999999999762e-01 1.637800000000000011e+01 1.613305000000000007e+02 1.762889999999999873e+03
1.509999999999999953e-01 1.598435000000000272e-01 1.552159999999999940e+01 1.599699999999999989e+02 1.762375000000000000e+03
1.519999999999999962e-01 1.597804999999999920e-01 1.465445000000000064e+01 1.585519999999999925e+02 1.761840000000000146e+03
1.529999999999999971e-01 1.597149999999999959e-01 1.377944999999999887e+01 1.570854999999999961e+02 1.761279999999999973e+03
1.539999999999999980e-01 1.596469999999999834e-01 1.290034999999999954e+01 1.555805000000000007e+02 1.760700000000000045e+03
1.549999999999999989e-01 1.595774999999999832e-01 1.202178500000000128e+01 1.540484999999999900e+02 1.760099999999999909e+03
1.559999999999999998e-01 1.595064999999999955e-01 1.114899000000000129e+01 1.525020000000000095e+02 1.759494999999999891e+03
1.570000000000000007e-01 1.594339999999999924e-01 1.028786500000000004e+01 1.509544999999999959e+02 1.758875000000000000e+03
1.580000000000000016e-01 1.593610000000000027e-01 9.444510000000001071e+00 1.494205000000000041e+02 1.758255000000000109e+03
1.590000000000000024e-01 1.592884999999999995e-01 8.625115000000000975e+00 1.479130000000000109e+02 1.757634999999999991e+03
