# t [s], A [cm^2], U [cm/s], P [cPa], c [cm/s]
1.000000000000000021e-03 2.122924999999999951e-01 3.400498000000000132e-01 9.694339999999999691e+01 2.102744999999999891e+03
2.000000000000000042e-03 2.122334999999999916e-01 1.895174500000000206e+00 9.351919999999999789e+01 2.102319999999999709e+03
3.000000000000000062e-03 2.120759999999999867e-01 3.802444999999999631e+00 8.880455000000000609e+01 2.101239999999999782e+03
4.000000000000000083e-03 2.118635000000000101e-01 5.944041499999999978e+00 8.377049999999999841e+01 2.099795000000000073e+03
5.000000000000000104e-03 2.116385000000000072e-01 8.236319999999999197e+00 7.936544999999999561e+01 2.098284999999999854e+03
6.000000000000000125e-03 2.114240000000000008e-01 1.047227499999999978e+01 7.582014999999999816e+01 2.096859999999999673e+03
7.000000000000000146e-03 2.112244999999999817e-01 1.242577999999999960e+01 7.280395000000000039e+01 2.095559999999999945e+03
8.000000000000000167e-03 2.110434999999999950e-01 1.403788000000000125e+01 7.010609999999999786e+01 2.094404999999999745e+03
9.000000000000001055e-03 2.108869999999999911e-01 1.536040000000000028e+01 6.781999999999999318e+01 2.093414999999999964e+03
1.000000000000000194e-02 2.107574999999999865e-01 1.642664999999999864e+01 6.600889999999999702e+01 2.092610000000000127e+03
1.099999999999999936e-02 2.106540000000000079e-01 1.725335000000000107e+01 6.462845000000000084e+01 2.091974999999999909e+03
1.200000000000000025e-02 2.105734999999999968e-01 1.785494999999999877e+01 6.359865000000000634e+01 2.091485000000000127e+03
1.300000000000000114e-02 2.105104999999999893e-01 1.823494999999999777e+01 6.279449999999999932e+01 2.091114999999999782e+03
1.400000000000000203e-02 2.104604999999999948e-01 1.841745000000000232e+01 6.210519999999999641e+01 2.090824999999999818e+03
1.499999999999999944e-02 2.104219999999999979e-01 1.849889999999999901e+01 6.160215000000000174e+01 2.090609999999999673e+03
1.600000000000000033e-02 2.104030000000000067e-01 1.864235000000000042e+01 6.160495000000000232e+01 2.090515000000000327e+03
1.700000000000000122e-02 2.104170000000000207e-01 1.899980000000000047e+01 6.251324999999999932e+01 2.090609999999999673e+03
1.800000000000000211e-02 2.104714999999999780e-01 1.962375000000000114e+01 6.452434999999999832e+01 2.090960000000000036e+03
1.900000000000000300e-02 2.105650000000000022e-01 2.043234999999999957e+01 6.744904999999999973e+01 2.091539999999999964e+03
2.000000000000000042e-02 2.106834999999999958e-01 2.124380000000000024e+01 7.074029999999999063e+01 2.092289999999999964e+03
2.100000000000000130e-02 2.108045000000000058e-01 2.185304999999999964e+01 7.369714999999999350e+01 2.093065000000000055e+03
2.200000000000000219e-02 2.109070000000000111e-01 2.210989999999999966e+01 7.572450000000000614e+01 2.093735000000000127e+03
2.299999999999999961e-02 2.109745000000000092e-01 2.196620000000000061e+01 7.653159999999999741e+01 2.094190000000000055e+03
2.400000000000000050e-02 2.110024999999999817e-01 2.147834999999999894e+01 7.619370000000000687e+01 2.094394999999999982e+03
2.500000000000000139e-02 2.109960000000000169e-01 2.077094999999999914e+01 7.507245000000000346e+01 2.094380000000000109e+03
2.600000000000000228e-02 2.109675000000000022e-01 1.998104999999999976e+01 7.364334999999999809e+01 2.094210000000000036e+03
2.700000000000000316e-02 2.109300000000000064e-01 1.920864999999999867e+01 7.231104999999999450e+01 2.093984999999999673e+03
2.800000000000000058e-02 2.108935000000000115e-01 1.849099999999999966e+01 7.128570000000000562e+01 2.093750000000000000e+03
2.900000000000000147e-02 2.108629999999999949e-01 1.780480000000000018e+01 7.055404999999998950e+01 2.093555000000000291e+03
3.000000000000000236e-02 2.108355000000000090e-01 1.709185000000000088e+01 6.993760000000000332e+01 2.093375000000000000e+03
3.099999999999999978e-02 2.108050000000000201e-01 1.629294999999999760e+01 6.920244999999999891e+01 2.093190000000000055e+03
3.200000000000000067e-02 2.107664999999999955e-01 1.538049999999999962e+01 6.817574999999999363e+01 2.092949999999999818e+03
3.300000000000000155e-02 2.107175000000000020e-01 1.437705000000000055e+01 6.683034999999999570e+01 2.092645000000000437e+03
3.400000000000000244e-02 2.106600000000000139e-01 1.335600000000000165e+01 6.531184999999999263e+01 2.092289999999999964e+03
3.500000000000000333e-02 2.106014999999999970e-01 1.242399999999999949e+01 6.390245000000000175e+01 2.091920000000000073e+03
3.600000000000000422e-02 2.105529999999999902e-01 1.169160000000000110e+01 6.293590000000000373e+01 2.091609999999999673e+03
3.700000000000000511e-02 2.105250000000000177e-01 1.124194999999999922e+01 6.269405000000000427e+01 2.091420000000000073e+03
3.799999999999999906e-02 2.105250000000000177e-01 1.110749999999999993e+01 6.331969999999999743e+01 2.091404999999999745e+03
3.899999999999999994e-02 2.105564999999999798e-01 1.126135000000000019e+01 6.477134999999999820e+01 2.091585000000000036e+03
4.000000000000000083e-02 2.106159999999999977e-01 1.162330000000000041e+01 6.682949999999999591e+01 2.091944999999999709e+03
4.100000000000000172e-02 2.106935000000000058e-01 1.207779999999999987e+01 6.914685000000000059e+01 2.092425000000000182e+03
4.200000000000000261e-02 2.107769999999999921e-01 1.249709999999999965e+01 7.132290000000000418e+01 2.092940000000000055e+03
4.300000000000000350e-02 2.108524999999999983e-01 1.276360000000000028e+01 7.298194999999999766e+01 2.093420000000000073e+03
4.400000000000000439e-02 2.109074999999999978e-01 1.278679999999999950e+01 7.383615000000000350e+01 2.093769999999999982e+03
4.499999999999999833e-02 2.109314999999999940e-01 1.251244999999999941e+01 7.372169999999999845e+01 2.093934999999999945e+03
4.599999999999999922e-02 2.109194999999999820e-01 1.192350000000000065e+01 7.260580000000000211e+01 2.093875000000000000e+03
4.700000000000000011e-02 2.108710000000000029e-01 1.103533499999999989e+01 7.056895000000000095e+01 2.093585000000000036e+03
4.800000000000000100e-02 2.107884999999999898e-01 9.886334999999998985e+00 6.777100000000000080e+01 2.093070000000000164e+03
4.900000000000000189e-02 2.106759999999999744e-01 8.528600000000000847e+00 6.441280000000000427e+01 2.092369999999999891e+03
5.000000000000000278e-02 2.105420000000000069e-01 7.019790000000000418e+00 6.070199999999999818e+01 2.091529999999999745e+03
5.100000000000000366e-02 2.103925000000000101e-01 5.417824999999999669e+00 5.683060000000000400e+01 2.090590000000000146e+03
5.200000000000000455e-02 2.102350000000000052e-01 3.778516300000000161e+00 5.296379999999999910e+01 2.089595000000000255e+03
5.300000000000000544e-02 2.100754999999999983e-01 2.155444999999999833e+00 4.924049999999999727e+01 2.088590000000000146e+03
5.399999999999999939e-02 2.099205000000000099e-01 6.009999999999999787e-01 4.577979999999999450e+01 2.087605000000000018e+03
5.500000000000000028e-02 2.097749999999999893e-01 -8.326049999999998175e-01 4.268944999999999368e+01 2.086680000000000291e+03
5.600000000000000117e-02 2.096439999999999970e-01 -2.093077500000000146e+00 4.007285000000000252e+01 2.085840000000000146e+03
5.700000000000000205e-02 2.095325000000000104e-01 -3.129034499999999941e+00 3.803125000000000000e+01 2.085125000000000000e+03
5.800000000000000294e-02 2.094444999999999779e-01 -3.892174999999999940e+00 3.666154999999999831e+01 2.084554999999999836e+03
5.900000000000000383e-02 2.093845000000000012e-01 -4.340304999999999858e+00 3.605055000000000121e+01 2.084154999999999745e+03
6.000000000000000472e-02 2.093559999999999865e-01 -4.440545000000000186e+00 3.626574999999999704e+01 2.083960000000000036e+03
6.099999999999999867e-02 2.093625000000000069e-01 -4.172279999999999767e+00 3.734780000000000655e+01 2.083975000000000364e+03
6.199999999999999956e-02 2.094039999999999790e-01 -3.529135000000000133e+00 3.930349999999999966e+01 2.084215000000000146e+03
6.300000000000000044e-02 2.094825000000000159e-01 -2.519801999999999875e+00 4.210285000000000366e+01 2.084684999999999945e+03
6.400000000000000133e-02 2.095954999999999901e-01 -1.167559999999999931e+00 4.568005000000000138e+01 2.085375000000000000e+03
6.500000000000000222e-02 2.097410000000000108e-01 4.912799999999999390e-01 4.993720000000000425e+01 2.086280000000000200e+03
6.600000000000000311e-02 2.099154999999999771e-01 2.409834999999999727e+00 5.475185000000000457e+01 2.087364999999999782e+03
6.700000000000000400e-02 2.101135000000000086e-01 4.533576599999999956e+00 5.998520000000000607e+01 2.088599999999999909e+03
6.800000000000000488e-02 2.103295000000000026e-01 6.803544999999999732e+00 6.549160000000000537e+01 2.089960000000000036e+03
6.900000000000000577e-02 2.105589999999999962e-01 9.159510000000000929e+00 7.112725000000000364e+01 2.091404999999999745e+03
7.000000000000000666e-02 2.107950000000000101e-01 1.154301000000000066e+01 7.675844999999999629e+01 2.092899999999999636e+03
7.100000000000000755e-02 2.110319999999999974e-01 1.390027999999999864e+01 8.226810000000000400e+01 2.094409999999999854e+03
7.200000000000000844e-02 2.112664999999999960e-01 1.618435000000000201e+01 8.756170000000000186e+01 2.095909999999999854e+03
7.300000000000000933e-02 2.114940000000000153e-01 1.835725000000000051e+01 9.257065000000000055e+01 2.097369999999999891e+03
7.399999999999999634e-02 2.117109999999999825e-01 2.039090000000000202e+01 9.725399999999999068e+01 2.098765000000000327e+03
7.499999999999999722e-02 2.119169999999999943e-01 2.226794999999999902e+01 1.015994499999999903e+02 2.100095000000000255e+03
7.599999999999999811e-02 2.121105000000000074e-01 2.398094999999999999e+01 1.056185499999999990e+02 2.101349999999999909e+03
7.699999999999999900e-02 2.122919999999999807e-01 2.553209999999999980e+01 1.093455000000000013e+02 2.102529999999999745e+03
7.799999999999999989e-02 2.124624999999999986e-01 2.693070000000000164e+01 1.128290000000000077e+02 2.103639999999999873e+03
7.900000000000000078e-02 2.126234999999999931e-01 2.819194999999999851e+01 1.161264999999999930e+02 2.104690000000000055e+03
8.000000000000000167e-02 2.127775000000000083e-01 2.933395000000000152e+01 1.192990000000000066e+02 2.105699999999999818e+03
8.100000000000000255e-02 2.129265000000000185e-01 3.037620000000000431e+01 1.224025000000000034e+02 2.106670000000000073e+03
8.200000000000000344e-02 2.130724999999999980e-01 3.133689999999999998e+01 1.254830000000000041e+02 2.107625000000000000e+03
8.300000000000000433e-02 2.132169999999999899e-01 3.223189999999999600e+01 1.285759999999999934e+02 2.108569999999999709e+03
8.400000000000000522e-02 2.133609999999999951e-01 3.307305000000000206e+01 1.316990000000000123e+02 2.109510000000000218e+03
8.500000000000000611e-02 2.135060000000000013e-01 3.386789999999999878e+01 1.348564999999999827e+02 2.110460000000000036e+03
8.600000000000000699e-02 2.136514999999999942e-01 3.461910000000000309e+01 1.380374999999999943e+02 2.111404999999999745e+03
8.700000000000000788e-02 2.137970000000000148e-01 3.532469999999999999e+01 1.412155000000000200e+02 2.112359999999999673e+03
8.800000000000000877e-02 2.139419999999999933e-01 3.597870000000000346e+01 1.443575000000000159e+02 2.113305000000000291e+03
8.899999999999999578e-02 2.140839999999999965e-01 3.657169999999999987e+01 1.474189999999999827e+02 2.114235000000000127e+03
8.999999999999999667e-02 2.142229999999999968e-01 3.709175000000000466e+01 1.503539999999999850e+02 2.115140000000000327e+03
9.099999999999999756e-02 2.143550000000000177e-01 3.752555000000000263e+01 1.531139999999999759e+02 2.116010000000000218e+03
9.199999999999999845e-02 2.144804999999999906e-01 3.785905000000000342e+01 1.556519999999999868e+02 2.116829999999999927e+03
9.299999999999999933e-02 2.145954999999999946e-01 3.807885000000000275e+01 1.579259999999999877e+02 2.117590000000000146e+03
9.400000000000000022e-02 2.146994999999999876e-01 3.817289999999999850e+01 1.598985000000000127e+02 2.118275000000000091e+03
9.500000000000000111e-02 2.147910000000000097e-01 3.813134999999999764e+01 1.615409999999999968e+02 2.118875000000000000e+03
9.600000000000000200e-02 2.148685000000000178e-01 3.794715000000000060e+01 1.628340000000000032e+02 2.119390000000000327e+03
9.700000000000000289e-02 2.149309999999999832e-01 3.761684999999999945e+01 1.637665000000000077e+02 2.119809999999999945e+03
9.800000000000000377e-02 2.149780000000000024e-01 3.714069999999999538e+01 1.643399999999999750e+02 2.120130000000000109e+03
9.900000000000000466e-02 2.150100000000000067e-01 3.652304999999999779e+01 1.645649999999999977e+02 2.120345000000000255e+03
1.000000000000000056e-01 2.150269999999999959e-01 3.577205000000000013e+01 1.644625000000000057e+02 2.120465000000000146e+03
1.010000000000000064e-01 2.150295000000000123e-01 3.489985000000000070e+01 1.640615000000000236e+02 2.120500000000000000e+03
1.020000000000000073e-01 2.150199999999999889e-01 3.392159999999999798e+01 1.634000000000000057e+02 2.120444999999999709e+03
1.030000000000000082e-01 2.149984999999999813e-01 3.285524999999999807e+01 1.625194999999999936e+02 2.120315000000000055e+03
1.040000000000000091e-01 2.149679999999999924e-01 3.172064999999999912e+01 1.614680000000000177e+02 2.120125000000000000e+03
1.050000000000000100e-01 2.149289999999999812e-01 3.053855000000000075e+01 1.602914999999999850e+02 2.119880000000000109e+03
1.059999999999999970e-01 2.148844999999999783e-01 2.932995000000000019e+01 1.590395000000000039e+02 2.119595000000000255e+03
1.069999999999999979e-01 2.148359999999999992e-01 2.811514999999999986e+01 1.577545000000000073e+02 2.119279999999999745e+03
1.079999999999999988e-01 2.147850000000000037e-01 2.691315000000000168e+01 1.564770000000000039e+02 2.118949999999999818e+03
1.089999999999999997e-01 2.147334999999999938e-01 2.574045000000000272e+01 1.552409999999999854e+02 2.118619999999999891e+03
1.100000000000000006e-01 2.146834999999999993e-01 2.461110000000000042e+01 1.540735000000000241e+02 2.118289999999999964e+03
1.110000000000000014e-01 2.146349999999999925e-01 2.353575000000000017e+01 1.529929999999999950e+02 2.117974999999999909e+03
1.120000000000000023e-01 2.145894999999999886e-01 2.252169999999999916e+01 1.520099999999999909e+02 2.117675000000000182e+03
1.130000000000000032e-01 2.145475000000000021e-01 2.157254999999999967e+01 1.511260000000000048e+02 2.117399999999999636e+03
1.140000000000000041e-01 2.145090000000000052e-01 2.068834999999999980e+01 1.503349999999999795e+02 2.117140000000000327e+03
1.150000000000000050e-01 2.144734999999999836e-01 1.986580000000000013e+01 1.496235000000000070e+02 2.116909999999999854e+03
1.160000000000000059e-01 2.144409999999999927e-01 1.909854999999999947e+01 1.489719999999999800e+02 2.116690000000000055e+03
1.170000000000000068e-01 2.144099999999999895e-01 1.837780000000000058e+01 1.483550000000000182e+02 2.116480000000000018e+03
1.180000000000000077e-01 2.143805000000000016e-01 1.769284999999999997e+01 1.477439999999999998e+02 2.116284999999999854e+03
1.190000000000000085e-01 2.143515000000000004e-01 1.703160000000000096e+01 1.471105000000000018e+02 2.116095000000000255e+03
1.200000000000000094e-01 2.143209999999999837e-01 1.638169999999999860e+01 1.464234999999999900e+02 2.115890000000000327e+03
1.209999999999999964e-01 2.142879999999999785e-01 1.573085000000000022e+01 1.456550000000000011e+02 2.115675000000000182e+03
1.219999999999999973e-01 2.142519999999999980e-01 1.506784999999999997e+01 1.447805000000000177e+02 2.115440000000000055e+03
1.229999999999999982e-01 2.142109999999999848e-01 1.438315000000000055e+01 1.437819999999999823e+02 2.115170000000000073e+03
1.239999999999999991e-01 2.141655000000000086e-01 1.366934999999999967e+01 1.426449999999999818e+02 2.114875000000000000e+03
1.250000000000000000e-01 2.141144999999999854e-01 1.292159999999999975e+01 1.413634999999999877e+02 2.114539999999999964e+03
1.260000000000000009e-01 2.140575000000000117e-01 1.213819999999999943e+01 1.399404999999999859e+02 2.114175000000000182e+03
1.270000000000000018e-01 2.139945000000000042e-01 1.132042500000000018e+01 1.383840000000000146e+02 2.113770000000000437e+03
1.280000000000000027e-01 2.139265000000000194e-01 1.047251999999999938e+01 1.367115000000000009e+02 2.113324999999999818e+03
1.290000000000000036e-01 2.138534999999999742e-01 9.601720000000000255e+00 1.349455000000000098e+02 2.112850000000000364e+03
1.300000000000000044e-01 2.137765000000000082e-01 8.717420000000000613e+00 1.331144999999999925e+02 2.112355000000000018e+03
1.310000000000000053e-01 2.136969999999999981e-01 7.831144999999999357e+00 1.312510000000000048e+02 2.111845000000000255e+03
1.320000000000000062e-01 2.136160000000000003e-01 6.955605000000000260e+00 1.293899999999999864e+02 2.111320000000000164e+03
1.330000000000000071e-01 2.135354999999999892e-01 6.104169999999999874e+00 1.275660000000000025e+02 2.110795000000000073e+03
1.340000000000000080e-01 2.134560000000000068e-01 5.290084999999999482e+00 1.258125000000000000e+02 2.110279999999999745e+03
1.350000000000000089e-01 2.133794999999999997e-01 4.525850000000000151e+00 1.241604999999999990e+02 2.109779999999999745e+03
1.360000000000000098e-01 2.133069999999999966e-01 3.822614999999999874e+00 1.226355000000000075e+02 2.109310000000000400e+03
1.370000000000000107e-01 2.132390000000000119e-01 3.189640000000000253e+00 1.212584999999999980e+02 2.108864999999999782e+03
1.380000000000000115e-01 2.131780000000000064e-01 2.633950000000000458e+00 1.200444999999999993e+02 2.108470000000000255e+03
1.390000000000000124e-01 2.131230000000000069e-01 2.160053000000000001e+00 1.190014999999999930e+02 2.108105000000000018e+03
1.400000000000000133e-01 2.130745000000000000e-01 1.769873999999999947e+00 1.181299999999999955e+02 2.107789999999999964e+03
1.410000000000000142e-01 2.130334999999999868e-01 1.462771999999999961e+00 1.174265000000000043e+02 2.107515000000000327e+03
1.420000000000000151e-01 2.129995000000000083e-01 1.235714999999999897e+00 1.168804999999999978e+02 2.107289999999999964e+03
1.430000000000000160e-01 2.129719999999999946e-01 1.083513500000000018e+00 1.164764999999999873e+02 2.107105000000000018e+03
1.440000000000000169e-01 2.129504999999999870e-01 9.991784999999999695e-01 1.161975000000000051e+02 2.106960000000000036e+03
1.450000000000000178e-01 2.129344999999999988e-01 9.743079999999999519e-01 1.160219999999999914e+02 2.106849999999999909e+03
1.459999999999999909e-01 2.129225000000000145e-01 9.994764999999999899e-01 1.159274999999999949e+02 2.106765000000000327e+03
1.469999999999999918e-01 2.129145000000000065e-01 1.064685499999999951e+00 1.158919999999999959e+02 2.106704999999999927e+03
1.479999999999999927e-01 2.129090000000000149e-01 1.159722499999999989e+00 1.158924999999999983e+02 2.106664999999999964e+03
1.489999999999999936e-01 2.129055000000000253e-01 1.274554999999999882e+00 1.159089999999999918e+02 2.106640000000000327e+03
1.499999999999999944e-01 2.129030000000000089e-01 1.399645000000000028e+00 1.159219999999999970e+02 2.106619999999999891e+03
1.509999999999999953e-01 2.129004999999999925e-01 1.526219999999999910e+00 1.159149999999999920e+02 2.106605000000000018e+03
1.519999999999999962e-01 2.128974999999999895e-01 1.646525000000000016e+00 1.158739999999999952e+02 2.106585000000000036e+03
1.529999999999999971e-01 2.128939999999999999e-01 1.753960000000000186e+00 1.157884999999999991e+02 2.106559999999999945e+03
1.539999999999999980e-01 2.128885000000000083e-01 1.843259999999999899e+00 1.156495000000000033e+02 2.106519999999999982e+03
1.549999999999999989e-01 2.128805000000000003e-01 1.910505000000000120e+00 1.154540000000000077e+02 2.106474999999999909e+03
1.559999999999999998e-01 2.128710000000000047e-01 1.953189999999999982e+00 1.151989999999999981e+02 2.106414999999999964e+03
1.570000000000000007e-01 2.128594999999999793e-01 1.970185000000000075e+00 1.148859999999999957e+02 2.106335000000000036e+03
1.580000000000000016e-01 2.128455000000000208e-01 1.961650000000000116e+00 1.145185000000000031e+02 2.106250000000000000e+03
1.590000000000000024e-01 2.128295000000000048e-01 1.928925000000000001e+00 1.141020000000000039e+02 2.106144999999999982e+03
