# t [s], A [cm^2], U [cm/s], P [cPa], c [cm/s]
1.000000000000000021e-03 5.156884999999999941e-01 3.350749999999999562e-03 9.613534999999998831e+01 1.489384999999999991e+03
2.000000000000000042e-03 5.156809999999999450e-01 -1.018671500000000027e-03 9.611650000000000205e+01 1.489375000000000000e+03
3.000000000000000062e-03 5.157150000000000345e-01 6.443014999999999159e-02 9.617789999999999395e+01 1.489394999999999982e+03
4.000000000000000083e-03 5.157599999999999962e-01 1.543742499999999906e-01 9.628494999999999493e+01 1.489430000000000064e+03
5.000000000000000104e-03 5.157599999999999962e-01 1.644680000000000031e-01 9.629484999999999673e+01 1.489440000000000055e+03
6.000000000000000125e-03 5.157214999999999439e-01 9.683249999999998803e-02 9.617289999999999850e+01 1.489404999999999973e+03
7.000000000000000146e-03 5.156804999999999861e-01 1.924549999999997096e-02 9.598324999999999818e+01 1.489360000000000127e+03
8.000000000000000167e-03 5.156330000000000080e-01 -7.633050000000002333e-02 9.572925000000000750e+01 1.489289999999999964e+03
9.000000000000001055e-03 5.155520000000000103e-01 -2.476709999999999745e-01 9.534360000000000923e+01 1.489190000000000055e+03
1.000000000000000194e-02 5.154279999999999973e-01 -5.144999999999999574e-01 9.478005000000000280e+01 1.489039999999999964e+03
1.099999999999999936e-02 5.152560000000000473e-01 -8.819099999999999717e-01 9.400475000000000136e+01 1.488825000000000045e+03
1.200000000000000025e-02 5.150219999999999798e-01 -1.364195000000000046e+00 9.297229999999998995e+01 1.488535000000000082e+03
1.300000000000000114e-02 5.147245000000000292e-01 -1.954450000000000021e+00 9.165819999999999368e+01 1.488159999999999854e+03
1.400000000000000203e-02 5.143824999999999648e-01 -2.593300000000000161e+00 9.010419999999999163e+01 1.487704999999999927e+03
1.499999999999999944e-02 5.140354999999999785e-01 -3.179219999999999935e+00 8.842159999999999798e+01 1.487200000000000045e+03
1.600000000000000033e-02 5.137205000000000243e-01 -3.609545499999999851e+00 8.675020000000000664e+01 1.486680000000000064e+03
1.700000000000000122e-02 5.134594999999999576e-01 -3.818240999999999996e+00 8.520635000000000048e+01 1.486170000000000073e+03
1.800000000000000211e-02 5.132525000000000004e-01 -3.791183999999999887e+00 8.384980000000000189e+01 1.485700000000000045e+03
1.900000000000000300e-02 5.130829999999999558e-01 -3.559927500000000133e+00 8.267715000000001169e+01 1.485264999999999873e+03
2.000000000000000042e-02 5.129259999999999931e-01 -3.183186000000000071e+00 8.163554999999999495e+01 1.484860000000000127e+03
2.100000000000000130e-02 5.127570000000000183e-01 -2.725184000000000051e+00 8.064750000000000796e+01 1.484470000000000027e+03
2.200000000000000219e-02 5.125589999999999868e-01 -2.237044500000000102e+00 7.963779999999999859e+01 1.484070000000000164e+03
2.299999999999999961e-02 5.123269999999999769e-01 -1.745735000000000037e+00 7.855549999999999500e+01 1.483659999999999854e+03
2.400000000000000050e-02 5.120649999999999924e-01 -1.252675000000000205e+00 7.738394999999999868e+01 1.483224999999999909e+03
2.500000000000000139e-02 5.117855000000000043e-01 -7.415650000000002517e-01 7.613835000000000264e+01 1.482769999999999982e+03
2.600000000000000228e-02 5.115014999999999423e-01 -1.913550000000001639e-01 7.485265000000001123e+01 1.482295000000000073e+03
2.700000000000000316e-02 5.112225000000000241e-01 4.107549999999999812e-01 7.356229999999999336e+01 1.481819999999999936e+03
2.800000000000000058e-02 5.109500000000000153e-01 1.060449999999999893e+00 7.228860000000000241e+01 1.481345000000000027e+03
2.900000000000000147e-02 5.106794999999999529e-01 1.733650000000000135e+00 7.102965000000000373e+01 1.480875000000000000e+03
3.000000000000000236e-02 5.103984999999999772e-01 2.389510000000000023e+00 6.975865000000000293e+01 1.480394999999999982e+03
3.099999999999999978e-02 5.100924999999999487e-01 2.977854999999999919e+00 6.842945000000000277e+01 1.479909999999999854e+03
3.200000000000000067e-02 5.097469999999999501e-01 3.448784999999999989e+00 6.698714999999999975e+01 1.479384999999999991e+03
3.300000000000000155e-02 5.093520000000000270e-01 3.762539999999999996e+00 6.538145000000000095e+01 1.478825000000000045e+03
3.400000000000000244e-02 5.089044999999999819e-01 3.897425000000000139e+00 6.358004999999999995e+01 1.478210000000000036e+03
3.500000000000000333e-02 5.084075000000000122e-01 3.854105000000000114e+00 6.157809999999999917e+01 1.477539999999999964e+03
3.600000000000000422e-02 5.078749999999999654e-01 3.655379999999999630e+00 5.940279999999999916e+01 1.476825000000000045e+03
3.700000000000000511e-02 5.073250000000000259e-01 3.341690000000000271e+00 5.711095000000000255e+01 1.476070000000000164e+03
3.799999999999999906e-02 5.067795000000000494e-01 2.963994999999999713e+00 5.478199999999999648e+01 1.475300000000000182e+03
3.899999999999999994e-02 5.062600000000000433e-01 2.576029999999999820e+00 5.250730000000000075e+01 1.474545000000000073e+03
4.000000000000000083e-02 5.057869999999999866e-01 2.227280000000000371e+00 5.037930000000000064e+01 1.473820000000000164e+03
4.100000000000000172e-02 5.053754999999999775e-01 1.958555000000000490e+00 4.848210000000000264e+01 1.473155000000000200e+03
4.200000000000000261e-02 5.050375000000000281e-01 1.799795000000000478e+00 4.688485000000000014e+01 1.472579999999999927e+03
4.300000000000000350e-02 5.047794999999999366e-01 1.770104999999999817e+00 4.563819999999999766e+01 1.472105000000000018e+03
4.400000000000000439e-02 5.046055000000000401e-01 1.879490000000000105e+00 4.477389999999999759e+01 1.471740000000000009e+03
4.499999999999999833e-02 5.045150000000000468e-01 2.131449499999999997e+00 4.430689999999999884e+01 1.471509999999999991e+03
4.599999999999999922e-02 5.045070000000000388e-01 2.525755000000000194e+00 4.423850000000000193e+01 1.471394999999999982e+03
4.700000000000000011e-02 5.045800000000000285e-01 3.060760000000000147e+00 4.456065000000000254e+01 1.471414999999999964e+03
4.800000000000000100e-02 5.047295000000000531e-01 3.734805000000000152e+00 4.525939999999999941e+01 1.471559999999999945e+03
4.900000000000000189e-02 5.049534999999999441e-01 4.546675000000000466e+00 4.631790000000000163e+01 1.471825000000000045e+03
5.000000000000000278e-02 5.052499999999999769e-01 5.495009999999999728e+00 4.771735000000000326e+01 1.472210000000000036e+03
5.100000000000000366e-02 5.056135000000000490e-01 6.577220000000000510e+00 4.943744999999999834e+01 1.472704999999999927e+03
5.200000000000000455e-02 5.060409999999999631e-01 7.788185000000000358e+00 5.145589999999999975e+01 1.473305000000000064e+03
5.300000000000000544e-02 5.065269999999999495e-01 9.119165000000000632e+00 5.374694999999999823e+01 1.474000000000000000e+03
5.399999999999999939e-02 5.070639999999999592e-01 1.055726499999999923e+01 5.628115000000000379e+01 1.474779999999999973e+03
5.500000000000000028e-02 5.076450000000000129e-01 1.208549500000000165e+01 5.902474999999999739e+01 1.475644999999999982e+03
5.600000000000000117e-02 5.082605000000000040e-01 1.368338499999999947e+01 6.194035000000000224e+01 1.476570000000000164e+03
5.700000000000000205e-02 5.089019999999999655e-01 1.532847999999999900e+01 6.498785000000000878e+01 1.477554999999999836e+03
5.800000000000000294e-02 5.095594999999999430e-01 1.699721999999999866e+01 6.812620000000001141e+01 1.478575000000000045e+03
5.900000000000000383e-02 5.102254999999999985e-01 1.866685000000000016e+01 7.131539999999999679e+01 1.479630000000000109e+03
6.000000000000000472e-02 5.108920000000000128e-01 2.031649999999999778e+01 7.451855000000000473e+01 1.480699999999999818e+03
6.099999999999999867e-02 5.115530000000000355e-01 2.192820000000000036e+01 7.770335000000000036e+01 1.481775000000000091e+03
6.199999999999999956e-02 5.122035000000000338e-01 2.348774999999999835e+01 8.084375000000000000e+01 1.482844999999999800e+03
6.300000000000000044e-02 5.128409999999999913e-01 2.498460000000000036e+01 8.392044999999998822e+01 1.483910000000000082e+03
6.400000000000000133e-02 5.134630000000000027e-01 2.641205000000000069e+01 8.692130000000000223e+01 1.484954999999999927e+03
6.500000000000000222e-02 5.140704999999999858e-01 2.776695000000000135e+01 8.984114999999999895e+01 1.485985000000000127e+03
6.600000000000000311e-02 5.146634999999999405e-01 2.904885000000000161e+01 9.268025000000000091e+01 1.486989999999999782e+03
6.700000000000000400e-02 5.152434999999999654e-01 3.025985000000000014e+01 9.544415000000000759e+01 1.487974999999999909e+03
6.800000000000000488e-02 5.158135000000000359e-01 3.140350000000000108e+01 9.814300000000000068e+01 1.488940000000000055e+03
6.900000000000000577e-02 5.163754999999999873e-01 3.248445000000000249e+01 1.007872500000000002e+02 1.489890000000000100e+03
7.000000000000000666e-02 5.169319999999999471e-01 3.350784999999999769e+01 1.033900500000000022e+02 1.490824999999999818e+03
7.100000000000000755e-02 5.174855000000000427e-01 3.447854999999999848e+01 1.059636500000000012e+02 1.491759999999999991e+03
7.200000000000000844e-02 5.180375000000000396e-01 3.540104999999999791e+01 1.085190000000000055e+02 1.492679999999999836e+03
7.300000000000000933e-02 5.185895000000000366e-01 3.627875000000000227e+01 1.110639999999999930e+02 1.493595000000000027e+03
7.399999999999999634e-02 5.191419999999999924e-01 3.711390000000000100e+01 1.136039999999999992e+02 1.494509999999999991e+03
7.499999999999999722e-02 5.196950000000000180e-01 3.790709999999999980e+01 1.161405000000000030e+02 1.495420000000000073e+03
7.599999999999999811e-02 5.202474999999999739e-01 3.865765000000000384e+01 1.186715000000000089e+02 1.496335000000000036e+03
7.699999999999999900e-02 5.207969999999999544e-01 3.936315000000000452e+01 1.211889999999999930e+02 1.497244999999999891e+03
7.799999999999999989e-02 5.213410000000000544e-01 4.001989999999999981e+01 1.236834999999999951e+02 1.498144999999999982e+03
7.900000000000000078e-02 5.218769999999999243e-01 4.062310000000000088e+01 1.261425000000000125e+02 1.499035000000000082e+03
8.000000000000000167e-02 5.224010000000000042e-01 4.116724999999999568e+01 1.285484999999999900e+02 1.499910000000000082e+03
8.100000000000000255e-02 5.229090000000000682e-01 4.164634999999999820e+01 1.308859999999999957e+02 1.500764999999999873e+03
8.200000000000000344e-02 5.233980000000000299e-01 4.205440000000000111e+01 1.331349999999999909e+02 1.501590000000000146e+03
8.300000000000000433e-02 5.238629999999999676e-01 4.238575000000000159e+01 1.352794999999999845e+02 1.502389999999999873e+03
8.400000000000000522e-02 5.243014999999999759e-01 4.263544999999999874e+01 1.373020000000000209e+02 1.503144999999999982e+03
8.500000000000000611e-02 5.247105000000000796e-01 4.279959999999999809e+01 1.391879999999999882e+02 1.503855000000000018e+03
8.600000000000000699e-02 5.250875000000000403e-01 4.287529999999999575e+01 1.409250000000000114e+02 1.504519999999999982e+03
8.700000000000000788e-02 5.254315000000000513e-01 4.286110000000000042e+01 1.425039999999999907e+02 1.505130000000000109e+03
8.800000000000000877e-02 5.257399999999999851e-01 4.275690000000000168e+01 1.439180000000000064e+02 1.505690000000000055e+03
8.899999999999999578e-02 5.260139999999999816e-01 4.256419999999999959e+01 1.451649999999999920e+02 1.506190000000000055e+03
8.999999999999999667e-02 5.262534999999999297e-01 4.228575000000000017e+01 1.462445000000000164e+02 1.506630000000000109e+03
9.099999999999999756e-02 5.264579999999999815e-01 4.192589999999999861e+01 1.471610000000000014e+02 1.507019999999999982e+03
9.199999999999999845e-02 5.266309999999999603e-01 4.149009999999999820e+01 1.479194999999999993e+02 1.507349999999999909e+03
9.299999999999999933e-02 5.267729999999999357e-01 4.098524999999999352e+01 1.485310000000000059e+02 1.507625000000000000e+03
9.400000000000000022e-02 5.268865000000000354e-01 4.041880000000000450e+01 1.490049999999999955e+02 1.507855000000000018e+03
9.500000000000000111e-02 5.269755000000000411e-01 3.979945000000000022e+01 1.493559999999999945e+02 1.508034999999999854e+03
9.600000000000000200e-02 5.270424999999999693e-01 3.913625000000000398e+01 1.495985000000000014e+02 1.508174999999999955e+03
9.700000000000000289e-02 5.270905000000000173e-01 3.843860000000000099e+01 1.497479999999999905e+02 1.508275000000000091e+03
9.800000000000000377e-02 5.271225000000000493e-01 3.771590000000000487e+01 1.498199999999999932e+02 1.508349999999999909e+03
9.900000000000000466e-02 5.271414999999999296e-01 3.697755000000000081e+01 1.498305000000000007e+02 1.508389999999999873e+03
1.000000000000000056e-01 5.271520000000000650e-01 3.623215000000000430e+01 1.497939999999999827e+02 1.508414999999999964e+03
1.010000000000000064e-01 5.271550000000000402e-01 3.548780000000000001e+01 1.497259999999999991e+02 1.508424999999999955e+03
1.020000000000000073e-01 5.271544999999999703e-01 3.475144999999999840e+01 1.496374999999999886e+02 1.508409999999999854e+03
1.030000000000000082e-01 5.271504999999999663e-01 3.402890000000000015e+01 1.495395000000000039e+02 1.508400000000000091e+03
1.040000000000000091e-01 5.271470000000000322e-01 3.332450000000000045e+01 1.494399999999999977e+02 1.508375000000000000e+03
1.050000000000000100e-01 5.271425000000000693e-01 3.264119999999999777e+01 1.493455000000000155e+02 1.508355000000000018e+03
1.059999999999999970e-01 5.271390000000000242e-01 3.198065000000000069e+01 1.492579999999999814e+02 1.508335000000000036e+03
1.069999999999999979e-01 5.271354999999999791e-01 3.134270000000000067e+01 1.491790000000000020e+02 1.508309999999999945e+03
1.079999999999999988e-01 5.271325000000000038e-01 3.072625000000000028e+01 1.491064999999999827e+02 1.508284999999999854e+03
1.089999999999999997e-01 5.271284999999999998e-01 3.012884999999999991e+01 1.490369999999999777e+02 1.508259999999999991e+03
1.100000000000000006e-01 5.271219999999999795e-01 2.954724999999999824e+01 1.489655000000000200e+02 1.508230000000000018e+03
1.110000000000000014e-01 5.271120000000000250e-01 2.897739999999999938e+01 1.488854999999999791e+02 1.508204999999999927e+03
1.120000000000000023e-01 5.270974999999999966e-01 2.841485000000000127e+01 1.487895000000000039e+02 1.508170000000000073e+03
1.130000000000000032e-01 5.270755000000000301e-01 2.785494999999999877e+01 1.486694999999999993e+02 1.508130000000000109e+03
1.140000000000000041e-01 5.270455000000000556e-01 2.729314999999999714e+01 1.485185000000000173e+02 1.508075000000000045e+03
1.150000000000000050e-01 5.270064999999999333e-01 2.672509999999999764e+01 1.483290000000000077e+02 1.508014999999999873e+03
1.160000000000000059e-01 5.269565000000000499e-01 2.614699999999999847e+01 1.480960000000000036e+02 1.507934999999999945e+03
1.170000000000000068e-01 5.268954999999999611e-01 2.555574999999999974e+01 1.478125000000000000e+02 1.507840000000000146e+03
1.180000000000000077e-01 5.268220000000000125e-01 2.494879999999999853e+01 1.474775000000000205e+02 1.507735000000000127e+03
1.190000000000000085e-01 5.267364999999999409e-01 2.432495000000000118e+01 1.470880000000000223e+02 1.507599999999999909e+03
1.200000000000000094e-01 5.266394999999999271e-01 2.368350000000000222e+01 1.466440000000000055e+02 1.507460000000000036e+03
1.209999999999999964e-01 5.265320000000000000e-01 2.302510000000000190e+01 1.461485000000000127e+02 1.507300000000000182e+03
1.219999999999999973e-01 5.264134999999999787e-01 2.235119999999999862e+01 1.456039999999999850e+02 1.507119999999999891e+03
1.229999999999999982e-01 5.262864999999999904e-01 2.166440000000000055e+01 1.450169999999999959e+02 1.506920000000000073e+03
1.239999999999999991e-01 5.261525000000000230e-01 2.096795000000000186e+01 1.443934999999999889e+02 1.506715000000000146e+03
1.250000000000000000e-01 5.260129999999999528e-01 2.026599999999999824e+01 1.437425000000000068e+02 1.506494999999999891e+03
1.260000000000000009e-01 5.258700000000000596e-01 1.956334999999999980e+01 1.430729999999999791e+02 1.506269999999999982e+03
1.270000000000000018e-01 5.257260000000000266e-01 1.886524999999999963e+01 1.423954999999999984e+02 1.506039999999999964e+03
1.280000000000000027e-01 5.255834999999999813e-01 1.817719999999999914e+01 1.417194999999999823e+02 1.505809999999999945e+03
1.290000000000000036e-01 5.254444999999999810e-01 1.750495000000000090e+01 1.410559999999999832e+02 1.505575000000000045e+03
1.300000000000000044e-01 5.253109999999999724e-01 1.685405000000000086e+01 1.404149999999999920e+02 1.505355000000000018e+03
1.310000000000000053e-01 5.251850000000000129e-01 1.622970000000000113e+01 1.398064999999999998e+02 1.505130000000000109e+03
1.320000000000000062e-01 5.250684999999999381e-01 1.563689999999999891e+01 1.392384999999999877e+02 1.504929999999999836e+03
1.330000000000000071e-01 5.249630000000000685e-01 1.507985000000000042e+01 1.387200000000000273e+02 1.504740000000000009e+03
1.340000000000000080e-01 5.248690000000000300e-01 1.456214999999999904e+01 1.382554999999999836e+02 1.504565000000000055e+03
1.350000000000000089e-01 5.247880000000000322e-01 1.408639999999999937e+01 1.378509999999999991e+02 1.504405000000000200e+03
1.360000000000000098e-01 5.247199999999999642e-01 1.365434999999999910e+01 1.375084999999999980e+02 1.504269999999999982e+03
1.370000000000000107e-01 5.246655000000000069e-01 1.326684999999999981e+01 1.372289999999999850e+02 1.504155000000000200e+03
1.380000000000000115e-01 5.246239999999999792e-01 1.292379999999999995e+01 1.370124999999999886e+02 1.504059999999999945e+03
1.390000000000000124e-01 5.245949999999999225e-01 1.262415000000000020e+01 1.368555000000000064e+02 1.503985000000000127e+03
1.400000000000000133e-01 5.245774999999999189e-01 1.236594999999999978e+01 1.367554999999999836e+02 1.503929999999999836e+03
1.410000000000000142e-01 5.245699999999999807e-01 1.214669999999999916e+01 1.367074999999999818e+02 1.503889999999999873e+03
1.420000000000000151e-01 5.245720000000000383e-01 1.196325000000000038e+01 1.367044999999999959e+02 1.503869999999999891e+03
1.430000000000000160e-01 5.245809999999999640e-01 1.181189999999999962e+01 1.367404999999999973e+02 1.503860000000000127e+03
1.440000000000000169e-01 5.245960000000000623e-01 1.168870000000000076e+01 1.368079999999999927e+02 1.503869999999999891e+03
1.450000000000000178e-01 5.246165000000000411e-01 1.158960000000000079e+01 1.369000000000000057e+02 1.503880000000000109e+03
1.459999999999999909e-01 5.246390000000000775e-01 1.151044999999999874e+01 1.370090000000000146e+02 1.503910000000000082e+03
1.469999999999999918e-01 5.246634999999999494e-01 1.144725000000000037e+01 1.371279999999999859e+02 1.503934999999999945e+03
1.479999999999999927e-01 5.246880000000000432e-01 1.139630000000000010e+01 1.372510000000000048e+02 1.503964999999999918e+03
1.489999999999999936e-01 5.247120000000000672e-01 1.135401000000000060e+01 1.373729999999999905e+02 1.504000000000000000e+03
1.499999999999999944e-01 5.247344999999999926e-01 1.131739500000000120e+01 1.374884999999999877e+02 1.504034999999999854e+03
1.509999999999999953e-01 5.247545000000000126e-01 1.128372500000000045e+01 1.375939999999999941e+02 1.504065000000000055e+03
1.519999999999999962e-01 5.247720000000000162e-01 1.125078500000000048e+01 1.376864999999999952e+02 1.504090000000000146e+03
1.529999999999999971e-01 5.247859999999999747e-01 1.121686499999999853e+01 1.377649999999999864e+02 1.504119999999999891e+03
1.539999999999999980e-01 5.247975000000000279e-01 1.118066499999999941e+01 1.378274999999999864e+02 1.504139999999999873e+03
1.549999999999999989e-01 5.248055000000000359e-01 1.114135500000000079e+01 1.378750000000000000e+02 1.504154999999999973e+03
1.559999999999999998e-01 5.248105000000000686e-01 1.109841499999999925e+01 1.379069999999999823e+02 1.504170000000000073e+03
1.570000000000000007e-01 5.248129999999999740e-01 1.105178499999999886e+01 1.379254999999999995e+02 1.504179999999999836e+03
1.580000000000000016e-01 5.248129999999999740e-01 1.100162999999999869e+01 1.379320000000000164e+02 1.504179999999999836e+03
1.590000000000000024e-01 5.248114999999999863e-01 1.094841500000000067e+01 1.379279999999999973e+02 1.504180000000000064e+03
