# t [s], A [cm^2], U [cm/s], P [cPa], c [cm/s]
1.000000000000000021e-03 1.798140000000000016e-01 3.916874500000000481e-01 9.410509999999999309e+01 2.178935000000000400e+03
2.000000000000000042e-03 1.797555000000000125e-01 1.988915500000000058e+00 9.036254999999999882e+01 2.178414999999999964e+03
3.000000000000000062e-03 1.796149999999999969e-01 3.940204499999999666e+00 8.523945000000000505e+01 2.177199999999999818e+03
4.000000000000000083e-03 1.794330000000000092e-01 6.144537500000000207e+00 7.997169999999999845e+01 2.175650000000000091e+03
5.000000000000000104e-03 1.792475000000000041e-01 8.491254999999998887e+00 7.555604999999999905e+01 2.174079999999999927e+03
6.000000000000000125e-03 1.790734999999999966e-01 1.071242499999999964e+01 7.203125000000000000e+01 2.172639999999999873e+03
7.000000000000000146e-03 1.789125000000000021e-01 1.258263999999999960e+01 6.892069999999999652e+01 2.171329999999999927e+03
8.000000000000000167e-03 1.787694999999999979e-01 1.410731499999999983e+01 6.613070000000000448e+01 2.170184999999999945e+03
9.000000000000001055e-03 1.786475000000000146e-01 1.535340000000000060e+01 6.382649999999999579e+01 2.169224999999999909e+03
1.000000000000000194e-02 1.785484999999999989e-01 1.634390000000000143e+01 6.201724999999999710e+01 2.168449999999999818e+03
1.099999999999999936e-02 1.784704999999999764e-01 1.709984999999999999e+01 6.063309999999999889e+01 2.167849999999999909e+03
1.200000000000000025e-02 1.784094999999999986e-01 1.763210000000000122e+01 5.956759999999999877e+01 2.167385000000000218e+03
1.300000000000000114e-02 1.783605000000000051e-01 1.794344999999999857e+01 5.865390000000000015e+01 2.167025000000000091e+03
1.400000000000000203e-02 1.783199999999999785e-01 1.810510000000000019e+01 5.786114999999999498e+01 2.166725000000000364e+03
1.499999999999999944e-02 1.782934999999999937e-01 1.829804999999999993e+01 5.751059999999999661e+01 2.166539999999999964e+03
1.600000000000000033e-02 1.782949999999999813e-01 1.873304999999999865e+01 5.815420000000000300e+01 2.166564999999999600e+03
1.700000000000000122e-02 1.783349999999999935e-01 1.951164999999999949e+01 6.016170000000000329e+01 2.166875000000000000e+03
1.800000000000000211e-02 1.784129999999999883e-01 2.054785000000000039e+01 6.337125000000000341e+01 2.167494999999999891e+03
1.900000000000000300e-02 1.785165000000000224e-01 2.160065000000000168e+01 6.706669999999999732e+01 2.168309999999999945e+03
2.000000000000000042e-02 1.786214999999999886e-01 2.238519999999999754e+01 7.026834999999999809e+01 2.169155000000000200e+03
2.100000000000000130e-02 1.787030000000000007e-01 2.269494999999999862e+01 7.214539999999999509e+01 2.169824999999999818e+03
2.200000000000000219e-02 1.787440000000000140e-01 2.247704999999999842e+01 7.233660000000000423e+01 2.170184999999999945e+03
2.299999999999999961e-02 1.787424999999999986e-01 2.183464999999999989e+01 7.104304999999999382e+01 2.170210000000000036e+03
2.400000000000000050e-02 1.787074999999999914e-01 2.096419999999999817e+01 6.887845000000000084e+01 2.169954999999999927e+03
2.500000000000000139e-02 1.786544999999999939e-01 2.006520000000000081e+01 6.657150000000000034e+01 2.169550000000000182e+03
2.600000000000000228e-02 1.786010000000000097e-01 1.926480000000000103e+01 6.467095000000000482e+01 2.169125000000000000e+03
2.700000000000000316e-02 1.785559999999999925e-01 1.858719999999999928e+01 6.337694999999999368e+01 2.168755000000000109e+03
2.800000000000000058e-02 1.785204999999999986e-01 1.796940000000000026e+01 6.254240000000000066e+01 2.168470000000000255e+03
2.900000000000000147e-02 1.784904999999999964e-01 1.730989999999999895e+01 6.181020000000000181e+01 2.168224999999999909e+03
3.000000000000000236e-02 1.784569999999999768e-01 1.652489999999999881e+01 6.081099999999999994e+01 2.167960000000000036e+03
3.099999999999999978e-02 1.784129999999999883e-01 1.559350000000000058e+01 5.934295000000000186e+01 2.167619999999999891e+03
3.200000000000000067e-02 1.783575000000000021e-01 1.457604999999999862e+01 5.747225000000000250e+01 2.167180000000000291e+03
3.300000000000000155e-02 1.782960000000000100e-01 1.360055000000000014e+01 5.552474999999999739e+01 2.166699999999999818e+03
3.400000000000000244e-02 1.782394999999999952e-01 1.282290000000000063e+01 5.397634999999999650e+01 2.166244999999999891e+03
3.500000000000000333e-02 1.782015000000000127e-01 1.237640000000000029e+01 5.328620000000000090e+01 2.165930000000000291e+03
3.600000000000000422e-02 1.781920000000000170e-01 1.232840000000000025e+01 5.373685000000000400e+01 2.165829999999999927e+03
3.700000000000000511e-02 1.782154999999999989e-01 1.265889999999999915e+01 5.533610000000000184e+01 2.165994999999999891e+03
3.799999999999999906e-02 1.782690000000000108e-01 1.326505000000000045e+01 5.780760000000000076e+01 2.166400000000000091e+03
3.899999999999999994e-02 1.783434999999999881e-01 1.398675000000000068e+01 6.066150000000000375e+01 2.166980000000000018e+03
4.000000000000000083e-02 1.784239999999999993e-01 1.464290000000000092e+01 6.331449999999999534e+01 2.167605000000000018e+03
4.100000000000000172e-02 1.784939999999999860e-01 1.506709999999999994e+01 6.521829999999999927e+01 2.168164999999999964e+03
4.200000000000000261e-02 1.785395000000000176e-01 1.513534999999999897e+01 6.596309999999999718e+01 2.168539999999999964e+03
4.300000000000000350e-02 1.785494999999999999e-01 1.477970000000000006e+01 6.533599999999999852e+01 2.168639999999999873e+03
4.400000000000000439e-02 1.785194999999999976e-01 1.398954999999999949e+01 6.332864999999999611e+01 2.168420000000000073e+03
4.499999999999999833e-02 1.784494999999999831e-01 1.280161500000000174e+01 6.010275000000000034e+01 2.167885000000000218e+03
4.599999999999999922e-02 1.783440000000000025e-01 1.128493500000000083e+01 5.593070000000000164e+01 2.167059999999999945e+03
4.700000000000000011e-02 1.782104999999999939e-01 9.524630000000000152e+00 5.113030000000000541e+01 2.166005000000000109e+03
4.800000000000000100e-02 1.780570000000000208e-01 7.608905000000000030e+00 4.601160000000000139e+01 2.164795000000000073e+03
4.900000000000000189e-02 1.778929999999999956e-01 5.621729000000000198e+00 4.084369999999999834e+01 2.163494999999999891e+03
5.000000000000000278e-02 1.777254999999999807e-01 3.639775999999999900e+00 3.584459999999999980e+01 2.162159999999999854e+03
5.100000000000000366e-02 1.775619999999999976e-01 1.733369999999999855e+00 3.118654999999999688e+01 2.160859999999999673e+03
5.200000000000000455e-02 1.774080000000000101e-01 -3.139500000000006175e-02 2.701099999999999923e+01 2.159625000000000000e+03
5.300000000000000544e-02 1.772684999999999955e-01 -1.590849999999999653e+00 2.344379999999999953e+01 2.158510000000000218e+03
5.399999999999999939e-02 1.771479999999999999e-01 -2.883703999999999823e+00 2.060385000000000133e+01 2.157539999999999964e+03
5.500000000000000028e-02 1.770519999999999872e-01 -3.852960000000000385e+00 1.860490000000000066e+01 2.156760000000000218e+03
5.600000000000000117e-02 1.769835000000000158e-01 -4.449580000000000091e+00 1.754834999999999923e+01 2.156194999999999709e+03
5.700000000000000205e-02 1.769459999999999922e-01 -4.636919999999999931e+00 1.751174999999999926e+01 2.155869999999999891e+03
5.800000000000000294e-02 1.769430000000000169e-01 -4.394820000000000171e+00 1.853560000000000230e+01 2.155820000000000164e+03
5.900000000000000383e-02 1.769740000000000202e-01 -3.722374999999999989e+00 2.061364999999999981e+01 2.156039999999999964e+03
6.000000000000000472e-02 1.770399999999999752e-01 -2.638759499999999925e+00 2.368815000000000026e+01 2.156534999999999854e+03
6.099999999999999867e-02 1.771385000000000043e-01 -1.181939999999999991e+00 2.765220000000000056e+01 2.157289999999999964e+03
6.199999999999999956e-02 1.772664999999999935e-01 5.943199999999999594e-01 3.235795000000000243e+01 2.158279999999999745e+03
6.300000000000000044e-02 1.774180000000000201e-01 2.624595000000000233e+00 3.762845000000000084e+01 2.159470000000000255e+03
6.400000000000000133e-02 1.775895000000000112e-01 4.836377500000000218e+00 4.327214999999999634e+01 2.160815000000000055e+03
6.500000000000000222e-02 1.777734999999999732e-01 7.154650000000000176e+00 4.909604999999999819e+01 2.162269999999999982e+03
6.600000000000000311e-02 1.779644999999999977e-01 9.505950000000000344e+00 5.491779999999999973e+01 2.163789999999999964e+03
6.700000000000000400e-02 1.781570000000000098e-01 1.182226499999999980e+01 6.057550000000000523e+01 2.165329999999999927e+03
6.800000000000000488e-02 1.783454999999999901e-01 1.404414500000000032e+01 6.593540000000000134e+01 2.166840000000000146e+03
6.900000000000000577e-02 1.785260000000000180e-01 1.612330000000000041e+01 7.089754999999999541e+01 2.168295000000000073e+03
7.000000000000000666e-02 1.786955000000000071e-01 1.802495000000000047e+01 7.540004999999999313e+01 2.169659999999999854e+03
7.100000000000000755e-02 1.788509999999999822e-01 1.972899999999999920e+01 7.942034999999999911e+01 2.170925000000000182e+03
7.200000000000000844e-02 1.789919999999999844e-01 2.123010000000000019e+01 8.297454999999999359e+01 2.172079999999999927e+03
7.300000000000000933e-02 1.791194999999999871e-01 2.253705000000000069e+01 8.611350000000000193e+01 2.173125000000000000e+03
7.399999999999999634e-02 1.792350000000000054e-01 2.367070000000000007e+01 8.891610000000000014e+01 2.174070000000000164e+03
7.499999999999999722e-02 1.793399999999999994e-01 2.466105000000000302e+01 9.148040000000000305e+01 2.174930000000000291e+03
7.599999999999999811e-02 1.794379999999999864e-01 2.554380000000000095e+01 9.391315000000000168e+01 2.175734999999999673e+03
7.699999999999999900e-02 1.795315000000000105e-01 2.635665000000000191e+01 9.631945000000000334e+01 2.176510000000000218e+03
7.799999999999999989e-02 1.796244999999999925e-01 2.713544999999999874e+01 9.879269999999999641e+01 2.177275000000000091e+03
7.900000000000000078e-02 1.797190000000000176e-01 2.791159999999999997e+01 1.014073999999999955e+02 2.178050000000000182e+03
8.000000000000000167e-02 1.798180000000000056e-01 2.870909999999999940e+01 1.042119999999999891e+02 2.178855000000000018e+03
8.100000000000000255e-02 1.799224999999999852e-01 2.954319999999999879e+01 1.072274999999999920e+02 2.179704999999999927e+03
8.200000000000000344e-02 1.800325000000000120e-01 3.041975000000000051e+01 1.104484999999999957e+02 2.180600000000000364e+03
8.300000000000000433e-02 1.801484999999999892e-01 3.133525000000000205e+01 1.138414999999999964e+02 2.181539999999999964e+03
8.400000000000000522e-02 1.802694999999999992e-01 3.227765000000000128e+01 1.173524999999999920e+02 2.182519999999999982e+03
8.500000000000000611e-02 1.803930000000000256e-01 3.322784999999999656e+01 1.209104999999999990e+02 2.183525000000000091e+03
8.600000000000000699e-02 1.805170000000000108e-01 3.416149999999999665e+01 1.244350000000000023e+02 2.184539999999999964e+03
8.700000000000000788e-02 1.806399999999999950e-01 3.505095000000000027e+01 1.278389999999999986e+02 2.185539999999999964e+03
8.800000000000000877e-02 1.807584999999999886e-01 3.586724999999999852e+01 1.310384999999999991e+02 2.186505000000000109e+03
8.899999999999999578e-02 1.808694999999999886e-01 3.658244999999999436e+01 1.339550000000000125e+02 2.187414999999999964e+03
8.999999999999999667e-02 1.809709999999999930e-01 3.717109999999999559e+01 1.365219999999999914e+02 2.188255000000000109e+03
9.099999999999999756e-02 1.810614999999999863e-01 3.761194999999999311e+01 1.386870000000000118e+02 2.188994999999999891e+03
9.199999999999999845e-02 1.811384999999999801e-01 3.788920000000000243e+01 1.404134999999999991e+02 2.189630000000000109e+03
9.299999999999999933e-02 1.812010000000000010e-01 3.799329999999999785e+01 1.416834999999999809e+02 2.190150000000000091e+03
9.400000000000000022e-02 1.812479999999999924e-01 3.792149999999999466e+01 1.424979999999999905e+02 2.190555000000000291e+03
9.500000000000000111e-02 1.812805000000000111e-01 3.767784999999999940e+01 1.428754999999999882e+02 2.190835000000000036e+03
9.600000000000000200e-02 1.812989999999999879e-01 3.727289999999999992e+01 1.428489999999999895e+02 2.190994999999999891e+03
9.700000000000000289e-02 1.813035000000000063e-01 3.672294999999999732e+01 1.424669999999999845e+02 2.191045000000000073e+03
9.800000000000000377e-02 1.812960000000000127e-01 3.604885000000000161e+01 1.417870000000000061e+02 2.190994999999999891e+03
9.900000000000000466e-02 1.812790000000000235e-01 3.527519999999999811e+01 1.408729999999999905e+02 2.190864999999999782e+03
1.000000000000000056e-01 1.812535000000000118e-01 3.442849999999999966e+01 1.397934999999999945e+02 2.190670000000000073e+03
1.010000000000000064e-01 1.812219999999999942e-01 3.353629999999999711e+01 1.386165000000000020e+02 2.190420000000000073e+03
1.020000000000000073e-01 1.811875000000000013e-01 3.262539999999999907e+01 1.374050000000000011e+02 2.190144999999999982e+03
1.030000000000000082e-01 1.811504999999999921e-01 3.172090000000000032e+01 1.362180000000000177e+02 2.189844999999999800e+03
1.040000000000000091e-01 1.811139999999999972e-01 3.084510000000000218e+01 1.351045000000000016e+02 2.189545000000000073e+03
1.050000000000000100e-01 1.810785000000000033e-01 3.001650000000000063e+01 1.341034999999999968e+02 2.189264999999999873e+03
1.059999999999999970e-01 1.810470000000000135e-01 2.924920000000000186e+01 1.332429999999999950e+02 2.189000000000000000e+03
1.069999999999999979e-01 1.810184999999999989e-01 2.855209999999999937e+01 1.325364999999999895e+02 2.188769999999999982e+03
1.079999999999999988e-01 1.809955000000000036e-01 2.792924999999999969e+01 1.319869999999999948e+02 2.188574999999999818e+03
1.089999999999999997e-01 1.809759999999999980e-01 2.737930000000000064e+01 1.315840000000000032e+02 2.188409999999999854e+03
1.100000000000000006e-01 1.809614999999999974e-01 2.689605000000000246e+01 1.313050000000000068e+02 2.188284999999999854e+03
1.110000000000000014e-01 1.809505000000000141e-01 2.646909999999999741e+01 1.311184999999999832e+02 2.188190000000000055e+03
1.120000000000000023e-01 1.809419999999999917e-01 2.608425000000000082e+01 1.309855000000000018e+02 2.188114999999999782e+03
1.130000000000000032e-01 1.809350000000000125e-01 2.572504999999999953e+01 1.308609999999999900e+02 2.188055000000000291e+03
1.140000000000000041e-01 1.809280000000000055e-01 2.537335000000000207e+01 1.306984999999999957e+02 2.187989999999999782e+03
1.150000000000000050e-01 1.809195000000000109e-01 2.501069999999999993e+01 1.304510000000000218e+02 2.187920000000000073e+03
1.160000000000000059e-01 1.809080000000000132e-01 2.461949999999999861e+01 1.300765000000000100e+02 2.187829999999999927e+03
1.170000000000000068e-01 1.808925000000000116e-01 2.418419999999999703e+01 1.295384999999999991e+02 2.187699999999999818e+03
1.180000000000000077e-01 1.808720000000000050e-01 2.369229999999999947e+01 1.288100000000000023e+02 2.187534999999999854e+03
1.190000000000000085e-01 1.808450000000000057e-01 2.313499999999999801e+01 1.278739999999999952e+02 2.187315000000000055e+03
1.200000000000000094e-01 1.808120000000000005e-01 2.250789999999999935e+01 1.267255000000000109e+02 2.187050000000000182e+03
1.209999999999999964e-01 1.807715000000000016e-01 2.181139999999999901e+01 1.253725000000000023e+02 2.186720000000000255e+03
1.219999999999999973e-01 1.807245000000000101e-01 2.105049999999999955e+01 1.238344999999999914e+02 2.186345000000000255e+03
1.229999999999999982e-01 1.806725000000000136e-01 2.023454999999999870e+01 1.221415000000000077e+02 2.185920000000000073e+03
1.239999999999999991e-01 1.806145000000000111e-01 1.937689999999999912e+01 1.203329999999999984e+02 2.185460000000000036e+03
1.250000000000000000e-01 1.805535000000000057e-01 1.849380000000000024e+01 1.184555000000000007e+02 2.184960000000000036e+03
1.260000000000000009e-01 1.804899999999999838e-01 1.760369999999999990e+01 1.165589999999999975e+02 2.184444999999999709e+03
1.270000000000000018e-01 1.804260000000000030e-01 1.672610000000000241e+01 1.146949999999999932e+02 2.183930000000000291e+03
1.280000000000000027e-01 1.803624999999999812e-01 1.588030000000000008e+01 1.129145000000000039e+02 2.183414999999999964e+03
1.290000000000000036e-01 1.803024999999999767e-01 1.508464999999999989e+01 1.112614999999999981e+02 2.182920000000000073e+03
1.300000000000000044e-01 1.802460000000000173e-01 1.435539999999999949e+01 1.097764999999999986e+02 2.182465000000000146e+03
1.310000000000000053e-01 1.801949999999999941e-01 1.370609999999999928e+01 1.084894999999999925e+02 2.182045000000000073e+03
1.320000000000000062e-01 1.801504999999999912e-01 1.314700000000000024e+01 1.074235000000000042e+02 2.181675000000000182e+03
1.330000000000000071e-01 1.801125000000000087e-01 1.268445000000000000e+01 1.065889999999999986e+02 2.181364999999999782e+03
1.340000000000000080e-01 1.800825000000000065e-01 1.232120000000000104e+01 1.059890000000000043e+02 2.181110000000000127e+03
1.350000000000000089e-01 1.800599999999999978e-01 1.205614999999999881e+01 1.056154999999999973e+02 2.180920000000000073e+03
1.360000000000000098e-01 1.800444999999999962e-01 1.188485000000000014e+01 1.054540000000000077e+02 2.180789999999999964e+03
1.370000000000000107e-01 1.800364999999999882e-01 1.179980000000000118e+01 1.054819999999999993e+02 2.180715000000000146e+03
1.380000000000000115e-01 1.800344999999999862e-01 1.179095000000000049e+01 1.056724999999999994e+02 2.180690000000000055e+03
1.390000000000000124e-01 1.800374999999999892e-01 1.184639999999999915e+01 1.059935000000000116e+02 2.180710000000000036e+03
1.400000000000000133e-01 1.800455000000000250e-01 1.195299999999999940e+01 1.064134999999999991e+02 2.180769999999999982e+03
1.410000000000000142e-01 1.800565000000000082e-01 1.209700000000000131e+01 1.068979999999999961e+02 2.180855000000000018e+03
1.420000000000000151e-01 1.800709999999999811e-01 1.226454999999999984e+01 1.074149999999999920e+02 2.180960000000000036e+03
1.430000000000000160e-01 1.800855000000000095e-01 1.244249999999999901e+01 1.079344999999999999e+02 2.181079999999999927e+03
1.440000000000000169e-01 1.801010000000000111e-01 1.261870000000000047e+01 1.084304999999999950e+02 2.181210000000000036e+03
1.450000000000000178e-01 1.801159999999999983e-01 1.278245000000000076e+01 1.088804999999999978e+02 2.181324999999999818e+03
1.459999999999999909e-01 1.801304999999999990e-01 1.292490000000000094e+01 1.092669999999999959e+02 2.181440000000000055e+03
1.469999999999999918e-01 1.801424999999999832e-01 1.303930000000000078e+01 1.095775000000000006e+02 2.181539999999999964e+03
1.479999999999999927e-01 1.801524999999999932e-01 1.312110000000000021e+01 1.098050000000000068e+02 2.181619999999999891e+03
1.489999999999999936e-01 1.801599999999999868e-01 1.316795000000000115e+01 1.099489999999999981e+02 2.181684999999999945e+03
1.499999999999999944e-01 1.801649999999999918e-01 1.317980000000000018e+01 1.100124999999999886e+02 2.181724999999999909e+03
1.509999999999999953e-01 1.801670000000000216e-01 1.315850000000000009e+01 1.100030000000000001e+02 2.181750000000000000e+03
1.519999999999999962e-01 1.801675000000000082e-01 1.310769999999999946e+01 1.099325000000000045e+02 2.181750000000000000e+03
1.529999999999999971e-01 1.801659999999999928e-01 1.303255000000000052e+01 1.098164999999999907e+02 2.181739999999999782e+03
1.539999999999999980e-01 1.801630000000000176e-01 1.293895000000000017e+01 1.096699999999999875e+02 2.181720000000000255e+03
1.549999999999999989e-01 1.801590000000000136e-01 1.283370000000000033e+01 1.095109999999999957e+02 2.181690000000000055e+03
1.559999999999999998e-01 1.801544999999999952e-01 1.272350000000000136e+01 1.093549999999999898e+02 2.181654999999999745e+03
1.570000000000000007e-01 1.801504999999999912e-01 1.261459999999999937e+01 1.092175000000000011e+02 2.181625000000000000e+03
1.580000000000000016e-01 1.801464999999999872e-01 1.251295000000000002e+01 1.091105000000000018e+02 2.181595000000000255e+03
1.590000000000000024e-01 1.801439999999999986e-01 1.242314999999999969e+01 1.090444999999999993e+02 2.181570000000000164e+03
