# t [s], A [cm^2], U [cm/s], P [cPa], c [cm/s]
1.000000000000000021e-03 6.769830000000000014e-01 5.449000000000002453e-03 9.878149999999999409e+01 1.730809999999999945e+03
2.000000000000000042e-03 6.769764999999999810e-01 7.220350000000000379e-03 9.875339999999999918e+01 1.730799999999999955e+03
3.000000000000000062e-03 6.770540000000000447e-01 1.516139499999999973e-01 9.892034999999999911e+01 1.730839999999999918e+03
4.000000000000000083e-03 6.770825000000000315e-01 2.283554999999999890e-01 9.900874999999999204e+01 1.730860000000000127e+03
5.000000000000000104e-03 6.770114999999999883e-01 1.318910000000000082e-01 9.880174999999999841e+01 1.730820000000000164e+03
6.000000000000000125e-03 6.769294999999999618e-01 3.744999999999998330e-03 9.844284999999999286e+01 1.730744999999999891e+03
7.000000000000000146e-03 6.768315000000000303e-01 -1.671600000000000863e-01 9.795265000000000555e+01 1.730639999999999873e+03
8.000000000000000167e-03 6.766529999999999490e-01 -5.041599999999999415e-01 9.715774999999999295e+01 1.730474999999999909e+03
9.000000000000001055e-03 6.763909999999999645e-01 -1.011614999999999931e+00 9.599295000000000755e+01 1.730224999999999909e+03
1.000000000000000194e-02 6.760289999999999910e-01 -1.705040000000000111e+00 9.438360000000000127e+01 1.729884999999999991e+03
1.099999999999999936e-02 6.755409999999999471e-01 -2.605735000000000134e+00 9.223859999999999104e+01 1.729420000000000073e+03
1.200000000000000025e-02 6.749689999999999301e-01 -3.610599999999999810e+00 8.963620000000000232e+01 1.728840000000000146e+03
1.300000000000000114e-02 6.744155000000000566e-01 -4.488435999999999204e+00 8.688349999999999795e+01 1.728210000000000036e+03
1.400000000000000203e-02 6.739770000000000483e-01 -5.014370500000000064e+00 8.435839999999998895e+01 1.727599999999999909e+03
1.499999999999999944e-02 6.736865000000000769e-01 -5.088560000000000194e+00 8.231104999999999450e+01 1.727059999999999945e+03
1.600000000000000033e-02 6.735085000000000655e-01 -4.759409999999999918e+00 8.077185000000000059e+01 1.726625000000000000e+03
1.700000000000000122e-02 6.733679999999999666e-01 -4.174295000000000755e+00 7.957935000000000514e+01 1.726255000000000109e+03
1.800000000000000211e-02 6.731894999999999962e-01 -3.503239999999999910e+00 7.847794999999999277e+01 1.725904999999999973e+03
1.900000000000000300e-02 6.729270000000000529e-01 -2.869018999999999764e+00 7.723599999999999000e+01 1.725539999999999964e+03
2.000000000000000042e-02 6.725775000000000503e-01 -2.308403000000000205e+00 7.573529999999999518e+01 1.725130000000000109e+03
2.100000000000000130e-02 6.721740000000000492e-01 -1.779524999999999801e+00 7.399680000000000746e+01 1.724664999999999964e+03
2.200000000000000219e-02 6.717625000000000401e-01 -1.207354999999999734e+00 7.213515000000001010e+01 1.724179999999999836e+03
2.299999999999999961e-02 6.713744999999999852e-01 -5.388150000000000439e-01 7.027719999999999345e+01 1.723684999999999945e+03
2.400000000000000050e-02 6.710150000000000281e-01 2.201100000000000279e-01 6.848784999999999457e+01 1.723195000000000164e+03
2.500000000000000139e-02 6.706570000000000586e-01 9.962649999999997341e-01 6.673215000000000430e+01 1.722710000000000036e+03
2.600000000000000228e-02 6.702535000000000576e-01 1.666994999999999783e+00 6.487959999999999638e+01 1.722210000000000036e+03
2.700000000000000316e-02 6.697545000000000304e-01 2.094164999999999832e+00 6.274219999999999686e+01 1.721650000000000091e+03
2.800000000000000058e-02 6.691184999999999494e-01 2.163874999999999993e+00 6.013519999999999754e+01 1.721005000000000109e+03
2.900000000000000147e-02 6.683330000000000659e-01 1.820784999999999876e+00 5.694034999999999513e+01 1.720224999999999909e+03
3.000000000000000236e-02 6.674165000000000791e-01 1.085539999999999949e+00 5.315259999999999962e+01 1.719335000000000036e+03
3.099999999999999978e-02 6.664170000000000371e-01 4.979999999999940030e-02 4.889300000000000068e+01 1.718320000000000164e+03
3.200000000000000067e-02 6.653975000000000861e-01 -1.148629999999999818e+00 4.438595000000000113e+01 1.717250000000000000e+03
3.300000000000000155e-02 6.644269999999999898e-01 -2.358859999999999957e+00 3.991165000000000163e+01 1.716164999999999964e+03
3.400000000000000244e-02 6.635625000000000551e-01 -3.445854999999999890e+00 3.575359999999999872e+01 1.715134999999999991e+03
3.500000000000000333e-02 6.628460000000000463e-01 -4.308695000000000164e+00 3.215440000000000254e+01 1.714210000000000036e+03
3.600000000000000422e-02 6.623010000000000286e-01 -4.886835000000000484e+00 2.928869999999999862e+01 1.713434999999999945e+03
3.700000000000000511e-02 6.619340000000000224e-01 -5.156229999999999869e+00 2.725419999999999732e+01 1.712845000000000027e+03
3.799999999999999906e-02 6.617410000000000236e-01 -5.119234999999999758e+00 2.607805000000000106e+01 1.712454999999999927e+03
3.899999999999999994e-02 6.617094999999999505e-01 -4.792519999999999669e+00 2.573375000000000057e+01 1.712259999999999991e+03
4.000000000000000083e-02 6.618260000000000254e-01 -4.196229999999999905e+00 2.616250000000000142e+01 1.712259999999999991e+03
4.100000000000000172e-02 6.620774999999999855e-01 -3.347436000000000078e+00 2.729204999999999970e+01 1.712434999999999945e+03
4.200000000000000261e-02 6.624520000000000408e-01 -2.258795000000000108e+00 2.904955000000000354e+01 1.712769999999999982e+03
4.300000000000000350e-02 6.629374999999999574e-01 -9.417049999999997922e-01 3.136569999999999681e+01 1.713255000000000109e+03
4.400000000000000439e-02 6.635229999999999739e-01 5.883249999999997648e-01 3.417210000000000036e+01 1.713869999999999891e+03
4.499999999999999833e-02 6.641939999999999511e-01 2.306715000000000071e+00 3.739620000000000033e+01 1.714595000000000027e+03
4.599999999999999922e-02 6.649319999999999675e-01 4.177170000000000272e+00 4.095589999999999975e+01 1.715410000000000082e+03
4.700000000000000011e-02 6.657150000000000567e-01 6.152420000000000222e+00 4.475804999999999723e+01 1.716304999999999836e+03
4.800000000000000100e-02 6.665200000000000014e-01 8.177507500000000817e+00 4.870044999999999646e+01 1.717244999999999891e+03
4.900000000000000189e-02 6.673240000000000283e-01 1.019486999999999988e+01 5.267810000000000059e+01 1.718210000000000036e+03
5.000000000000000278e-02 6.681064999999999365e-01 1.215021499999999932e+01 5.659055000000000746e+01 1.719170000000000073e+03
5.100000000000000366e-02 6.688505000000000145e-01 1.399724499999999949e+01 6.035075000000000500e+01 1.720109999999999900e+03
5.200000000000000455e-02 6.695444999999999869e-01 1.570091999999999999e+01 6.389124999999999943e+01 1.721014999999999873e+03
5.300000000000000544e-02 6.701829999999999732e-01 1.723924999999999841e+01 6.716880000000000450e+01 1.721869999999999891e+03
5.399999999999999939e-02 6.707650000000000556e-01 1.860285000000000011e+01 7.016509999999999536e+01 1.722664999999999964e+03
5.500000000000000028e-02 6.712949999999999751e-01 1.979370000000000118e+01 7.288580000000000325e+01 1.723400000000000091e+03
5.600000000000000117e-02 6.717800000000000438e-01 2.082280000000000086e+01 7.535654999999999859e+01 1.724074999999999818e+03
5.700000000000000205e-02 6.722299999999999942e-01 2.170785000000000053e+01 7.761850000000001160e+01 1.724694999999999936e+03
5.800000000000000294e-02 6.726559999999999206e-01 2.247129999999999939e+01 7.972339999999999804e+01 1.725279999999999973e+03
5.900000000000000383e-02 6.730700000000000571e-01 2.313814999999999955e+01 8.172825000000000273e+01 1.725835000000000036e+03
6.000000000000000472e-02 6.734830000000000538e-01 2.373440000000000083e+01 8.369134999999999991e+01 1.726375000000000000e+03
6.099999999999999867e-02 6.739055000000000462e-01 2.428529999999999944e+01 8.566759999999999309e+01 1.726914999999999964e+03
6.199999999999999956e-02 6.743464999999999598e-01 2.481365000000000265e+01 8.770449999999999591e+01 1.727460000000000036e+03
6.300000000000000044e-02 6.748119999999999674e-01 2.533820000000000050e+01 8.983889999999999532e+01 1.728025000000000091e+03
6.400000000000000133e-02 6.753055000000000030e-01 2.587190000000000012e+01 9.209359999999999502e+01 1.728615000000000009e+03
6.500000000000000222e-02 6.758264999999999967e-01 2.642109999999999914e+01 9.447560000000000002e+01 1.729230000000000018e+03
6.600000000000000311e-02 6.763710000000000555e-01 2.698505000000000109e+01 9.697504999999999598e+01 1.729875000000000000e+03
6.700000000000000400e-02 6.769325000000000481e-01 2.755604999999999905e+01 9.956685000000000230e+01 1.730539999999999964e+03
6.800000000000000488e-02 6.775020000000000486e-01 2.812059999999999960e+01 1.022107000000000028e+02 1.731220000000000027e+03
6.900000000000000577e-02 6.780669999999999753e-01 2.866080000000000183e+01 1.048580000000000041e+02 1.731900000000000091e+03
7.000000000000000666e-02 6.786164999999999559e-01 2.915634999999999977e+01 1.074519999999999982e+02 1.732579999999999927e+03
7.100000000000000755e-02 6.791384999999999783e-01 2.958619999999999806e+01 1.099344999999999999e+02 1.733230000000000018e+03
7.200000000000000844e-02 6.796214999999999895e-01 2.993045000000000044e+01 1.122510000000000048e+02 1.733844999999999800e+03
7.300000000000000933e-02 6.800564999999999527e-01 3.017170000000000130e+01 1.143520000000000039e+02 1.734414999999999964e+03
7.399999999999999634e-02 6.804360000000000408e-01 3.029630000000000223e+01 1.161975000000000051e+02 1.734920000000000073e+03
7.499999999999999722e-02 6.807555000000000689e-01 3.029500000000000171e+01 1.177590000000000003e+02 1.735365000000000009e+03
7.599999999999999811e-02 6.810114999999999919e-01 3.016355000000000075e+01 1.190194999999999936e+02 1.735735000000000127e+03
7.699999999999999900e-02 6.812065000000000481e-01 2.990255000000000152e+01 1.199759999999999991e+02 1.736030000000000200e+03
7.799999999999999989e-02 6.813409999999999744e-01 2.951760000000000161e+01 1.206364999999999981e+02 1.736250000000000000e+03
7.900000000000000078e-02 6.814204999999999846e-01 2.901875000000000071e+01 1.210200000000000102e+02 1.736404999999999973e+03
8.000000000000000167e-02 6.814510000000000289e-01 2.842005000000000337e+01 1.211544999999999987e+02 1.736490000000000009e+03
8.100000000000000255e-02 6.814405000000000046e-01 2.773864999999999981e+01 1.210769999999999982e+02 1.736519999999999982e+03
8.200000000000000344e-02 6.813979999999999482e-01 2.699389999999999645e+01 1.208290000000000077e+02 1.736500000000000000e+03
8.300000000000000433e-02 6.813320000000000487e-01 2.620674999999999955e+01 1.204540000000000077e+02 1.736445000000000164e+03
8.400000000000000522e-02 6.812525000000000386e-01 2.539809999999999945e+01 1.199975000000000023e+02 1.736359999999999900e+03
8.500000000000000611e-02 6.811670000000000780e-01 2.458840000000000003e+01 1.195024999999999977e+02 1.736255000000000109e+03
8.600000000000000699e-02 6.810834999999999528e-01 2.379605000000000103e+01 1.190074999999999932e+02 1.736150000000000091e+03
8.700000000000000788e-02 6.810085000000000166e-01 2.303699999999999903e+01 1.185469999999999970e+02 1.736045000000000073e+03
8.800000000000000877e-02 6.809465000000000101e-01 2.232370000000000232e+01 1.181479999999999961e+02 1.735940000000000055e+03
8.899999999999999578e-02 6.809004999999999086e-01 2.166479999999999961e+01 1.178269999999999982e+02 1.735860000000000127e+03
8.999999999999999667e-02 6.808720000000000327e-01 2.106484999999999985e+01 1.175949999999999989e+02 1.735795000000000073e+03
9.099999999999999756e-02 6.808604999999999796e-01 2.052414999999999878e+01 1.174519999999999982e+02 1.735750000000000000e+03
9.199999999999999845e-02 6.808635000000000659e-01 2.003934999999999889e+01 1.173915000000000077e+02 1.735720000000000027e+03
9.299999999999999933e-02 6.808775000000000244e-01 1.960350000000000037e+01 1.173975000000000080e+02 1.735715000000000146e+03
9.400000000000000022e-02 6.808985000000000731e-01 1.920680000000000121e+01 1.174515000000000100e+02 1.735714999999999918e+03
9.500000000000000111e-02 6.809205000000000396e-01 1.883729999999999905e+01 1.175275000000000034e+02 1.735720000000000027e+03
9.600000000000000200e-02 6.809385000000000021e-01 1.848170000000000002e+01 1.175990000000000038e+02 1.735730000000000018e+03
9.700000000000000289e-02 6.809460000000000512e-01 1.812615000000000265e+01 1.176359999999999957e+02 1.735735000000000127e+03
9.800000000000000377e-02 6.809380000000000432e-01 1.775720000000000098e+01 1.176119999999999948e+02 1.735730000000000018e+03
9.900000000000000466e-02 6.809089999999999865e-01 1.736234999999999928e+01 1.175010000000000048e+02 1.735700000000000045e+03
1.000000000000000056e-01 6.808560000000000167e-01 1.693115000000000236e+01 1.172830000000000013e+02 1.735650000000000091e+03
1.010000000000000064e-01 6.807754999999999779e-01 1.645564999999999856e+01 1.169414999999999907e+02 1.735575000000000045e+03
1.020000000000000073e-01 6.806670000000000220e-01 1.593104999999999905e+01 1.164669999999999987e+02 1.735460000000000036e+03
1.030000000000000082e-01 6.805305000000000382e-01 1.535590000000000011e+01 1.158584999999999923e+02 1.735325000000000045e+03
1.040000000000000091e-01 6.803675000000000139e-01 1.473214999999999897e+01 1.151195000000000022e+02 1.735150000000000091e+03
1.050000000000000100e-01 6.801814999999999944e-01 1.406549499999999853e+01 1.142639999999999958e+02 1.734950000000000045e+03
1.059999999999999970e-01 6.799770000000000536e-01 1.336470999999999876e+01 1.133105000000000047e+02 1.734724999999999909e+03
1.069999999999999979e-01 6.797595000000000720e-01 1.264126500000000064e+01 1.122830000000000013e+02 1.734474999999999909e+03
1.079999999999999988e-01 6.795355000000000700e-01 1.190878999999999976e+01 1.112115000000000009e+02 1.734215000000000146e+03
1.089999999999999997e-01 6.793115000000000681e-01 1.118224499999999999e+01 1.101274999999999977e+02 1.733940000000000055e+03
1.100000000000000006e-01 6.790945000000000453e-01 1.047715999999999958e+01 1.090630000000000024e+02 1.733674999999999955e+03
1.110000000000000014e-01 6.788905000000000634e-01 9.808659999999999712e+00 1.080515000000000043e+02 1.733414999999999964e+03
1.120000000000000023e-01 6.787064999999999904e-01 9.190849999999999298e+00 1.071210000000000093e+02 1.733180000000000064e+03
1.130000000000000032e-01 6.785455000000000236e-01 8.635930000000000106e+00 1.062990000000000066e+02 1.732960000000000036e+03
1.140000000000000041e-01 6.784129999999999328e-01 8.153665000000000163e+00 1.056050000000000040e+02 1.732764999999999873e+03
1.150000000000000050e-01 6.783109999999999973e-01 7.750795000000000101e+00 1.050535000000000139e+02 1.732605000000000018e+03
1.160000000000000059e-01 6.782394999999999952e-01 7.430994999999999351e+00 1.046520000000000010e+02 1.732485000000000127e+03
1.170000000000000068e-01 6.781989999999999963e-01 7.194760000000000488e+00 1.044004999999999939e+02 1.732394999999999982e+03
1.180000000000000077e-01 6.781869999999999843e-01 7.039430000000000298e+00 1.042944999999999993e+02 1.732340000000000146e+03
1.190000000000000085e-01 6.782010000000000538e-01 6.959600000000000009e+00 1.043225000000000051e+02 1.732319999999999936e+03
1.200000000000000094e-01 6.782380000000000075e-01 6.947499999999999787e+00 1.044679999999999893e+02 1.732335000000000036e+03
1.209999999999999964e-01 6.782930000000000348e-01 6.993539999999999424e+00 1.047109999999999985e+02 1.732375000000000000e+03
1.219999999999999973e-01 6.783609999999999918e-01 7.086845000000000283e+00 1.050289999999999964e+02 1.732429999999999836e+03
1.229999999999999982e-01 6.784375000000000266e-01 7.215875000000000483e+00 1.054000000000000057e+02 1.732509999999999991e+03
1.239999999999999991e-01 6.785185000000000244e-01 7.368945000000000078e+00 1.057999999999999972e+02 1.732595000000000027e+03
1.250000000000000000e-01 6.785995000000000221e-01 7.534760000000000346e+00 1.062079999999999984e+02 1.732684999999999945e+03
1.260000000000000009e-01 6.786760000000000570e-01 7.702824999999999811e+00 1.066045000000000016e+02 1.732780000000000200e+03
1.270000000000000018e-01 6.787455000000000016e-01 7.863830000000000098e+00 1.069730000000000132e+02 1.732865000000000009e+03
1.280000000000000027e-01 6.788064999999999793e-01 8.009900000000000020e+00 1.072994999999999948e+02 1.732950000000000045e+03
1.290000000000000036e-01 6.788555000000000561e-01 8.134805000000000064e+00 1.075755000000000052e+02 1.733014999999999873e+03
1.300000000000000044e-01 6.788935000000000386e-01 8.234040000000000248e+00 1.077940000000000111e+02 1.733075000000000045e+03
1.310000000000000053e-01 6.789190000000000502e-01 8.304864999999999498e+00 1.079540000000000077e+02 1.733119999999999891e+03
1.320000000000000062e-01 6.789330000000000087e-01 8.346265000000000711e+00 1.080560000000000116e+02 1.733155000000000200e+03
1.330000000000000071e-01 6.789370000000000127e-01 8.358819999999999695e+00 1.081045000000000016e+02 1.733174999999999955e+03
1.340000000000000080e-01 6.789324999999999388e-01 8.344545000000000101e+00 1.081059999999999945e+02 1.733179999999999836e+03
1.350000000000000089e-01 6.789205000000000378e-01 8.306699999999999307e+00 1.080685000000000002e+02 1.733184999999999945e+03
1.360000000000000098e-01 6.789039999999999520e-01 8.249475000000000335e+00 1.080035000000000025e+02 1.733170000000000073e+03
1.370000000000000107e-01 6.788859999999999895e-01 8.177754999999999441e+00 1.079205000000000041e+02 1.733154999999999973e+03
1.380000000000000115e-01 6.788669999999999982e-01 8.096775000000000944e+00 1.078315000000000055e+02 1.733144999999999982e+03
1.390000000000000124e-01 6.788499999999999535e-01 8.011814999999998577e+00 1.077464999999999975e+02 1.733125000000000000e+03
1.400000000000000133e-01 6.788374999999999826e-01 7.927904999999999980e+00 1.076749999999999972e+02 1.733110000000000127e+03
1.410000000000000142e-01 6.788300000000000445e-01 7.849534999999999485e+00 1.076255000000000024e+02 1.733095000000000027e+03
1.420000000000000151e-01 6.788289999999999047e-01 7.780434999999999768e+00 1.076040000000000134e+02 1.733095000000000027e+03
1.430000000000000160e-01 6.788349999999999662e-01 7.723405000000000520e+00 1.076144999999999925e+02 1.733095000000000027e+03
1.440000000000000169e-01 6.788484999999999658e-01 7.680205000000000837e+00 1.076589999999999918e+02 1.733105000000000018e+03
1.450000000000000178e-01 6.788684999999999858e-01 7.651545000000000485e+00 1.077369999999999948e+02 1.733125000000000000e+03
1.459999999999999909e-01 6.788944999999999563e-01 7.637090000000000600e+00 1.078449999999999989e+02 1.733150000000000091e+03
1.469999999999999918e-01 6.789255000000000706e-01 7.635635000000000616e+00 1.079799999999999898e+02 1.733174999999999955e+03
1.479999999999999927e-01 6.789609999999999257e-01 7.645199999999999996e+00 1.081345000000000027e+02 1.733214999999999918e+03
1.489999999999999936e-01 6.789974999999999206e-01 7.663275000000000503e+00 1.083035000000000139e+02 1.733255000000000109e+03
1.499999999999999944e-01 6.790355000000000141e-01 7.687005000000000976e+00 1.084774999999999920e+02 1.733300000000000182e+03
1.509999999999999953e-01 6.790720000000000089e-01 7.713420000000000165e+00 1.086504999999999939e+02 1.733340000000000146e+03
1.519999999999999962e-01 6.791059999999999874e-01 7.739645000000000330e+00 1.088155000000000001e+02 1.733380000000000109e+03
1.529999999999999971e-01 6.791370000000001017e-01 7.763065000000000104e+00 1.089664999999999964e+02 1.733414999999999964e+03
1.539999999999999980e-01 6.791629999999999612e-01 7.781480000000000175e+00 1.090990000000000038e+02 1.733454999999999927e+03
1.549999999999999989e-01 6.791849999999999277e-01 7.793190000000000062e+00 1.092085000000000008e+02 1.733480000000000018e+03
1.559999999999999998e-01 6.792015000000000136e-01 7.797114999999999796e+00 1.092950000000000017e+02 1.733505000000000109e+03
1.570000000000000007e-01 6.792134999999999145e-01 7.792785000000000295e+00 1.093569999999999993e+02 1.733525000000000091e+03
1.580000000000000016e-01 6.792200000000000459e-01 7.780355000000000132e+00 1.093969999999999914e+02 1.733539999999999964e+03
1.590000000000000024e-01 6.792234999999999800e-01 7.760600000000000165e+00 1.094175000000000040e+02 1.733549999999999955e+03
