# t [s], A [cm^2], U [cm/s], P [cPa], c [cm/s]
1.000000000000000021e-03 6.452744999999999731e-01 6.707499999999998186e-03 9.071950000000001069e+01 1.823965000000000146e+03
2.000000000000000042e-03 6.452674999999999939e-01 8.113650000000000029e-03 9.068365000000000009e+01 1.823960000000000036e+03
3.000000000000000062e-03 6.453430000000000000e-01 1.718071999999999933e-01 9.087790000000001100e+01 1.823994999999999891e+03
4.000000000000000083e-03 6.453600000000000447e-01 2.437825000000000131e-01 9.094620000000000459e+01 1.824005000000000109e+03
5.000000000000000104e-03 6.452714999999999979e-01 1.105344999999999800e-01 9.063949999999999818e+01 1.823949999999999818e+03
6.000000000000000125e-03 6.451899999999999302e-01 -2.497949999999993231e-02 9.020699999999999363e+01 1.823865000000000009e+03
7.000000000000000146e-03 6.450770000000000115e-01 -2.431400000000000228e-01 8.959069999999999823e+01 1.823740000000000009e+03
8.000000000000000167e-03 6.448739999999999473e-01 -6.692999999999998950e-01 8.858405000000000484e+01 1.823534999999999854e+03
9.000000000000001055e-03 6.445929999999999715e-01 -1.276024999999999965e+00 8.715844999999998777e+01 1.823255000000000109e+03
1.000000000000000194e-02 6.442044999999999577e-01 -2.105069999999999997e+00 8.519979999999999620e+01 1.822855000000000018e+03
1.099999999999999936e-02 6.436925000000000008e-01 -3.161090000000000177e+00 8.262514999999999077e+01 1.822329999999999927e+03
1.200000000000000025e-02 6.431409999999999627e-01 -4.241625000000000867e+00 7.966714999999999236e+01 1.821710000000000036e+03
1.300000000000000114e-02 6.426799999999999180e-01 -5.029668749999999910e+00 7.681889999999999930e+01 1.821079999999999927e+03
1.400000000000000203e-02 6.423875000000000002e-01 -5.311164999999999914e+00 7.451550000000000296e+01 1.820534999999999854e+03
1.499999999999999944e-02 6.422464999999999424e-01 -5.081139999999999546e+00 7.290055000000000973e+01 1.820105000000000018e+03
1.600000000000000033e-02 6.421734999999999527e-01 -4.506504999999999761e+00 7.180480000000000018e+01 1.819775000000000091e+03
1.700000000000000122e-02 6.420690000000000008e-01 -3.819504999999999928e+00 7.087530000000000996e+01 1.819485000000000127e+03
1.800000000000000211e-02 6.418639999999999901e-01 -3.204914999999999736e+00 6.976160000000000139e+01 1.819174999999999955e+03
1.900000000000000300e-02 6.415505000000000235e-01 -2.725216999999999778e+00 6.827630000000000621e+01 1.818804999999999836e+03
2.000000000000000042e-02 6.411719999999999642e-01 -2.317154999999999632e+00 6.645494999999999663e+01 1.818365000000000009e+03
2.100000000000000130e-02 6.407924999999999871e-01 -1.857225000000000126e+00 6.449150000000000205e+01 1.817900000000000091e+03
2.200000000000000219e-02 6.404615000000000169e-01 -1.250385000000000080e+00 6.260155000000000314e+01 1.817434999999999945e+03
2.299999999999999961e-02 6.401835000000000164e-01 -4.912199999999999900e-01 6.089734999999999587e+01 1.817005000000000109e+03
2.400000000000000050e-02 6.399250000000000771e-01 3.225300000000002054e-01 5.932600000000000051e+01 1.816589999999999918e+03
2.500000000000000139e-02 6.396209999999999951e-01 1.017940000000000067e+00 5.767980000000000018e+01 1.816170000000000073e+03
2.600000000000000228e-02 6.392020000000000479e-01 1.401045000000000096e+00 5.566479999999999961e+01 1.815690000000000055e+03
2.700000000000000316e-02 6.386199999999999655e-01 1.320800000000000640e+00 5.300525000000000375e+01 1.815079999999999927e+03
2.800000000000000058e-02 6.378650000000000153e-01 7.228949999999998433e-01 4.955075000000000074e+01 1.814329999999999927e+03
2.900000000000000147e-02 6.369744999999999990e-01 -3.283699999999996066e-01 4.534579999999999700e+01 1.813420000000000073e+03
3.000000000000000236e-02 6.360215000000000174e-01 -1.670644999999999492e+00 4.063020000000000209e+01 1.812394999999999982e+03
3.099999999999999978e-02 6.350919999999999899e-01 -3.093909999999999716e+00 3.577649999999999864e+01 1.811324999999999818e+03
3.200000000000000067e-02 6.342665000000000664e-01 -4.395305000000000462e+00 3.119859999999999900e+01 1.810285000000000082e+03
3.300000000000000155e-02 6.336030000000000273e-01 -5.417690000000000339e+00 2.726800000000000068e+01 1.809365000000000009e+03
3.400000000000000244e-02 6.331340000000000856e-01 -6.065952499999999858e+00 2.425865000000000293e+01 1.808615000000000009e+03
3.500000000000000333e-02 6.328685000000000560e-01 -6.304425000000000168e+00 2.232469999999999999e+01 1.808085000000000036e+03
3.600000000000000422e-02 6.327979999999999716e-01 -6.141154999999999475e+00 2.150805000000000078e+01 1.807789999999999964e+03
3.700000000000000511e-02 6.329044999999999810e-01 -5.607274999999999565e+00 2.176640000000000086e+01 1.807740000000000009e+03
3.799999999999999906e-02 6.331705000000000805e-01 -4.737357999999999514e+00 2.300999999999999801e+01 1.807909999999999854e+03
3.899999999999999994e-02 6.335794999999999622e-01 -3.556610000000000049e+00 2.513704999999999856e+01 1.808295000000000073e+03
4.000000000000000083e-02 6.341194999999999471e-01 -2.077985000000000415e+00 2.805499999999999972e+01 1.808865000000000009e+03
4.100000000000000172e-02 6.347840000000000149e-01 -3.084150000000001057e-01 3.168594999999999828e+01 1.809615000000000009e+03
4.200000000000000261e-02 6.355619999999999603e-01 1.740264999999999951e+00 3.595790000000000219e+01 1.810519999999999982e+03
4.300000000000000350e-02 6.364395000000000469e-01 4.041444999999999510e+00 4.079090000000000060e+01 1.811559999999999945e+03
4.400000000000000439e-02 6.373965000000000325e-01 6.548489999999999256e+00 4.608579999999999899e+01 1.812719999999999800e+03
4.499999999999999833e-02 6.384069999999999467e-01 9.196405000000000385e+00 5.171999999999999886e+01 1.813970000000000027e+03
4.599999999999999922e-02 6.394425000000000248e-01 1.190786500000000103e+01 5.755280000000000484e+01 1.815280000000000200e+03
4.700000000000000011e-02 6.404745000000000577e-01 1.460294500000000006e+01 6.343670000000000186e+01 1.816619999999999891e+03
4.800000000000000100e-02 6.414790000000000214e-01 1.720795000000000030e+01 6.923220000000000596e+01 1.817960000000000036e+03
4.900000000000000189e-02 6.424380000000000646e-01 1.966310000000000002e+01 7.482165000000000532e+01 1.819269999999999982e+03
5.000000000000000278e-02 6.433394999999999531e-01 2.192630000000000123e+01 8.011889999999999645e+01 1.820534999999999854e+03
5.100000000000000366e-02 6.441790000000000571e-01 2.397400000000000020e+01 8.507454999999998790e+01 1.821730000000000018e+03
5.200000000000000455e-02 6.449584999999999901e-01 2.579919999999999902e+01 8.967320000000000846e+01 1.822855000000000018e+03
5.300000000000000544e-02 6.456834999999999658e-01 2.740794999999999959e+01 9.393119999999998981e+01 1.823914999999999964e+03
5.399999999999999939e-02 6.463634999999999797e-01 2.881609999999999872e+01 9.788759999999999195e+01 1.824900000000000091e+03
5.500000000000000028e-02 6.470095000000000152e-01 3.004649999999999821e+01 1.015982999999999947e+02 1.825835000000000036e+03
5.600000000000000117e-02 6.476325000000000554e-01 3.112614999999999910e+01 1.051288499999999999e+02 1.826724999999999909e+03
5.700000000000000205e-02 6.482449999999999601e-01 3.208530000000000371e+01 1.085494999999999948e+02 1.827579999999999927e+03
5.800000000000000294e-02 6.488579999999999348e-01 3.295449999999999591e+01 1.119290000000000020e+02 1.828424999999999955e+03
5.900000000000000383e-02 6.494820000000000038e-01 3.376279999999999859e+01 1.153289999999999935e+02 1.829264999999999873e+03
6.000000000000000472e-02 6.501240000000000352e-01 3.453470000000000084e+01 1.187974999999999994e+02 1.830115000000000009e+03
6.099999999999999867e-02 6.507884999999999920e-01 3.528744999999999976e+01 1.223654999999999973e+02 1.830980000000000018e+03
6.199999999999999956e-02 6.514729999999999688e-01 3.602909999999999968e+01 1.260409999999999968e+02 1.831875000000000000e+03
6.300000000000000044e-02 6.521734999999999616e-01 3.675754999999999484e+01 1.298070000000000164e+02 1.832779999999999973e+03
6.400000000000000133e-02 6.528800000000000159e-01 3.746134999999999593e+01 1.336250000000000000e+02 1.833700000000000045e+03
6.500000000000000222e-02 6.535815000000000374e-01 3.812134999999999962e+01 1.374359999999999786e+02 1.834619999999999891e+03
6.600000000000000311e-02 6.542630000000000390e-01 3.871370000000000289e+01 1.411675000000000182e+02 1.835525000000000091e+03
6.700000000000000400e-02 6.549110000000000209e-01 3.921255000000000024e+01 1.447425000000000068e+02 1.836404999999999973e+03
6.800000000000000488e-02 6.555115000000000247e-01 3.959340000000000259e+01 1.480849999999999795e+02 1.837224999999999909e+03
6.900000000000000577e-02 6.560540000000000260e-01 3.983480000000000132e+01 1.511259999999999764e+02 1.837990000000000009e+03
7.000000000000000666e-02 6.565294999999999881e-01 3.992059999999999320e+01 1.538100000000000023e+02 1.838674999999999955e+03
7.100000000000000755e-02 6.569324999999999193e-01 3.984040000000000248e+01 1.560980000000000132e+02 1.839269999999999982e+03
7.200000000000000844e-02 6.572605000000000253e-01 3.959035000000000082e+01 1.579664999999999964e+02 1.839775000000000091e+03
7.300000000000000933e-02 6.575135000000000840e-01 3.917305000000000348e+01 1.594114999999999895e+02 1.840175000000000182e+03
7.399999999999999634e-02 6.576954999999999885e-01 3.859725000000000250e+01 1.604465000000000146e+02 1.840485000000000127e+03
7.499999999999999722e-02 6.578109999999999236e-01 3.787754999999999939e+01 1.610974999999999966e+02 1.840699999999999818e+03
7.599999999999999811e-02 6.578690000000000371e-01 3.703309999999999746e+01 1.614069999999999823e+02 1.840829999999999927e+03
7.699999999999999900e-02 6.578785000000000327e-01 3.608745000000000402e+01 1.614245000000000232e+02 1.840889999999999873e+03
7.799999999999999989e-02 6.578494999999999759e-01 3.506674999999999898e+01 1.612094999999999914e+02 1.840880000000000109e+03
7.900000000000000078e-02 6.577934999999999199e-01 3.399869999999999948e+01 1.608224999999999909e+02 1.840829999999999927e+03
8.000000000000000167e-02 6.577219999999999178e-01 3.291105000000000302e+01 1.603269999999999982e+02 1.840744999999999891e+03
8.100000000000000255e-02 6.576435000000000475e-01 3.183015000000000327e+01 1.597819999999999823e+02 1.840639999999999873e+03
8.200000000000000344e-02 6.575685000000000002e-01 3.077944999999999709e+01 1.592409999999999854e+02 1.840530000000000200e+03
8.300000000000000433e-02 6.575035000000000185e-01 2.977834999999999610e+01 1.587504999999999882e+02 1.840420000000000073e+03
8.400000000000000522e-02 6.574534999999999130e-01 2.884134999999999849e+01 1.583435000000000059e+02 1.840325000000000045e+03
8.500000000000000611e-02 6.574219999999999509e-01 2.797739999999999938e+01 1.580444999999999993e+02 1.840244999999999891e+03
8.600000000000000699e-02 6.574105000000000087e-01 2.719004999999999939e+01 1.578629999999999995e+02 1.840195000000000164e+03
8.700000000000000788e-02 6.574174999999999880e-01 2.647715000000000174e+01 1.577980000000000018e+02 1.840164999999999964e+03
8.800000000000000877e-02 6.574400000000000244e-01 2.583180000000000121e+01 1.578389999999999986e+02 1.840159999999999854e+03
8.899999999999999578e-02 6.574744999999999617e-01 2.524305000000000021e+01 1.579630000000000223e+02 1.840175000000000182e+03
8.999999999999999667e-02 6.575145000000000017e-01 2.469655000000000200e+01 1.581430000000000007e+02 1.840204999999999927e+03
9.099999999999999756e-02 6.575545000000000417e-01 2.417569999999999908e+01 1.583455000000000155e+02 1.840240000000000009e+03
9.199999999999999845e-02 6.575884999999999092e-01 2.366264999999999930e+01 1.585339999999999918e+02 1.840279999999999973e+03
9.299999999999999933e-02 6.576094999999999580e-01 2.313935000000000031e+01 1.586730000000000018e+02 1.840304999999999836e+03
9.400000000000000022e-02 6.576124999999999332e-01 2.258899999999999864e+01 1.587270000000000039e+02 1.840319999999999936e+03
9.500000000000000111e-02 6.575919999999999543e-01 2.199674999999999869e+01 1.586659999999999968e+02 1.840305000000000064e+03
9.600000000000000200e-02 6.575450000000000461e-01 2.135114999999999696e+01 1.584675000000000011e+02 1.840269999999999982e+03
9.700000000000000289e-02 6.574694999999999290e-01 2.064464999999999861e+01 1.581154999999999973e+02 1.840199999999999818e+03
9.800000000000000377e-02 6.573655000000000470e-01 1.987424999999999997e+01 1.576050000000000182e+02 1.840089999999999918e+03
9.900000000000000466e-02 6.572339999999999849e-01 1.904194999999999993e+01 1.569404999999999859e+02 1.839950000000000045e+03
1.000000000000000056e-01 6.570799999999999974e-01 1.815440000000000254e+01 1.561360000000000241e+02 1.839779999999999973e+03
1.010000000000000064e-01 6.569070000000000187e-01 1.722269999999999968e+01 1.552164999999999964e+02 1.839574999999999818e+03
1.020000000000000073e-01 6.567224999999999868e-01 1.626154999999999973e+01 1.542129999999999939e+02 1.839349999999999909e+03
1.030000000000000082e-01 6.565320000000000045e-01 1.528839999999999932e+01 1.531624999999999943e+02 1.839115000000000009e+03
1.040000000000000091e-01 6.563449999999999562e-01 1.432208500000000129e+01 1.521059999999999945e+02 1.838869999999999891e+03
1.050000000000000100e-01 6.561669999999999447e-01 1.338203000000000031e+01 1.510849999999999795e+02 1.838634999999999991e+03
1.059999999999999970e-01 6.560060000000000890e-01 1.248684000000000083e+01 1.501379999999999768e+02 1.838410000000000082e+03
1.069999999999999979e-01 6.558669999999999778e-01 1.165302499999999952e+01 1.493009999999999877e+02 1.838204999999999927e+03
1.079999999999999988e-01 6.557549999999999768e-01 1.089451000000000036e+01 1.486020000000000039e+02 1.838025000000000091e+03
1.089999999999999997e-01 6.556729999999999503e-01 1.022147999999999968e+01 1.480610000000000070e+02 1.837884999999999991e+03
1.100000000000000006e-01 6.556214999999999682e-01 9.640064999999999884e+00 1.476899999999999977e+02 1.837780000000000200e+03
1.110000000000000014e-01 6.556005000000000305e-01 9.152295000000000513e+00 1.474909999999999854e+02 1.837710000000000036e+03
1.120000000000000023e-01 6.556079999999999686e-01 8.755910000000000082e+00 1.474560000000000173e+02 1.837680000000000064e+03
1.130000000000000032e-01 6.556410000000000293e-01 8.444910000000000139e+00 1.475710000000000264e+02 1.837684999999999945e+03
1.140000000000000041e-01 6.556939999999999991e-01 8.210195000000000576e+00 1.478125000000000000e+02 1.837720000000000027e+03
1.150000000000000050e-01 6.557625000000000259e-01 8.040124999999999744e+00 1.481529999999999916e+02 1.837779999999999973e+03
1.160000000000000059e-01 6.558410000000000073e-01 7.921385000000000787e+00 1.485634999999999764e+02 1.837865000000000009e+03
1.170000000000000068e-01 6.559235000000001037e-01 7.839834999999999887e+00 1.490115000000000123e+02 1.837950000000000045e+03
1.180000000000000077e-01 6.560049999999999493e-01 7.781225000000000058e+00 1.494664999999999964e+02 1.838049999999999955e+03
1.190000000000000085e-01 6.560805000000000664e-01 7.731939999999999813e+00 1.498994999999999891e+02 1.838144999999999982e+03
1.200000000000000094e-01 6.561455000000000481e-01 7.679545000000000954e+00 1.502849999999999966e+02 1.838230000000000018e+03
1.209999999999999964e-01 6.561974999999999891e-01 7.613244999999999152e+00 1.506020000000000039e+02 1.838309999999999945e+03
1.219999999999999973e-01 6.562330000000000663e-01 7.524245000000000516e+00 1.508360000000000127e+02 1.838365000000000009e+03
1.229999999999999982e-01 6.562509999999999177e-01 7.405930000000000568e+00 1.509750000000000227e+02 1.838404999999999973e+03
1.239999999999999991e-01 6.562514999999999876e-01 7.253949999999999676e+00 1.510140000000000100e+02 1.838420000000000073e+03
1.250000000000000000e-01 6.562350000000000128e-01 7.066259999999999764e+00 1.509530000000000030e+02 1.838414999999999964e+03
1.260000000000000009e-01 6.562004999999999644e-01 6.842934999999999768e+00 1.507955000000000041e+02 1.838389999999999873e+03
1.270000000000000018e-01 6.561524999999999164e-01 6.586075000000000124e+00 1.505490000000000066e+02 1.838345000000000027e+03
1.280000000000000027e-01 6.560909999999999798e-01 6.299445000000000405e+00 1.502259999999999991e+02 1.838275000000000091e+03
1.290000000000000036e-01 6.560190000000000188e-01 5.988229999999999720e+00 1.498380000000000223e+02 1.838190000000000055e+03
1.300000000000000044e-01 6.559399999999999675e-01 5.658599999999999852e+00 1.494010000000000105e+02 1.838099999999999909e+03
1.310000000000000053e-01 6.558559999999999945e-01 5.317334999999999923e+00 1.489290000000000020e+02 1.837994999999999891e+03
1.320000000000000062e-01 6.557699999999999640e-01 4.971344999999999459e+00 1.484379999999999882e+02 1.837889999999999873e+03
1.330000000000000071e-01 6.556835000000000857e-01 4.627315000000000289e+00 1.479410000000000025e+02 1.837775000000000091e+03
1.340000000000000080e-01 6.555995000000000017e-01 4.291269999999999918e+00 1.474495000000000005e+02 1.837659999999999854e+03
1.350000000000000089e-01 6.555180000000000451e-01 3.968304999999999971e+00 1.469735000000000014e+02 1.837545000000000073e+03
1.360000000000000098e-01 6.554415000000000102e-01 3.662360000000000060e+00 1.465185000000000173e+02 1.837434999999999945e+03
1.370000000000000107e-01 6.553700000000000081e-01 3.376095000000000290e+00 1.460885000000000105e+02 1.837335000000000036e+03
1.380000000000000115e-01 6.553020000000000511e-01 3.110915000000000319e+00 1.456834999999999809e+02 1.837235000000000127e+03
1.390000000000000124e-01 6.552379999999999871e-01 2.867070000000000007e+00 1.453020000000000209e+02 1.837139999999999873e+03
1.400000000000000133e-01 6.551770000000000094e-01 2.643824999999999648e+00 1.449410000000000025e+02 1.837050000000000182e+03
1.410000000000000142e-01 6.551180000000000891e-01 2.439750000000000085e+00 1.445930000000000177e+02 1.836965000000000146e+03
1.420000000000000151e-01 6.550594999999999057e-01 2.252955000000000041e+00 1.442535000000000025e+02 1.836880000000000109e+03
1.430000000000000160e-01 6.550009999999999444e-01 2.081409999999999982e+00 1.439164999999999850e+02 1.836795000000000073e+03
1.440000000000000169e-01 6.549415000000000653e-01 1.923127499999999879e+00 1.435765000000000100e+02 1.836715000000000146e+03
1.450000000000000178e-01 6.548795000000000588e-01 1.776399999999999979e+00 1.432289999999999850e+02 1.836630000000000109e+03
1.459999999999999909e-01 6.548160000000000647e-01 1.639912499999999884e+00 1.428725000000000023e+02 1.836539999999999964e+03
1.469999999999999918e-01 6.547499999999999432e-01 1.512812000000000046e+00 1.425054999999999836e+02 1.836449999999999818e+03
1.479999999999999927e-01 6.546825000000000561e-01 1.394716999999999985e+00 1.421290000000000191e+02 1.836360000000000127e+03
1.489999999999999936e-01 6.546134999999999593e-01 1.285700999999999983e+00 1.417450000000000045e+02 1.836265000000000100e+03
1.499999999999999944e-01 6.545440000000000147e-01 1.186210500000000057e+00 1.413575000000000159e+02 1.836170000000000073e+03
1.509999999999999953e-01 6.544744999999999591e-01 1.096985699999999841e+00 1.409710000000000036e+02 1.836075000000000045e+03
1.519999999999999962e-01 6.544065000000000021e-01 1.018969250000000049e+00 1.405905000000000200e+02 1.835985000000000127e+03
1.529999999999999971e-01 6.543404999999999916e-01 9.531937999999999800e-01 1.402219999999999800e+02 1.835894999999999982e+03
1.539999999999999980e-01 6.542779999999999152e-01 9.007173900000000621e-01 1.398709999999999809e+02 1.835804999999999836e+03
1.549999999999999989e-01 6.542189999999999950e-01 8.625072000000000294e-01 1.395425000000000182e+02 1.835724999999999909e+03
1.559999999999999998e-01 6.541649999999999965e-01 8.393999500000000058e-01 1.392409999999999854e+02 1.835650000000000091e+03
1.570000000000000007e-01 6.541174999999999073e-01 8.320080000000000808e-01 1.389699999999999989e+02 1.835579999999999927e+03
1.580000000000000016e-01 6.540749999999999620e-01 8.406949999999999701e-01 1.387330000000000041e+02 1.835515000000000100e+03
1.590000000000000024e-01 6.540394999999999959e-01 8.655315000000000092e-01 1.385324999999999989e+02 1.835464999999999918e+03
