# t [s], A [cm^2], U [cm/s], P [cPa], c [cm/s]
1.000000000000000021e-03 5.420209999999999750e-01 3.350100000000001688e-03 9.304200000000000159e+01 1.442289999999999964e+03
2.000000000000000042e-03 5.420144999999999547e-01 2.988599999999997509e-04 9.302915000000000134e+01 1.442289999999999964e+03
3.000000000000000062e-03 5.420285000000000242e-01 2.385900000000000173e-02 9.304840000000000089e+01 1.442295000000000073e+03
4.000000000000000083e-03 5.420724999999999572e-01 9.948009999999998798e-02 9.313599999999999568e+01 1.442324999999999818e+03
5.000000000000000104e-03 5.420960000000000223e-01 1.470108999999999999e-01 9.319514999999999816e+01 1.442340000000000146e+03
6.000000000000000125e-03 5.420780000000000598e-01 1.253867999999999927e-01 9.315889999999998849e+01 1.442335000000000036e+03
7.000000000000000146e-03 5.420395000000000074e-01 6.553650000000002529e-02 9.304370000000000118e+01 1.442305000000000064e+03
8.000000000000000167e-03 5.420070000000000165e-01 1.403450000000000530e-02 9.290200000000000102e+01 1.442264999999999873e+03
9.000000000000001055e-03 5.419690000000000341e-01 -5.135600000000001275e-02 9.272104999999999109e+01 1.442224999999999909e+03
1.000000000000000194e-02 5.419055000000000399e-01 -1.711964999999999737e-01 9.245519999999999072e+01 1.442150000000000091e+03
1.099999999999999936e-02 5.418100000000000138e-01 -3.589705000000000257e-01 9.207554999999999268e+01 1.442054999999999836e+03
1.200000000000000025e-02 5.416769999999999641e-01 -6.216000000000000414e-01 9.155705000000000382e+01 1.441920000000000073e+03
1.300000000000000114e-02 5.414959999999999773e-01 -9.718749999999999334e-01 9.086539999999999395e+01 1.441740000000000009e+03
1.400000000000000203e-02 5.412635000000000085e-01 -1.408725000000000227e+00 8.997830000000000439e+01 1.441500000000000000e+03
1.499999999999999944e-02 5.409920000000000284e-01 -1.896910000000000096e+00 8.891304999999999836e+01 1.441210000000000036e+03
1.600000000000000033e-02 5.407085000000000363e-01 -2.371134999999999771e+00 8.773035000000000139e+01 1.440880000000000109e+03
1.700000000000000122e-02 5.404400000000000315e-01 -2.759924999999999962e+00 8.651265000000000782e+01 1.440525000000000091e+03
1.800000000000000211e-02 5.402055000000000051e-01 -3.010196500000000164e+00 8.533424999999999727e+01 1.440164999999999964e+03
1.900000000000000300e-02 5.400099999999999900e-01 -3.099540999999999880e+00 8.424025000000000318e+01 1.439820000000000164e+03
2.000000000000000042e-02 5.398430000000000728e-01 -3.035336999999999730e+00 8.324029999999999063e+01 1.439490000000000009e+03
2.100000000000000130e-02 5.396894999999999332e-01 -2.845505499999999799e+00 8.231414999999999793e+01 1.439175000000000182e+03
2.200000000000000219e-02 5.395309999999999828e-01 -2.566455500000000001e+00 8.142374999999999829e+01 1.438860000000000127e+03
2.299999999999999961e-02 5.393535000000000412e-01 -2.232034499999999699e+00 8.052705000000000268e+01 1.438539999999999964e+03
2.400000000000000050e-02 5.391500000000000181e-01 -1.865679999999999783e+00 7.959024999999999750e+01 1.438210000000000036e+03
2.500000000000000139e-02 5.389200000000000657e-01 -1.476890000000000036e+00 7.859590000000000032e+01 1.437865000000000009e+03
2.600000000000000228e-02 5.386695000000000233e-01 -1.062260000000000204e+00 7.754499999999998749e+01 1.437500000000000000e+03
2.700000000000000316e-02 5.384075000000000388e-01 -6.103600000000000136e-01 7.645394999999999186e+01 1.437130000000000109e+03
2.800000000000000058e-02 5.381445000000000256e-01 -1.086450000000001026e-01 7.534720000000000084e+01 1.436744999999999891e+03
2.900000000000000147e-02 5.378870000000000040e-01 4.497849999999998793e-01 7.424814999999999543e+01 1.436359999999999900e+03
3.000000000000000236e-02 5.376360000000000028e-01 1.061450000000000005e+00 7.317160000000001219e+01 1.435974999999999909e+03
3.099999999999999978e-02 5.373890000000000056e-01 1.710765000000000091e+00 7.211870000000000402e+01 1.435605000000000018e+03
3.200000000000000067e-02 5.371390000000000331e-01 2.371345000000000258e+00 7.107599999999999341e+01 1.435230000000000018e+03
3.300000000000000155e-02 5.368745000000000323e-01 3.009660000000000224e+00 7.001770000000000493e+01 1.434855000000000018e+03
3.400000000000000244e-02 5.365854999999999375e-01 3.590225000000000222e+00 6.891079999999999472e+01 1.434465000000000146e+03
3.500000000000000333e-02 5.362629999999999342e-01 4.081345000000000667e+00 6.772225000000000250e+01 1.434059999999999945e+03
3.600000000000000422e-02 5.359024999999999483e-01 4.460164999999999935e+00 6.642595000000000027e+01 1.433625000000000000e+03
3.700000000000000511e-02 5.355039999999999800e-01 4.716395000000000337e+00 6.500925000000000864e+01 1.433164999999999964e+03
3.799999999999999906e-02 5.350730000000000208e-01 4.853455000000000297e+00 6.347650000000000148e+01 1.432674999999999955e+03
3.899999999999999994e-02 5.346210000000000129e-01 4.887380000000000280e+00 6.185004999999999598e+01 1.432159999999999854e+03
4.000000000000000083e-02 5.341620000000000257e-01 4.843535000000000146e+00 6.016734999999999900e+01 1.431625000000000000e+03
4.100000000000000172e-02 5.337104999999999766e-01 4.752034999999999343e+00 5.847639999999999816e+01 1.431090000000000146e+03
4.200000000000000261e-02 5.332814999999999639e-01 4.643514999999999837e+00 5.682970000000000255e+01 1.430565000000000055e+03
4.300000000000000350e-02 5.328859999999999708e-01 4.545385000000000453e+00 5.527864999999999895e+01 1.430065000000000055e+03
4.400000000000000439e-02 5.325354999999999395e-01 4.479744999999999422e+00 5.386914999999999765e+01 1.429599999999999909e+03
4.499999999999999833e-02 5.322355000000000835e-01 4.462530000000000108e+00 5.263845000000000596e+01 1.429179999999999836e+03
4.599999999999999922e-02 5.319899999999999629e-01 4.503941000000000194e+00 5.161440000000000339e+01 1.428824999999999818e+03
4.700000000000000011e-02 5.318009999999999682e-01 4.609738000000000113e+00 5.081539999999999679e+01 1.428534999999999854e+03
4.800000000000000100e-02 5.316684999999999883e-01 4.782939999999999969e+00 5.025204999999999700e+01 1.428309999999999945e+03
4.900000000000000189e-02 5.315935000000000521e-01 5.025484999999999758e+00 4.992910000000000537e+01 1.428159999999999854e+03
5.000000000000000278e-02 5.315745000000000609e-01 5.339620000000000033e+00 4.984759999999999991e+01 1.428085000000000036e+03
5.100000000000000366e-02 5.316119999999999735e-01 5.728724999999999845e+00 5.000685000000000002e+01 1.428085000000000036e+03
5.200000000000000455e-02 5.317070000000000407e-01 6.197485000000000355e+00 5.040550000000000352e+01 1.428164999999999964e+03
5.300000000000000544e-02 5.318590000000000817e-01 6.751490000000000435e+00 5.104229999999999734e+01 1.428319999999999936e+03
5.399999999999999939e-02 5.320694999999999730e-01 7.396349999999999980e+00 5.191564999999999941e+01 1.428545000000000073e+03
5.500000000000000028e-02 5.323375000000000190e-01 8.136599999999999611e+00 5.302309999999999945e+01 1.428849999999999909e+03
5.600000000000000117e-02 5.326619999999999688e-01 8.974689999999998946e+00 5.436010000000000275e+01 1.429230000000000018e+03
5.700000000000000205e-02 5.330415000000000569e-01 9.910085000000000477e+00 5.591915000000000191e+01 1.429679999999999836e+03
5.800000000000000294e-02 5.334719999999999462e-01 1.093890000000000029e+01 5.768894999999999840e+01 1.430194999999999936e+03
5.900000000000000383e-02 5.339494999999999658e-01 1.205380000000000074e+01 5.965419999999999590e+01 1.430780000000000200e+03
6.000000000000000472e-02 5.344674999999999843e-01 1.324447499999999955e+01 6.179545000000000243e+01 1.431420000000000073e+03
6.099999999999999867e-02 5.350205000000000100e-01 1.449800499999999914e+01 6.409014999999999418e+01 1.432110000000000127e+03
6.199999999999999956e-02 5.356014999999999526e-01 1.580015500000000017e+01 6.651304999999999268e+01 1.432860000000000127e+03
6.300000000000000044e-02 5.362035000000000551e-01 1.713583500000000015e+01 6.903785000000000593e+01 1.433639999999999873e+03
6.400000000000000133e-02 5.368204999999999227e-01 1.849034999999999940e+01 7.163814999999999600e+01 1.434445000000000164e+03
6.500000000000000222e-02 5.374464999999999382e-01 1.984994999999999976e+01 7.428874999999999318e+01 1.435279999999999973e+03
6.600000000000000311e-02 5.380765000000000686e-01 2.120234999999999914e+01 7.696694999999999709e+01 1.436134999999999991e+03
6.700000000000000400e-02 5.387064999999999770e-01 2.253725000000000023e+01 7.965295000000000414e+01 1.436990000000000009e+03
6.800000000000000488e-02 5.393345000000000500e-01 2.384644999999999726e+01 8.233070000000000732e+01 1.437855000000000018e+03
6.900000000000000577e-02 5.399564999999999504e-01 2.512355000000000160e+01 8.498769999999998959e+01 1.438719999999999800e+03
7.000000000000000666e-02 5.405720000000000525e-01 2.636404999999999887e+01 8.761509999999999820e+01 1.439579999999999927e+03
7.100000000000000755e-02 5.411810000000000231e-01 2.756480000000000175e+01 9.020740000000000691e+01 1.440430000000000064e+03
7.200000000000000844e-02 5.417824999999999447e-01 2.872395000000000209e+01 9.276160000000000139e+01 1.441279999999999973e+03
7.300000000000000933e-02 5.423769999999999980e-01 2.984035000000000082e+01 9.527754999999999086e+01 1.442119999999999891e+03
7.399999999999999634e-02 5.429644999999999611e-01 3.091339999999999932e+01 9.775544999999999618e+01 1.442945000000000164e+03
7.499999999999999722e-02 5.435459999999999736e-01 3.194270000000000209e+01 1.001975500000000068e+02 1.443764999999999873e+03
7.599999999999999811e-02 5.441210000000000768e-01 3.292784999999999940e+01 1.026051999999999964e+02 1.444575000000000045e+03
7.699999999999999900e-02 5.446900000000000075e-01 3.386820000000000164e+01 1.049798499999999990e+02 1.445369999999999891e+03
7.799999999999999989e-02 5.452529999999999877e-01 3.476274999999999693e+01 1.073224999999999909e+02 1.446164999999999964e+03
7.900000000000000078e-02 5.458094999999999475e-01 3.561025000000000063e+01 1.096324999999999932e+02 1.446949999999999818e+03
8.000000000000000167e-02 5.463584999999999692e-01 3.640865000000000151e+01 1.119085000000000036e+02 1.447720000000000027e+03
8.100000000000000255e-02 5.468994999999999829e-01 3.715579999999999927e+01 1.141465000000000032e+02 1.448485000000000127e+03
8.200000000000000344e-02 5.474300000000000832e-01 3.784900000000000375e+01 1.163425000000000011e+02 1.449230000000000018e+03
8.300000000000000433e-02 5.479490000000000194e-01 3.848545000000000016e+01 1.184904999999999973e+02 1.449965000000000146e+03
8.400000000000000522e-02 5.484544999999999559e-01 3.906220000000000425e+01 1.205840000000000032e+02 1.450690000000000055e+03
8.500000000000000611e-02 5.489454999999999751e-01 3.957644999999999413e+01 1.226154999999999973e+02 1.451389999999999873e+03
8.600000000000000699e-02 5.494185000000000318e-01 4.002549999999999386e+01 1.245769999999999982e+02 1.452070000000000164e+03
8.700000000000000788e-02 5.498730000000000562e-01 4.040729999999999933e+01 1.264609999999999985e+02 1.452730000000000018e+03
8.800000000000000877e-02 5.503069999999999906e-01 4.071994999999999720e+01 1.282604999999999791e+02 1.453360000000000127e+03
8.899999999999999578e-02 5.507189999999999586e-01 4.096245000000000402e+01 1.299685000000000059e+02 1.453960000000000036e+03
8.999999999999999667e-02 5.511085000000000012e-01 4.113419999999999987e+01 1.315799999999999841e+02 1.454534999999999854e+03
9.099999999999999756e-02 5.514735000000000609e-01 4.123530000000000229e+01 1.330905000000000200e+02 1.455074999999999818e+03
9.199999999999999845e-02 5.518140000000000267e-01 4.126644999999999897e+01 1.344964999999999975e+02 1.455585000000000036e+03
9.299999999999999933e-02 5.521289999999999809e-01 4.122875000000000512e+01 1.357955000000000041e+02 1.456054999999999836e+03
9.400000000000000022e-02 5.524194999999999522e-01 4.112395000000000067e+01 1.369865000000000066e+02 1.456494999999999891e+03
9.500000000000000111e-02 5.526845000000000230e-01 4.095434999999999803e+01 1.380695000000000050e+02 1.456894999999999982e+03
9.600000000000000200e-02 5.529245000000000410e-01 4.072245000000000203e+01 1.390450000000000159e+02 1.457265000000000100e+03
9.700000000000000289e-02 5.531399999999999650e-01 4.043139999999999645e+01 1.399159999999999968e+02 1.457599999999999909e+03
9.800000000000000377e-02 5.533319999999999350e-01 4.008474999999999966e+01 1.406839999999999975e+02 1.457894999999999982e+03
9.900000000000000466e-02 5.535004999999999509e-01 3.968634999999999735e+01 1.413534999999999968e+02 1.458159999999999854e+03
1.000000000000000056e-01 5.536475000000000701e-01 3.924080000000000013e+01 1.419295000000000186e+02 1.458394999999999982e+03
1.010000000000000064e-01 5.537739999999999885e-01 3.875269999999999726e+01 1.424164999999999850e+02 1.458589999999999918e+03
1.020000000000000073e-01 5.538819999999999855e-01 3.822729999999999961e+01 1.428215000000000146e+02 1.458760000000000218e+03
1.030000000000000082e-01 5.539720000000000200e-01 3.766995000000000005e+01 1.431514999999999986e+02 1.458910000000000082e+03
1.040000000000000091e-01 5.540475000000000261e-01 3.708639999999999759e+01 1.434130000000000109e+02 1.459029999999999973e+03
1.050000000000000100e-01 5.541080000000000449e-01 3.648225000000000051e+01 1.436150000000000091e+02 1.459130000000000109e+03
1.059999999999999970e-01 5.541574999999999696e-01 3.586319999999999908e+01 1.437644999999999982e+02 1.459204999999999927e+03
1.069999999999999979e-01 5.541970000000000507e-01 3.523470000000000368e+01 1.438695000000000164e+02 1.459264999999999873e+03
1.079999999999999988e-01 5.542280000000000539e-01 3.460169999999999391e+01 1.439379999999999882e+02 1.459315000000000055e+03
1.089999999999999997e-01 5.542519999999999669e-01 3.396880000000000166e+01 1.439764999999999873e+02 1.459344999999999800e+03
1.100000000000000006e-01 5.542700000000000404e-01 3.333984999999999843e+01 1.439914999999999736e+02 1.459364999999999782e+03
1.110000000000000014e-01 5.542845000000000688e-01 3.271805000000000518e+01 1.439875000000000114e+02 1.459375000000000000e+03
1.120000000000000023e-01 5.542949999999999822e-01 3.210580000000000211e+01 1.439699999999999989e+02 1.459384999999999991e+03
1.130000000000000032e-01 5.543015000000000025e-01 3.150455000000000183e+01 1.439399999999999977e+02 1.459384999999999991e+03
1.140000000000000041e-01 5.543055000000000065e-01 3.091499999999999915e+01 1.439014999999999986e+02 1.459375000000000000e+03
1.150000000000000050e-01 5.543065000000000353e-01 3.033719999999999928e+01 1.438530000000000086e+02 1.459369999999999891e+03
1.160000000000000059e-01 5.543040000000000189e-01 2.977035000000000053e+01 1.437955000000000041e+02 1.459349999999999909e+03
1.170000000000000068e-01 5.542970000000000397e-01 2.921320000000000050e+01 1.437264999999999873e+02 1.459329999999999927e+03
1.180000000000000077e-01 5.542860000000000564e-01 2.866405000000000314e+01 1.436450000000000102e+02 1.459309999999999945e+03
1.190000000000000085e-01 5.542700000000000404e-01 2.812075000000000102e+01 1.435475000000000136e+02 1.459279999999999973e+03
1.200000000000000094e-01 5.542479999999999629e-01 2.758104999999999762e+01 1.434304999999999950e+02 1.459240000000000009e+03
1.209999999999999964e-01 5.542190000000000172e-01 2.704269999999999996e+01 1.432920000000000016e+02 1.459200000000000045e+03
1.219999999999999973e-01 5.541829999999999812e-01 2.650329999999999941e+01 1.431279999999999859e+02 1.459144999999999982e+03
1.229999999999999982e-01 5.541385000000000893e-01 2.596074999999999733e+01 1.429360000000000070e+02 1.459085000000000036e+03
1.239999999999999991e-01 5.540865000000000373e-01 2.541304999999999836e+01 1.427135000000000105e+02 1.459014999999999873e+03
1.250000000000000000e-01 5.540255000000000596e-01 2.485865000000000080e+01 1.424590000000000032e+02 1.458934999999999945e+03
1.260000000000000009e-01 5.539560000000000040e-01 2.429630000000000223e+01 1.421719999999999970e+02 1.458845000000000027e+03
1.270000000000000018e-01 5.538779999999999815e-01 2.372525000000000261e+01 1.418509999999999991e+02 1.458744999999999891e+03
1.280000000000000027e-01 5.537914999999999921e-01 2.314504999999999768e+01 1.414975000000000023e+02 1.458634999999999991e+03
1.290000000000000036e-01 5.536969999999999947e-01 2.255594999999999928e+01 1.411119999999999948e+02 1.458510000000000218e+03
1.300000000000000044e-01 5.535950000000000593e-01 2.195850000000000080e+01 1.406974999999999909e+02 1.458380000000000109e+03
1.310000000000000053e-01 5.534879999999999800e-01 2.135394999999999754e+01 1.402560000000000002e+02 1.458240000000000009e+03
1.320000000000000062e-01 5.533744999999999914e-01 2.074390000000000001e+01 1.397920000000000016e+02 1.458089999999999918e+03
1.330000000000000071e-01 5.532574999999999577e-01 2.013039999999999807e+01 1.393100000000000023e+02 1.457934999999999945e+03
1.340000000000000080e-01 5.531380000000000186e-01 1.951585000000000036e+01 1.388149999999999977e+02 1.457779999999999973e+03
1.350000000000000089e-01 5.530165000000000219e-01 1.890315000000000012e+01 1.383120000000000118e+02 1.457615000000000009e+03
1.360000000000000098e-01 5.528954999999999842e-01 1.829514999999999958e+01 1.378070000000000164e+02 1.457450000000000045e+03
1.370000000000000107e-01 5.527765000000000040e-01 1.769524999999999793e+01 1.373059999999999832e+02 1.457284999999999854e+03
1.380000000000000115e-01 5.526599999999999291e-01 1.710654999999999859e+01 1.368154999999999859e+02 1.457125000000000000e+03
1.390000000000000124e-01 5.525484999999999980e-01 1.653245000000000076e+01 1.363410000000000082e+02 1.456965000000000146e+03
1.400000000000000133e-01 5.524424999999999475e-01 1.597605000000000075e+01 1.358879999999999768e+02 1.456809999999999945e+03
1.410000000000000142e-01 5.523434999999999873e-01 1.544029999999999880e+01 1.354615000000000009e+02 1.456664999999999964e+03
1.420000000000000151e-01 5.522529999999999939e-01 1.492790000000000106e+01 1.350670000000000073e+02 1.456529999999999973e+03
1.430000000000000160e-01 5.521709999999999674e-01 1.444115000000000038e+01 1.347074999999999818e+02 1.456404999999999973e+03
1.440000000000000169e-01 5.520985000000000475e-01 1.398199999999999932e+01 1.343865000000000123e+02 1.456289999999999964e+03
1.450000000000000178e-01 5.520365000000000411e-01 1.355184999999999995e+01 1.341065000000000111e+02 1.456184999999999945e+03
1.459999999999999909e-01 5.519840000000000302e-01 1.315165000000000006e+01 1.338684999999999832e+02 1.456095000000000027e+03
1.469999999999999918e-01 5.519425000000000026e-01 1.278174999999999883e+01 1.336730000000000018e+02 1.456025000000000091e+03
1.479999999999999927e-01 5.519100000000000117e-01 1.244219000000000008e+01 1.335194999999999936e+02 1.455954999999999927e+03
1.489999999999999936e-01 5.518880000000000452e-01 1.213230000000000075e+01 1.334069999999999823e+02 1.455904999999999973e+03
1.499999999999999944e-01 5.518745000000000456e-01 1.185121000000000002e+01 1.333330000000000268e+02 1.455869999999999891e+03
1.509999999999999953e-01 5.518689999999999429e-01 1.159742999999999924e+01 1.332939999999999827e+02 1.455845000000000027e+03
1.519999999999999962e-01 5.518710000000000004e-01 1.136928499999999964e+01 1.332884999999999991e+02 1.455829999999999927e+03
1.529999999999999971e-01 5.518790000000000084e-01 1.116488000000000014e+01 1.333110000000000070e+02 1.455824999999999818e+03
1.539999999999999980e-01 5.518925000000000081e-01 1.098214499999999916e+01 1.333584999999999923e+02 1.455829999999999927e+03
1.549999999999999989e-01 5.519100000000000117e-01 1.081880999999999915e+01 1.334265000000000043e+02 1.455840000000000146e+03
1.559999999999999998e-01 5.519319999999999782e-01 1.067268999999999934e+01 1.335110000000000241e+02 1.455860000000000127e+03
1.570000000000000007e-01 5.519555000000000433e-01 1.054161999999999999e+01 1.336080000000000041e+02 1.455880000000000109e+03
1.580000000000000016e-01 5.519815000000000138e-01 1.042355500000000035e+01 1.337139999999999986e+02 1.455910000000000082e+03
1.590000000000000024e-01 5.520080000000000542e-01 1.031653000000000020e+01 1.338255000000000052e+02 1.455940000000000055e+03
