# t [s], A [cm^2], U [cm/s], P [cPa], c [cm/s]
1.000000000000000021e-03 1.729149999999999854e-01 2.657269999999999910e-01 9.823224999999999341e+01 2.090819999999999709e+03
2.000000000000000042e-03 1.728709999999999969e-01 1.756088499999999719e+00 9.503530000000000655e+01 2.090420000000000073e+03
3.000000000000000062e-03 1.727460000000000107e-01 3.623390000000000111e+00 9.052895000000000891e+01 2.089360000000000127e+03
4.000000000000000083e-03 1.725740000000000052e-01 5.732346500000000233e+00 8.553310000000000457e+01 2.087914999999999964e+03
5.000000000000000104e-03 1.723885000000000001e-01 8.009639999999999205e+00 8.098505000000000109e+01 2.086369999999999891e+03
6.000000000000000125e-03 1.722100000000000020e-01 1.027921500000000066e+01 7.724514999999999532e+01 2.084900000000000091e+03
7.000000000000000146e-03 1.720434999999999881e-01 1.230949000000000026e+01 7.408664999999999168e+01 2.083559999999999945e+03
8.000000000000000167e-03 1.718909999999999882e-01 1.399983499999999914e+01 7.125345000000000084e+01 2.082355000000000018e+03
9.000000000000001055e-03 1.717575000000000074e-01 1.538804999999999978e+01 6.879595000000000482e+01 2.081315000000000055e+03
1.000000000000000194e-02 1.716459999999999930e-01 1.651585000000000036e+01 6.680774999999999864e+01 2.080454999999999927e+03
1.099999999999999936e-02 1.715559999999999863e-01 1.740409999999999968e+01 6.527619999999998868e+01 2.079769999999999982e+03
1.200000000000000025e-02 1.714859999999999995e-01 1.807274999999999920e+01 6.414535000000000764e+01 2.079250000000000000e+03
1.300000000000000114e-02 1.714330000000000020e-01 1.852890000000000015e+01 6.331400000000000716e+01 2.078860000000000127e+03
1.400000000000000203e-02 1.713910000000000156e-01 1.877810000000000201e+01 6.264374999999999716e+01 2.078559999999999945e+03
1.499999999999999944e-02 1.713589999999999836e-01 1.887734999999999985e+01 6.209709999999999752e+01 2.078335000000000036e+03
1.600000000000000033e-02 1.713385000000000047e-01 1.896054999999999779e+01 6.186979999999999791e+01 2.078199999999999818e+03
1.700000000000000122e-02 1.713395000000000057e-01 1.918950000000000244e+01 6.232920000000000016e+01 2.078225000000000364e+03
1.800000000000000211e-02 1.713705000000000089e-01 1.966709999999999781e+01 6.377805000000000746e+01 2.078470000000000255e+03
1.900000000000000300e-02 1.714335000000000164e-01 2.037624999999999886e+01 6.622334999999999638e+01 2.078954999999999927e+03
2.000000000000000042e-02 1.715220000000000078e-01 2.118339999999999890e+01 6.930559999999999832e+01 2.079644999999999982e+03
2.100000000000000130e-02 1.716210000000000235e-01 2.189515000000000100e+01 7.241620000000000346e+01 2.080420000000000073e+03
2.200000000000000219e-02 1.717130000000000045e-01 2.233579999999999899e+01 7.492295000000000016e+01 2.081154999999999745e+03
2.299999999999999961e-02 1.717825000000000046e-01 2.240830000000000055e+01 7.639164999999999850e+01 2.081724999999999909e+03
2.400000000000000050e-02 1.718220000000000025e-01 2.211885000000000190e+01 7.671290000000000475e+01 2.082065000000000055e+03
2.500000000000000139e-02 1.718319999999999848e-01 2.156029999999999802e+01 7.609809999999998809e+01 2.082170000000000073e+03
2.600000000000000228e-02 1.718200000000000005e-01 2.086649999999999849e+01 7.495955000000000723e+01 2.082095000000000255e+03
2.700000000000000316e-02 1.717960000000000043e-01 2.015905000000000058e+01 7.373730000000000473e+01 2.081920000000000073e+03
2.800000000000000058e-02 1.717710000000000070e-01 1.950789999999999935e+01 7.274455000000000382e+01 2.081724999999999909e+03
2.900000000000000147e-02 1.717500000000000138e-01 1.891810000000000258e+01 7.208459999999999468e+01 2.081555000000000291e+03
3.000000000000000236e-02 1.717334999999999834e-01 1.834129999999999683e+01 7.165680000000000405e+01 2.081425000000000182e+03
3.099999999999999978e-02 1.717179999999999818e-01 1.770599999999999952e+01 7.123410000000001219e+01 2.081300000000000182e+03
3.200000000000000067e-02 1.716969999999999885e-01 1.695244999999999891e+01 7.057550000000000523e+01 2.081144999999999982e+03
3.300000000000000155e-02 1.716670000000000140e-01 1.606149999999999878e+01 6.953379999999999939e+01 2.080914999999999964e+03
3.400000000000000244e-02 1.716260000000000008e-01 1.506939999999999991e+01 6.812545000000000073e+01 2.080600000000000364e+03
3.500000000000000333e-02 1.715764999999999929e-01 1.406305000000000049e+01 6.654160000000000252e+01 2.080225000000000364e+03
3.600000000000000422e-02 1.715280000000000138e-01 1.315850000000000009e+01 6.509794999999999732e+01 2.079845000000000255e+03
3.700000000000000511e-02 1.714879999999999738e-01 1.246884999999999977e+01 6.414244999999999663e+01 2.079529999999999745e+03
3.799999999999999906e-02 1.714674999999999949e-01 1.207365000000000066e+01 6.395154999999999745e+01 2.079349999999999909e+03
3.899999999999999994e-02 1.714709999999999845e-01 1.199784999999999968e+01 6.464979999999999905e+01 2.079360000000000127e+03
4.000000000000000083e-02 1.715005000000000002e-01 1.220630000000000059e+01 6.617449999999999477e+01 2.079570000000000164e+03
4.100000000000000172e-02 1.715530000000000110e-01 1.261299999999999955e+01 6.829075000000000273e+01 2.079960000000000036e+03
4.200000000000000261e-02 1.716199999999999948e-01 1.310054999999999836e+01 7.064685000000000059e+01 2.080469999999999800e+03
4.300000000000000350e-02 1.716904999999999959e-01 1.354370000000000118e+01 7.284929999999999950e+01 2.081014999999999873e+03
4.400000000000000439e-02 1.717535000000000034e-01 1.383055000000000057e+01 7.453834999999999411e+01 2.081510000000000218e+03
4.499999999999999833e-02 1.717994999999999939e-01 1.387839999999999918e+01 7.544630000000000791e+01 2.081880000000000109e+03
4.599999999999999922e-02 1.718204999999999871e-01 1.364114999999999966e+01 7.542910000000000537e+01 2.082055000000000291e+03
4.700000000000000011e-02 1.718129999999999935e-01 1.310875000000000057e+01 7.446969999999998890e+01 2.082015000000000327e+03
4.800000000000000100e-02 1.717774999999999996e-01 1.230124999999999957e+01 7.265739999999999554e+01 2.081750000000000000e+03
4.900000000000000189e-02 1.717154999999999931e-01 1.125869000000000142e+01 7.015305000000000746e+01 2.081279999999999745e+03
5.000000000000000278e-02 1.716320000000000068e-01 1.003123499999999879e+01 6.714960000000000662e+01 2.080640000000000327e+03
5.100000000000000366e-02 1.715324999999999767e-01 8.671229999999999549e+00 6.383905000000000030e+01 2.079864999999999782e+03
5.200000000000000455e-02 1.714219999999999910e-01 7.228184999999999860e+00 6.039039999999999964e+01 2.079010000000000218e+03
5.300000000000000544e-02 1.713060000000000138e-01 5.747254999999999114e+00 5.694089999999999918e+01 2.078099999999999909e+03
5.399999999999999939e-02 1.711880000000000068e-01 4.270206500000000460e+00 5.359870000000000090e+01 2.077180000000000291e+03
5.500000000000000028e-02 1.710730000000000028e-01 2.837441000000000102e+00 5.045199999999999818e+01 2.076279999999999745e+03
5.600000000000000117e-02 1.709634999999999905e-01 1.490194999999999936e+00 4.758050000000000068e+01 2.075420000000000073e+03
5.700000000000000205e-02 1.708629999999999871e-01 2.717300000000000271e-01 4.506454999999999700e+01 2.074625000000000000e+03
5.800000000000000294e-02 1.707744999999999957e-01 -7.728999999999999204e-01 4.298980000000000246e+01 2.073925000000000182e+03
5.900000000000000383e-02 1.707020000000000204e-01 -1.598593000000000153e+00 4.144665000000000532e+01 2.073345000000000255e+03
6.000000000000000472e-02 1.706479999999999941e-01 -2.162989500000000120e+00 4.052400000000000091e+01 2.072904999999999745e+03
6.099999999999999867e-02 1.706154999999999755e-01 -2.429910000000000014e+00 4.030109999999999815e+01 2.072635000000000218e+03
6.199999999999999956e-02 1.706079999999999819e-01 -2.372580000000000133e+00 4.083745000000000402e+01 2.072555000000000291e+03
6.300000000000000044e-02 1.706265000000000143e-01 -1.976154999999999884e+00 4.216509999999999536e+01 2.072675000000000182e+03
6.400000000000000133e-02 1.706725000000000048e-01 -1.239174500000000068e+00 4.428334999999999866e+01 2.073010000000000218e+03
6.500000000000000222e-02 1.707450000000000079e-01 -1.737150000000000638e-01 4.715720000000000312e+01 2.073550000000000182e+03
6.600000000000000311e-02 1.708429999999999949e-01 1.195479999999999876e+00 5.071979999999999933e+01 2.074300000000000182e+03
6.700000000000000400e-02 1.709654999999999925e-01 2.832886999999999933e+00 5.487749999999999773e+01 2.075234999999999673e+03
6.800000000000000488e-02 1.711079999999999823e-01 4.694528000000000034e+00 5.951690000000000680e+01 2.076329999999999927e+03
6.900000000000000577e-02 1.712674999999999892e-01 6.730680000000000440e+00 6.451294999999998936e+01 2.077570000000000164e+03
7.000000000000000666e-02 1.714400000000000091e-01 8.888700000000000045e+00 6.973669999999999902e+01 2.078909999999999854e+03
7.100000000000000755e-02 1.716205000000000092e-01 1.111563499999999927e+01 7.506315000000000737e+01 2.080324999999999818e+03
7.200000000000000844e-02 1.718060000000000143e-01 1.336110000000000042e+01 8.037784999999999513e+01 2.081779999999999745e+03
7.300000000000000933e-02 1.719919999999999782e-01 1.557934999999999981e+01 8.558279999999999177e+01 2.083239999999999782e+03
7.399999999999999634e-02 1.721754999999999813e-01 1.773150000000000048e+01 9.060105000000000075e+01 2.084694999999999709e+03
7.499999999999999722e-02 1.723540000000000072e-01 1.978699999999999903e+01 9.537969999999999970e+01 2.086110000000000127e+03
7.599999999999999811e-02 1.725254999999999983e-01 2.172449999999999903e+01 9.989074999999999704e+01 2.087474999999999909e+03
7.699999999999999900e-02 1.726889999999999814e-01 2.353180000000000049e+01 1.041310499999999877e+02 2.088784999999999854e+03
7.799999999999999989e-02 1.728445000000000120e-01 2.520554999999999879e+01 1.081184999999999974e+02 2.090029999999999745e+03
7.900000000000000078e-02 1.729924999999999935e-01 2.674960000000000093e+01 1.118880000000000052e+02 2.091220000000000255e+03
8.000000000000000167e-02 1.731340000000000101e-01 2.817360000000000042e+01 1.154844999999999970e+02 2.092359999999999673e+03
8.100000000000000255e-02 1.732699999999999796e-01 2.949080000000000013e+01 1.189594999999999914e+02 2.093454999999999927e+03
8.200000000000000344e-02 1.734020000000000006e-01 3.071594999999999942e+01 1.223615000000000066e+02 2.094519999999999982e+03
8.300000000000000433e-02 1.735319999999999918e-01 3.186360000000000170e+01 1.257325000000000017e+02 2.095570000000000164e+03
8.400000000000000522e-02 1.736604999999999954e-01 3.294639999999999702e+01 1.291045000000000016e+02 2.096605000000000018e+03
8.500000000000000611e-02 1.737889999999999990e-01 3.397415000000000163e+01 1.324969999999999857e+02 2.097644999999999982e+03
8.600000000000000699e-02 1.739180000000000170e-01 3.495284999999999798e+01 1.359139999999999873e+02 2.098680000000000291e+03
8.700000000000000788e-02 1.740464999999999929e-01 3.588455000000000439e+01 1.393485000000000014e+02 2.099724999999999909e+03
8.800000000000000877e-02 1.741759999999999975e-01 3.676770000000000493e+01 1.427785000000000082e+02 2.100765000000000327e+03
8.899999999999999578e-02 1.743045000000000011e-01 3.759699999999999420e+01 1.461759999999999877e+02 2.101800000000000182e+03
8.999999999999999667e-02 1.744310000000000027e-01 3.836435000000000173e+01 1.495035000000000025e+02 2.102820000000000164e+03
9.099999999999999756e-02 1.745545000000000013e-01 3.905944999999999823e+01 1.527185000000000059e+02 2.103819999999999709e+03
9.199999999999999845e-02 1.746739999999999959e-01 3.967050000000000409e+01 1.557799999999999727e+02 2.104789999999999964e+03
9.299999999999999933e-02 1.747874999999999845e-01 4.018505000000000393e+01 1.586435000000000173e+02 2.105715000000000146e+03
9.400000000000000022e-02 1.748939999999999939e-01 4.059080000000000155e+01 1.612690000000000055e+02 2.106574999999999818e+03
9.500000000000000111e-02 1.749920000000000087e-01 4.087624999999999886e+01 1.636214999999999975e+02 2.107375000000000000e+03
9.600000000000000200e-02 1.750805000000000000e-01 4.103159999999999741e+01 1.656719999999999970e+02 2.108094999999999800e+03
9.700000000000000289e-02 1.751575000000000215e-01 4.104925000000000068e+01 1.673960000000000150e+02 2.108734999999999673e+03
9.800000000000000377e-02 1.752239999999999909e-01 4.092445000000000022e+01 1.687804999999999893e+02 2.109279999999999745e+03
9.900000000000000466e-02 1.752779999999999894e-01 4.065555000000000518e+01 1.698199999999999932e+02 2.109724999999999909e+03
1.000000000000000056e-01 1.753199999999999759e-01 4.024479999999999791e+01 1.705174999999999841e+02 2.110079999999999927e+03
1.010000000000000064e-01 1.753500000000000059e-01 3.969785000000000252e+01 1.708879999999999768e+02 2.110329999999999927e+03
1.020000000000000073e-01 1.753684999999999827e-01 3.902405000000000257e+01 1.709519999999999982e+02 2.110494999999999891e+03
1.030000000000000082e-01 1.753764999999999907e-01 3.823600000000000421e+01 1.707404999999999973e+02 2.110569999999999709e+03
1.040000000000000091e-01 1.753740000000000021e-01 3.734915000000000163e+01 1.702889999999999873e+02 2.110559999999999945e+03
1.050000000000000100e-01 1.753635000000000055e-01 3.638100000000000023e+01 1.696390000000000100e+02 2.110484999999999673e+03
1.059999999999999970e-01 1.753460000000000019e-01 3.535065000000000168e+01 1.688350000000000080e+02 2.110350000000000364e+03
1.069999999999999979e-01 1.753219999999999779e-01 3.427750000000000341e+01 1.679194999999999993e+02 2.110170000000000073e+03
1.079999999999999988e-01 1.752934999999999910e-01 3.318090000000000117e+01 1.669370000000000118e+02 2.109949999999999818e+03
1.089999999999999997e-01 1.752630000000000021e-01 3.207930000000000348e+01 1.659244999999999948e+02 2.109699999999999818e+03
1.100000000000000006e-01 1.752310000000000256e-01 3.098925000000000196e+01 1.649184999999999945e+02 2.109444999999999709e+03
1.110000000000000014e-01 1.751985000000000070e-01 2.992544999999999789e+01 1.639474999999999909e+02 2.109179999999999836e+03
1.120000000000000023e-01 1.751659999999999884e-01 2.889959999999999951e+01 1.630324999999999989e+02 2.108925000000000182e+03
1.130000000000000032e-01 1.751349999999999851e-01 2.792070000000000007e+01 1.621889999999999930e+02 2.108670000000000073e+03
1.140000000000000041e-01 1.751064999999999983e-01 2.699430000000000263e+01 1.614234999999999900e+02 2.108434999999999945e+03
1.150000000000000050e-01 1.750794999999999990e-01 2.612299999999999756e+01 1.607359999999999900e+02 2.108215000000000146e+03
1.160000000000000059e-01 1.750550000000000161e-01 2.530610000000000070e+01 1.601200000000000045e+02 2.108010000000000218e+03
1.170000000000000068e-01 1.750324999999999798e-01 2.454014999999999702e+01 1.595615000000000236e+02 2.107829999999999927e+03
1.180000000000000077e-01 1.750120000000000009e-01 2.381909999999999883e+01 1.590425000000000182e+02 2.107654999999999745e+03
1.190000000000000085e-01 1.749919999999999809e-01 2.313485000000000014e+01 1.585409999999999968e+02 2.107484999999999673e+03
1.200000000000000094e-01 1.749720000000000164e-01 2.247780000000000200e+01 1.580319999999999823e+02 2.107324999999999818e+03
1.209999999999999964e-01 1.749525000000000108e-01 2.183735000000000070e+01 1.574890000000000043e+02 2.107159999999999854e+03
1.219999999999999973e-01 1.749304999999999888e-01 2.120279999999999987e+01 1.568870000000000005e+02 2.106985000000000127e+03
1.229999999999999982e-01 1.749074999999999935e-01 2.056380000000000052e+01 1.562024999999999864e+02 2.106789999999999964e+03
1.239999999999999991e-01 1.748804999999999943e-01 1.991084999999999994e+01 1.554155000000000086e+02 2.106579999999999927e+03
1.250000000000000000e-01 1.748505000000000198e-01 1.923624999999999829e+01 1.545109999999999957e+02 2.106335000000000036e+03
1.260000000000000009e-01 1.748164999999999858e-01 1.853415000000000035e+01 1.534784999999999968e+02 2.106060000000000400e+03
1.270000000000000018e-01 1.747785000000000033e-01 1.780105000000000004e+01 1.523149999999999977e+02 2.105755000000000109e+03
1.280000000000000027e-01 1.747354999999999881e-01 1.703600000000000136e+01 1.510235000000000127e+02 2.105409999999999854e+03
1.290000000000000036e-01 1.746884999999999966e-01 1.624080000000000013e+01 1.496134999999999877e+02 2.105029999999999745e+03
1.300000000000000044e-01 1.746375000000000011e-01 1.541975000000000051e+01 1.481000000000000227e+02 2.104625000000000000e+03
1.310000000000000053e-01 1.745829999999999882e-01 1.457959999999999923e+01 1.465049999999999955e+02 2.104190000000000055e+03
1.320000000000000062e-01 1.745255000000000001e-01 1.372909999999999897e+01 1.448539999999999850e+02 2.103730000000000018e+03
1.330000000000000071e-01 1.744664999999999966e-01 1.287865000000000038e+01 1.431754999999999995e+02 2.103255000000000109e+03
1.340000000000000080e-01 1.744065000000000198e-01 1.203961999999999932e+01 1.415000000000000000e+02 2.102774999999999636e+03
1.350000000000000089e-01 1.743470000000000020e-01 1.122385500000000036e+01 1.398589999999999804e+02 2.102289999999999964e+03
1.360000000000000098e-01 1.742879999999999985e-01 1.044324499999999922e+01 1.382819999999999823e+02 2.101819999999999709e+03
1.370000000000000107e-01 1.742309999999999970e-01 9.708849999999999980e+00 1.367965000000000089e+02 2.101360000000000127e+03
1.380000000000000115e-01 1.741774999999999851e-01 9.030580000000000496e+00 1.354245000000000232e+02 2.100925000000000182e+03
1.390000000000000124e-01 1.741280000000000050e-01 8.416605000000000558e+00 1.341859999999999786e+02 2.100529999999999745e+03
1.400000000000000133e-01 1.740825000000000011e-01 7.873285000000000089e+00 1.330935000000000059e+02 2.100159999999999854e+03
1.410000000000000142e-01 1.740424999999999889e-01 7.404724999999999113e+00 1.321555000000000177e+02 2.099824999999999818e+03
1.420000000000000151e-01 1.740069999999999950e-01 7.012819999999999609e+00 1.313735000000000070e+02 2.099545000000000073e+03
1.430000000000000160e-01 1.739775000000000071e-01 6.697239999999999860e+00 1.307439999999999998e+02 2.099295000000000073e+03
1.440000000000000169e-01 1.739525000000000099e-01 6.455624999999999503e+00 1.302595000000000027e+02 2.099095000000000255e+03
1.450000000000000178e-01 1.739330000000000043e-01 6.283744999999999692e+00 1.299085000000000036e+02 2.098930000000000291e+03
1.459999999999999909e-01 1.739175000000000026e-01 6.175839999999999996e+00 1.296759999999999877e+02 2.098795000000000073e+03
1.469999999999999918e-01 1.739069999999999783e-01 6.124895000000000422e+00 1.295439999999999827e+02 2.098704999999999927e+03
1.479999999999999927e-01 1.738994999999999846e-01 6.123009999999999842e+00 1.294950000000000045e+02 2.098639999999999873e+03
1.489999999999999936e-01 1.738954999999999806e-01 6.161715000000000053e+00 1.295095000000000027e+02 2.098600000000000364e+03
1.499999999999999944e-01 1.738930000000000198e-01 6.232289999999999885e+00 1.295689999999999884e+02 2.098579999999999927e+03
1.509999999999999953e-01 1.738930000000000198e-01 6.326074999999999449e+00 1.296555000000000177e+02 2.098569999999999709e+03
1.519999999999999962e-01 1.738935000000000064e-01 6.434715000000000629e+00 1.297524999999999977e+02 2.098574999999999818e+03
1.529999999999999971e-01 1.738949999999999940e-01 6.550399999999999778e+00 1.298449999999999989e+02 2.098585000000000036e+03
1.539999999999999980e-01 1.738965000000000094e-01 6.666030000000000122e+00 1.299200000000000159e+02 2.098595000000000255e+03
1.549999999999999989e-01 1.738979999999999970e-01 6.775420000000000442e+00 1.299675000000000011e+02 2.098599999999999909e+03
1.559999999999999998e-01 1.738979999999999970e-01 6.873350000000000293e+00 1.299784999999999968e+02 2.098605000000000018e+03
1.570000000000000007e-01 1.738974999999999826e-01 6.955720000000000347e+00 1.299470000000000027e+02 2.098595000000000255e+03
1.580000000000000016e-01 1.738954999999999806e-01 7.019534999999999414e+00 1.298700000000000045e+02 2.098579999999999927e+03
1.590000000000000024e-01 1.738914999999999766e-01 7.062939999999999330e+00 1.297459999999999809e+02 2.098555000000000291e+03
