# t [s], A [cm^2], U [cm/s], P [cPa], c [cm/s]
1.000000000000000021e-03 1.754890000000000061e-01 4.507727999999999735e-01 9.103945000000000221e+01 2.030849999999999909e+03
2.000000000000000042e-03 1.754364999999999952e-01 2.074561499999999725e+00 8.742820000000000391e+01 2.030409999999999854e+03
3.000000000000000062e-03 1.753014999999999990e-01 4.008158499999999513e+00 8.268854999999999222e+01 2.029320000000000164e+03
4.000000000000000083e-03 1.751230000000000009e-01 6.158809999999999896e+00 7.789619999999999322e+01 2.027889999999999873e+03
5.000000000000000104e-03 1.749364999999999948e-01 8.432599999999998985e+00 7.390709999999999980e+01 2.026409999999999854e+03
6.000000000000000125e-03 1.747589999999999977e-01 1.060538000000000025e+01 7.076305000000000689e+01 2.025019999999999982e+03
7.000000000000000146e-03 1.745935000000000126e-01 1.247823999999999955e+01 6.805185000000000173e+01 2.023750000000000000e+03
8.000000000000000167e-03 1.744435000000000013e-01 1.403411499999999990e+01 6.561684999999999945e+01 2.022615000000000009e+03
9.000000000000001055e-03 1.743135000000000101e-01 1.533109999999999928e+01 6.357019999999999982e+01 2.021639999999999873e+03
1.000000000000000194e-02 1.742045000000000121e-01 1.639095000000000013e+01 6.193365000000000009e+01 2.020835000000000036e+03
1.099999999999999936e-02 1.741149999999999920e-01 1.722439999999999927e+01 6.063600000000000279e+01 2.020184999999999945e+03
1.200000000000000025e-02 1.740435000000000176e-01 1.784564999999999912e+01 5.960099999999999909e+01 2.019659999999999854e+03
1.300000000000000114e-02 1.739850000000000008e-01 1.826265000000000072e+01 5.872794999999999987e+01 2.019250000000000000e+03
1.400000000000000203e-02 1.739354999999999929e-01 1.851109999999999900e+01 5.795499999999999829e+01 2.018909999999999854e+03
1.499999999999999944e-02 1.738969999999999960e-01 1.869944999999999879e+01 5.741424999999999557e+01 2.018650000000000091e+03
1.600000000000000033e-02 1.738774999999999904e-01 1.899040000000000106e+01 5.745844999999999914e+01 2.018514999999999873e+03
1.700000000000000122e-02 1.738859999999999850e-01 1.951754999999999995e+01 5.846129999999999427e+01 2.018595000000000027e+03
1.800000000000000211e-02 1.739304999999999879e-01 2.030294999999999916e+01 6.054030000000000200e+01 2.018924999999999955e+03
1.900000000000000300e-02 1.740065000000000084e-01 2.123444999999999894e+01 6.341069999999999851e+01 2.019490000000000009e+03
2.000000000000000042e-02 1.741019999999999790e-01 2.211104999999999876e+01 6.645824999999999250e+01 2.020199999999999818e+03
2.100000000000000130e-02 1.741965000000000041e-01 2.272460000000000235e+01 6.897020000000000550e+01 2.020920000000000073e+03
2.200000000000000219e-02 1.742715000000000236e-01 2.293585000000000207e+01 7.039660000000000650e+01 2.021500000000000000e+03
2.299999999999999961e-02 1.743139999999999967e-01 2.271600000000000108e+01 7.052859999999999729e+01 2.021840000000000146e+03
2.400000000000000050e-02 1.743210000000000037e-01 2.214199999999999946e+01 6.953020000000000778e+01 2.021920000000000073e+03
2.500000000000000139e-02 1.742980000000000085e-01 2.135394999999999754e+01 6.783050000000000068e+01 2.021775000000000091e+03
2.600000000000000228e-02 1.742565000000000086e-01 2.049745000000000061e+01 6.593550000000000466e+01 2.021480000000000018e+03
2.700000000000000316e-02 1.742090000000000027e-01 1.967515000000000214e+01 6.424649999999999750e+01 2.021130000000000109e+03
2.800000000000000058e-02 1.741634999999999989e-01 1.892470000000000141e+01 6.295090000000000430e+01 2.020795000000000073e+03
2.900000000000000147e-02 1.741250000000000020e-01 1.822455000000000069e+01 6.201234999999999786e+01 2.020505000000000109e+03
3.000000000000000236e-02 1.740915000000000101e-01 1.752090000000000103e+01 6.124289999999999878e+01 2.020250000000000000e+03
3.099999999999999978e-02 1.740585000000000049e-01 1.676129999999999853e+01 6.041599999999999682e+01 2.020005000000000109e+03
3.200000000000000067e-02 1.740220000000000100e-01 1.592399999999999949e+01 5.937574999999999648e+01 2.019730000000000018e+03
3.300000000000000155e-02 1.739784999999999804e-01 1.503330000000000055e+01 5.810855000000000103e+01 2.019414999999999964e+03
3.400000000000000244e-02 1.739315000000000166e-01 1.415834999999999866e+01 5.675790000000000646e+01 2.019065000000000055e+03
3.500000000000000333e-02 1.738850000000000118e-01 1.339494999999999969e+01 5.558204999999999529e+01 2.018720000000000027e+03
3.600000000000000422e-02 1.738474999999999882e-01 1.283865000000000123e+01 5.487199999999999989e+01 2.018434999999999945e+03
3.700000000000000511e-02 1.738274999999999959e-01 1.255640000000000001e+01 5.485699999999999932e+01 2.018275000000000091e+03
3.799999999999999906e-02 1.738304999999999989e-01 1.256625000000000014e+01 5.563030000000000541e+01 2.018279999999999973e+03
3.899999999999999994e-02 1.738574999999999982e-01 1.283079999999999998e+01 5.711345000000000027e+01 2.018470000000000027e+03
4.000000000000000083e-02 1.739054999999999906e-01 1.326354999999999862e+01 5.906850000000000023e+01 2.018815000000000055e+03
4.100000000000000172e-02 1.739670000000000105e-01 1.374650000000000105e+01 6.114834999999999354e+01 2.019259999999999991e+03
4.200000000000000261e-02 1.740305000000000046e-01 1.415194999999999936e+01 6.296710000000000207e+01 2.019724999999999909e+03
4.300000000000000350e-02 1.740849999999999898e-01 1.436374999999999957e+01 6.417260000000000275e+01 2.020134999999999991e+03
4.400000000000000439e-02 1.741194999999999826e-01 1.429344999999999999e+01 6.450260000000000105e+01 2.020389999999999873e+03
4.499999999999999833e-02 1.741254999999999886e-01 1.388895000000000124e+01 6.381624999999999659e+01 2.020450000000000045e+03
4.599999999999999922e-02 1.740994999999999904e-01 1.313610000000000078e+01 6.209939999999999571e+01 2.020269999999999982e+03
4.700000000000000011e-02 1.740400000000000003e-01 1.205406999999999940e+01 5.944644999999999868e+01 2.019835000000000036e+03
4.800000000000000100e-02 1.739494999999999791e-01 1.068719499999999911e+01 5.602940000000000254e+01 2.019174999999999955e+03
4.900000000000000189e-02 1.738325000000000009e-01 9.095995000000000275e+00 5.206190000000000140e+01 2.018309999999999945e+03
5.000000000000000278e-02 1.736949999999999883e-01 7.348839999999999151e+00 4.776789999999999736e+01 2.017289999999999964e+03
5.100000000000000366e-02 1.735440000000000038e-01 5.516494999999999926e+00 4.335954999999999870e+01 2.016170000000000073e+03
5.200000000000000455e-02 1.733870000000000133e-01 3.668348999999999638e+00 3.902580000000000382e+01 2.015000000000000000e+03
5.300000000000000544e-02 1.732294999999999807e-01 1.871234999999999982e+00 3.492985000000000184e+01 2.013829999999999927e+03
5.399999999999999939e-02 1.730785000000000240e-01 1.891100000000001113e-01 3.121324999999999861e+01 2.012694999999999936e+03
5.500000000000000028e-02 1.729384999999999950e-01 -1.317004999999999759e+00 2.800065000000000026e+01 2.011650000000000091e+03
5.600000000000000117e-02 1.728155000000000108e-01 -2.589508000000000365e+00 2.540469999999999828e+01 2.010720000000000027e+03
5.700000000000000205e-02 1.727124999999999910e-01 -3.575534999999999908e+00 2.352660000000000196e+01 2.009945000000000164e+03
5.800000000000000294e-02 1.726354999999999973e-01 -4.229099999999999859e+00 2.245400000000000063e+01 2.009355000000000018e+03
5.900000000000000383e-02 1.725869999999999904e-01 -4.513770000000000060e+00 2.225515000000000043e+01 2.008974999999999909e+03
6.000000000000000472e-02 1.725694999999999868e-01 -4.405330000000000190e+00 2.297265000000000157e+01 2.008825000000000045e+03
6.099999999999999867e-02 1.725855000000000028e-01 -3.893959999999999866e+00 2.461674999999999969e+01 2.008920000000000073e+03
6.199999999999999956e-02 1.726349999999999829e-01 -2.985414999999999708e+00 2.716174999999999784e+01 2.009269999999999982e+03
6.300000000000000044e-02 1.727179999999999827e-01 -1.700997000000000092e+00 3.054554999999999865e+01 2.009860000000000127e+03
6.400000000000000133e-02 1.728314999999999990e-01 -7.625000000000015099e-02 3.467215000000000202e+01 2.010684999999999945e+03
6.500000000000000222e-02 1.729735000000000023e-01 1.841369999999999729e+00 3.941855000000000331e+01 2.011724999999999909e+03
6.600000000000000311e-02 1.731400000000000161e-01 3.995580499999999535e+00 4.464294999999999902e+01 2.012944999999999936e+03
6.700000000000000400e-02 1.733250000000000068e-01 6.324680000000000746e+00 5.019440000000000168e+01 2.014315000000000055e+03
6.800000000000000488e-02 1.735250000000000126e-01 8.765040000000000830e+00 5.592199999999999704e+01 2.015795000000000073e+03
6.900000000000000577e-02 1.737330000000000263e-01 1.125422499999999992e+01 6.168374999999999631e+01 2.017345000000000027e+03
7.000000000000000666e-02 1.739455000000000029e-01 1.373379500000000064e+01 6.735290000000000532e+01 2.018934999999999945e+03
7.100000000000000755e-02 1.741570000000000062e-01 1.615200000000000102e+01 7.282375000000000398e+01 2.020529999999999973e+03
7.200000000000000844e-02 1.743645000000000056e-01 1.846545000000000059e+01 7.801534999999999798e+01 2.022090000000000146e+03
7.300000000000000933e-02 1.745634999999999826e-01 2.064095000000000013e+01 8.287360000000001037e+01 2.023599999999999909e+03
7.399999999999999634e-02 1.747535000000000061e-01 2.265594999999999715e+01 8.737239999999999895e+01 2.025039999999999964e+03
7.499999999999999722e-02 1.749320000000000042e-01 2.449944999999999951e+01 9.151290000000000191e+01 2.026400000000000091e+03
7.599999999999999811e-02 1.750990000000000046e-01 2.617115000000000080e+01 9.532114999999998872e+01 2.027675000000000182e+03
7.699999999999999900e-02 1.752549999999999941e-01 2.768079999999999785e+01 9.884444999999999482e+01 2.028875000000000000e+03
7.799999999999999989e-02 1.754014999999999880e-01 2.904619999999999891e+01 1.021454999999999984e+02 2.029994999999999891e+03
7.900000000000000078e-02 1.755404999999999882e-01 3.029110000000000014e+01 1.052983499999999992e+02 2.031065000000000055e+03
8.000000000000000167e-02 1.756739999999999968e-01 3.144309999999999761e+01 1.083795000000000073e+02 2.032095000000000027e+03
8.100000000000000255e-02 1.758045000000000024e-01 3.253065000000000140e+01 1.114609999999999985e+02 2.033099999999999909e+03
8.200000000000000344e-02 1.759344999999999937e-01 3.358075000000000188e+01 1.146080000000000041e+02 2.034099999999999909e+03
8.300000000000000433e-02 1.760665000000000147e-01 3.461695000000000277e+01 1.178695000000000022e+02 2.035110000000000127e+03
8.400000000000000522e-02 1.762009999999999965e-01 3.565729999999999933e+01 1.212785000000000082e+02 2.036144999999999982e+03
8.500000000000000611e-02 1.763405000000000111e-01 3.671340000000000003e+01 1.248474999999999966e+02 2.037219999999999800e+03
8.600000000000000699e-02 1.764850000000000030e-01 3.778969999999999629e+01 1.285685000000000002e+02 2.038320000000000164e+03
8.700000000000000788e-02 1.766340000000000132e-01 3.888344999999999629e+01 1.324170000000000016e+02 2.039465000000000146e+03
8.800000000000000877e-02 1.767865000000000131e-01 3.998515000000000441e+01 1.363489999999999895e+02 2.040639999999999873e+03
8.899999999999999578e-02 1.769425000000000026e-01 4.107959999999999923e+01 1.403104999999999905e+02 2.041829999999999927e+03
8.999999999999999667e-02 1.770984999999999920e-01 4.214705000000000013e+01 1.442375000000000114e+02 2.043035000000000082e+03
9.099999999999999756e-02 1.772529999999999939e-01 4.316460000000000008e+01 1.480610000000000070e+02 2.044224999999999909e+03
9.199999999999999845e-02 1.774040000000000061e-01 4.410795000000000243e+01 1.517115000000000009e+02 2.045389999999999873e+03
9.299999999999999933e-02 1.775490000000000124e-01 4.495274999999999466e+01 1.551245000000000118e+02 2.046505000000000109e+03
9.400000000000000022e-02 1.776854999999999962e-01 4.567605000000000359e+01 1.582400000000000091e+02 2.047559999999999945e+03
9.500000000000000111e-02 1.778115000000000112e-01 4.625789999999999935e+01 1.610095000000000027e+02 2.048534999999999854e+03
9.600000000000000200e-02 1.779249999999999998e-01 4.668195000000000050e+01 1.633949999999999818e+02 2.049420000000000073e+03
9.700000000000000289e-02 1.780245000000000022e-01 4.693665000000000020e+01 1.653725000000000023e+02 2.050199999999999818e+03
9.800000000000000377e-02 1.781099999999999905e-01 4.701559999999999917e+01 1.669300000000000068e+02 2.050864999999999782e+03
9.900000000000000466e-02 1.781789999999999763e-01 4.691785000000000139e+01 1.680715000000000146e+02 2.051414999999999964e+03
1.000000000000000056e-01 1.782334999999999892e-01 4.664789999999999992e+01 1.688129999999999882e+02 2.051844999999999800e+03
1.010000000000000064e-01 1.782730000000000148e-01 4.621545000000000414e+01 1.691809999999999832e+02 2.052159999999999854e+03
1.020000000000000073e-01 1.782984999999999987e-01 4.563495000000000346e+01 1.692130000000000223e+02 2.052369999999999891e+03
1.030000000000000082e-01 1.783104999999999829e-01 4.492445000000000022e+01 1.689555000000000007e+02 2.052474999999999909e+03
1.040000000000000091e-01 1.783115000000000117e-01 4.410540000000000305e+01 1.684579999999999984e+02 2.052494999999999891e+03
1.050000000000000100e-01 1.783029999999999893e-01 4.320094999999999885e+01 1.677744999999999891e+02 2.052440000000000055e+03
1.059999999999999970e-01 1.782860000000000000e-01 4.223539999999999850e+01 1.669615000000000009e+02 2.052319999999999709e+03
1.069999999999999979e-01 1.782634999999999914e-01 4.123305000000000575e+01 1.660699999999999932e+02 2.052155000000000200e+03
1.079999999999999988e-01 1.782370000000000065e-01 4.021705000000000041e+01 1.651505000000000223e+02 2.051954999999999927e+03
1.089999999999999997e-01 1.782084999999999919e-01 3.920855000000000246e+01 1.642454999999999927e+02 2.051740000000000236e+03
1.100000000000000006e-01 1.781794999999999907e-01 3.822610000000000241e+01 1.633924999999999841e+02 2.051510000000000218e+03
1.110000000000000014e-01 1.781504999999999894e-01 3.728475000000000250e+01 1.626179999999999950e+02 2.051295000000000073e+03
1.120000000000000023e-01 1.781234999999999902e-01 3.639570000000000505e+01 1.619409999999999741e+02 2.051085000000000036e+03
1.130000000000000032e-01 1.780994999999999939e-01 3.556619999999999493e+01 1.613714999999999975e+02 2.050900000000000091e+03
1.140000000000000041e-01 1.780785000000000007e-01 3.479940000000000566e+01 1.609089999999999918e+02 2.050730000000000018e+03
1.150000000000000050e-01 1.780605000000000104e-01 3.409420000000000073e+01 1.605439999999999827e+02 2.050590000000000146e+03
1.160000000000000059e-01 1.780455000000000232e-01 3.344590000000000174e+01 1.602599999999999909e+02 2.050465000000000146e+03
1.170000000000000068e-01 1.780329999999999968e-01 3.284669999999999845e+01 1.600339999999999918e+02 2.050365000000000236e+03
1.180000000000000077e-01 1.780225000000000002e-01 3.228600000000000136e+01 1.598379999999999939e+02 2.050279999999999745e+03
1.190000000000000085e-01 1.780125000000000179e-01 3.175124999999999886e+01 1.596394999999999982e+02 2.050195000000000164e+03
1.200000000000000094e-01 1.780025000000000079e-01 3.122895000000000110e+01 1.594070000000000107e+02 2.050119999999999891e+03
1.209999999999999964e-01 1.779914999999999969e-01 3.070510000000000161e+01 1.591064999999999827e+02 2.050029999999999745e+03
1.219999999999999973e-01 1.779779999999999973e-01 3.016620000000000346e+01 1.587094999999999914e+02 2.049925000000000182e+03
1.229999999999999982e-01 1.779614999999999947e-01 2.960009999999999764e+01 1.581895000000000095e+02 2.049789999999999964e+03
1.239999999999999991e-01 1.779399999999999871e-01 2.899634999999999962e+01 1.575260000000000105e+02 2.049630000000000109e+03
1.250000000000000000e-01 1.779140000000000166e-01 2.834725000000000250e+01 1.567055000000000007e+02 2.049429999999999836e+03
1.260000000000000009e-01 1.778824999999999990e-01 2.764780000000000015e+01 1.557214999999999918e+02 2.049184999999999945e+03
1.270000000000000018e-01 1.778450000000000031e-01 2.689649999999999963e+01 1.545765000000000100e+02 2.048900000000000091e+03
1.280000000000000027e-01 1.778020000000000156e-01 2.609499999999999886e+01 1.532794999999999845e+02 2.048574999999999818e+03
1.290000000000000036e-01 1.777529999999999943e-01 2.524824999999999875e+01 1.518489999999999895e+02 2.048199999999999818e+03
1.300000000000000044e-01 1.776995000000000102e-01 2.436420000000000030e+01 1.503075000000000045e+02 2.047789999999999964e+03
1.310000000000000053e-01 1.776420000000000221e-01 2.345354999999999990e+01 1.486854999999999905e+02 2.047349999999999909e+03
1.320000000000000062e-01 1.775815000000000032e-01 2.252899999999999991e+01 1.470174999999999841e+02 2.046884999999999764e+03
1.330000000000000071e-01 1.775190000000000101e-01 2.160480000000000089e+01 1.453394999999999868e+02 2.046400000000000091e+03
1.340000000000000080e-01 1.774554999999999882e-01 2.069575000000000031e+01 1.436879999999999882e+02 2.045920000000000073e+03
1.350000000000000089e-01 1.773930000000000229e-01 1.981690000000000040e+01 1.420995000000000061e+02 2.045434999999999945e+03
1.360000000000000098e-01 1.773319999999999896e-01 1.898245000000000005e+01 1.406084999999999923e+02 2.044965000000000146e+03
1.370000000000000107e-01 1.772739999999999871e-01 1.820540000000000092e+01 1.392425000000000068e+02 2.044519999999999982e+03
1.380000000000000115e-01 1.772205000000000030e-01 1.749670000000000059e+01 1.380264999999999986e+02 2.044105000000000018e+03
1.390000000000000124e-01 1.771719999999999962e-01 1.686505000000000010e+01 1.369784999999999968e+02 2.043730000000000018e+03
1.400000000000000133e-01 1.771289999999999809e-01 1.631649999999999778e+01 1.361084999999999923e+02 2.043394999999999982e+03
1.410000000000000142e-01 1.770924999999999860e-01 1.585420000000000051e+01 1.354219999999999970e+02 2.043115000000000009e+03
1.420000000000000151e-01 1.770625000000000115e-01 1.547850000000000037e+01 1.349155000000000086e+02 2.042875000000000000e+03
1.430000000000000160e-01 1.770390000000000019e-01 1.518694999999999951e+01 1.345805000000000007e+02 2.042690000000000055e+03
1.440000000000000169e-01 1.770214999999999983e-01 1.497460000000000058e+01 1.344025000000000034e+02 2.042549999999999955e+03
1.450000000000000178e-01 1.770105000000000151e-01 1.483450000000000024e+01 1.343634999999999877e+02 2.042454999999999927e+03
1.459999999999999909e-01 1.770039999999999947e-01 1.475769999999999982e+01 1.344404999999999859e+02 2.042404999999999973e+03
1.469999999999999918e-01 1.770025000000000071e-01 1.473409999999999975e+01 1.346105000000000018e+02 2.042385000000000218e+03
1.479999999999999927e-01 1.770045000000000091e-01 1.475280000000000058e+01 1.348474999999999966e+02 2.042394999999999982e+03
1.489999999999999936e-01 1.770100000000000007e-01 1.480259999999999998e+01 1.351274999999999977e+02 2.042430000000000064e+03
1.499999999999999944e-01 1.770170000000000077e-01 1.487229999999999919e+01 1.354254999999999995e+02 2.042480000000000018e+03
1.509999999999999953e-01 1.770255000000000023e-01 1.495134999999999970e+01 1.357199999999999989e+02 2.042539999999999964e+03
1.519999999999999962e-01 1.770339999999999969e-01 1.503010000000000090e+01 1.359929999999999950e+02 2.042599999999999909e+03
1.529999999999999971e-01 1.770424999999999915e-01 1.510004999999999953e+01 1.362270000000000039e+02 2.042664999999999964e+03
1.539999999999999980e-01 1.770494999999999985e-01 1.515409999999999968e+01 1.364105000000000132e+02 2.042719999999999800e+03
1.549999999999999989e-01 1.770555000000000045e-01 1.518684999999999974e+01 1.365345000000000084e+02 2.042764999999999873e+03
1.559999999999999998e-01 1.770595000000000085e-01 1.519425000000000026e+01 1.365949999999999989e+02 2.042799999999999955e+03
1.570000000000000007e-01 1.770614999999999828e-01 1.517410000000000103e+01 1.365889999999999986e+02 2.042815000000000055e+03
1.580000000000000016e-01 1.770614999999999828e-01 1.512565000000000026e+01 1.365190000000000055e+02 2.042815000000000055e+03
1.590000000000000024e-01 1.770594999999999808e-01 1.504964999999999975e+01 1.363899999999999864e+02 2.042800000000000182e+03
