# t [s], A [cm^2], U [cm/s], P [cPa], c [cm/s]
1.000000000000000021e-03 6.606695000000000206e-01 2.967549999999999355e-03 9.612905000000000655e+01 1.613144999999999982e+03
2.000000000000000042e-03 6.606650000000000578e-01 8.444150000000000961e-03 9.610890000000000555e+01 1.613139999999999873e+03
3.000000000000000062e-03 6.607389999999999652e-01 1.393146000000000106e-01 9.624850000000000705e+01 1.613175000000000182e+03
4.000000000000000083e-03 6.607750000000000012e-01 2.145294999999999841e-01 9.633985000000001264e+01 1.613195000000000164e+03
5.000000000000000104e-03 6.607220000000000315e-01 1.434825000000000128e-01 9.620265000000000555e+01 1.613170000000000073e+03
6.000000000000000125e-03 6.606469999999999843e-01 2.454200000000000825e-02 9.591235000000000355e+01 1.613109999999999900e+03
7.000000000000000146e-03 6.605615000000000236e-01 -1.236800000000000122e-01 9.550870000000000459e+01 1.613025000000000091e+03
8.000000000000000167e-03 6.604084999999999539e-01 -4.030300000000001104e-01 9.486469999999999914e+01 1.612884999999999991e+03
9.000000000000001055e-03 6.601719999999999811e-01 -8.393599999999999950e-01 9.390035000000000309e+01 1.612680000000000064e+03
1.000000000000000194e-02 6.598450000000000149e-01 -1.433699999999999974e+00 9.256589999999999918e+01 1.612389999999999873e+03
1.099999999999999936e-02 6.594054999999999778e-01 -2.203825000000000145e+00 9.079214999999999236e+01 1.611994999999999891e+03
1.200000000000000025e-02 6.588644999999999641e-01 -3.108079999999999732e+00 8.858154999999999291e+01 1.611490000000000009e+03
1.300000000000000114e-02 6.582850000000000090e-01 -4.000639999999999752e+00 8.609434999999999150e+01 1.610909999999999854e+03
1.400000000000000203e-02 6.577565000000000772e-01 -4.689427499999999860e+00 8.360564999999999714e+01 1.610304999999999836e+03
1.499999999999999944e-02 6.573404999999999943e-01 -5.031661000000000605e+00 8.137924999999999898e+01 1.609730000000000018e+03
1.600000000000000033e-02 6.570469999999999366e-01 -4.987989999999999924e+00 7.956239999999999668e+01 1.609224999999999909e+03
1.700000000000000122e-02 6.568410000000000082e-01 -4.618895000000000195e+00 7.815080000000000382e+01 1.608795000000000073e+03
1.800000000000000211e-02 6.566654999999999021e-01 -4.044599999999999973e+00 7.701814999999999145e+01 1.608429999999999836e+03
1.900000000000000300e-02 6.564634999999999776e-01 -3.393464999999999954e+00 7.598114999999999952e+01 1.608085000000000036e+03
2.000000000000000042e-02 6.562004999999999644e-01 -2.757365500000000136e+00 7.487354999999999450e+01 1.607735000000000127e+03
2.100000000000000130e-02 6.558720000000000105e-01 -2.168971500000000052e+00 7.360070000000000334e+01 1.607355000000000018e+03
2.200000000000000219e-02 6.554969999999999963e-01 -1.608144999999999936e+00 7.215574999999999761e+01 1.606945000000000164e+03
2.299999999999999961e-02 6.551050000000000484e-01 -1.031199999999999894e+00 7.059465000000000146e+01 1.606505000000000109e+03
2.400000000000000050e-02 6.547169999999999934e-01 -4.060300000000003351e-01 6.898865000000000691e+01 1.606055000000000064e+03
2.500000000000000139e-02 6.543390000000000040e-01 2.629250000000000753e-01 6.737909999999999400e+01 1.605599999999999909e+03
2.600000000000000228e-02 6.539530000000000065e-01 9.274150000000003224e-01 6.575034999999999741e+01 1.605130000000000109e+03
2.700000000000000316e-02 6.535294999999999854e-01 1.504599999999999937e+00 6.402774999999999750e+01 1.604644999999999982e+03
2.800000000000000058e-02 6.530325000000000157e-01 1.897505000000000219e+00 6.209629999999999939e+01 1.604115000000000009e+03
2.900000000000000147e-02 6.524300000000000654e-01 2.019980000000000331e+00 5.983379999999999654e+01 1.603519999999999982e+03
3.000000000000000236e-02 6.517070000000000363e-01 1.819635000000000336e+00 5.714900000000000091e+01 1.602829999999999927e+03
3.099999999999999978e-02 6.508680000000000021e-01 1.292639999999999567e+00 5.401350000000000051e+01 1.602039999999999964e+03
3.200000000000000067e-02 6.499399999999999622e-01 4.860450000000007265e-01 5.047845000000000226e+01 1.601159999999999854e+03
3.300000000000000155e-02 6.489674999999999194e-01 -5.116500000000003823e-01 4.667215000000000202e+01 1.600210000000000036e+03
3.400000000000000244e-02 6.480025000000000368e-01 -1.589050000000000296e+00 4.277944999999999709e+01 1.599234999999999900e+03
3.500000000000000333e-02 6.470979999999999510e-01 -2.631494999999999695e+00 3.901225000000000165e+01 1.598265000000000100e+03
3.600000000000000422e-02 6.463004999999999445e-01 -3.537770000000000081e+00 3.557854999999999990e+01 1.597360000000000127e+03
3.700000000000000511e-02 6.456429999999999669e-01 -4.230380000000000251e+00 3.265695000000000192e+01 1.596565000000000055e+03
3.799999999999999906e-02 6.451485000000000136e-01 -4.659055000000000391e+00 3.038059999999999761e+01 1.595905000000000200e+03
3.899999999999999994e-02 6.448270000000000390e-01 -4.798379999999999868e+00 2.883124999999999716e+01 1.595414999999999964e+03
4.000000000000000083e-02 6.446784999999999322e-01 -4.642235000000000333e+00 2.804209999999999781e+01 1.595099999999999909e+03
4.100000000000000172e-02 6.446970000000000756e-01 -4.196860000000000035e+00 2.800639999999999930e+01 1.594974999999999909e+03
4.200000000000000261e-02 6.448734999999999884e-01 -3.474593000000000043e+00 2.868959999999999866e+01 1.595039999999999964e+03
4.300000000000000350e-02 6.451964999999999506e-01 -2.489879999999999871e+00 3.004010000000000247e+01 1.595269999999999982e+03
4.400000000000000439e-02 6.456534999999999913e-01 -1.257969999999999811e+00 3.199779999999999802e+01 1.595664999999999964e+03
4.499999999999999833e-02 6.462320000000000286e-01 2.041050000000002029e-01 3.449824999999999875e+01 1.596204999999999927e+03
4.599999999999999922e-02 6.469175000000000342e-01 1.875239999999999796e+00 3.747395000000000209e+01 1.596880000000000109e+03
4.700000000000000011e-02 6.476939999999999920e-01 3.728104999999999780e+00 4.085294999999999987e+01 1.597670000000000073e+03
4.800000000000000100e-02 6.485434999999999395e-01 5.727850000000000108e+00 4.455780000000000030e+01 1.598554999999999836e+03
4.900000000000000189e-02 6.494450000000000500e-01 7.832819999999999006e+00 4.850560000000000116e+01 1.599519999999999982e+03
5.000000000000000278e-02 6.503784999999999705e-01 9.996266499999999056e+00 5.260904999999999632e+01 1.600535000000000082e+03
5.100000000000000366e-02 6.513219999999999565e-01 1.216950499999999913e+01 5.678040000000000020e+01 1.601585000000000036e+03
5.200000000000000455e-02 6.522569999999999757e-01 1.430556499999999964e+01 6.093569999999999709e+01 1.602650000000000091e+03
5.300000000000000544e-02 6.531664999999999832e-01 1.636251999999999995e+01 6.499989999999999668e+01 1.603710000000000036e+03
5.399999999999999939e-02 6.540380000000000082e-01 1.830600000000000094e+01 6.891134999999999877e+01 1.604740000000000009e+03
5.500000000000000028e-02 6.548629999999999729e-01 2.011084999999999923e+01 7.262510000000000332e+01 1.605744999999999891e+03
5.600000000000000117e-02 6.556385000000000129e-01 2.176194999999999879e+01 7.611449999999999250e+01 1.606694999999999936e+03
5.700000000000000205e-02 6.563634999999999886e-01 2.325345000000000084e+01 7.937135000000000673e+01 1.607599999999999909e+03
5.800000000000000294e-02 6.570430000000000437e-01 2.458805000000000263e+01 8.240430000000000632e+01 1.608450000000000045e+03
5.900000000000000383e-02 6.576824999999999477e-01 2.577530000000000143e+01 8.523634999999998740e+01 1.609259999999999991e+03
6.000000000000000472e-02 6.582909999999999595e-01 2.683010000000000161e+01 8.790149999999999864e+01 1.610019999999999982e+03
6.099999999999999867e-02 6.588780000000000747e-01 2.777114999999999867e+01 9.044104999999998995e+01 1.610755000000000109e+03
6.199999999999999956e-02 6.594539999999999846e-01 2.861929999999999907e+01 9.290045000000000641e+01 1.611460000000000036e+03
6.300000000000000044e-02 6.600289999999999768e-01 2.939625000000000199e+01 9.532529999999999859e+01 1.612154999999999973e+03
6.400000000000000133e-02 6.606125000000000469e-01 3.012330000000000041e+01 9.775894999999999868e+01 1.612845000000000027e+03
6.500000000000000222e-02 6.612109999999999932e-01 3.081954999999999956e+01 1.002392499999999984e+02 1.613545000000000073e+03
6.600000000000000311e-02 6.618315000000000170e-01 3.150144999999999840e+01 1.027948999999999984e+02 1.614255000000000109e+03
6.700000000000000400e-02 6.624760000000000648e-01 3.218084999999999951e+01 1.054459999999999980e+02 1.614990000000000009e+03
6.800000000000000488e-02 6.631464999999999721e-01 3.286480000000000246e+01 1.081999999999999886e+02 1.615744999999999891e+03
6.900000000000000577e-02 6.638395000000000268e-01 3.355490000000000350e+01 1.110525000000000091e+02 1.616525000000000091e+03
7.000000000000000666e-02 6.645505000000000440e-01 3.424705000000000155e+01 1.139855000000000018e+02 1.617325000000000045e+03
7.100000000000000755e-02 6.652715000000000156e-01 3.493209999999999837e+01 1.169724999999999966e+02 1.618134999999999991e+03
7.200000000000000844e-02 6.659939999999999749e-01 3.559675000000000011e+01 1.199754999999999967e+02 1.618954999999999927e+03
7.300000000000000933e-02 6.667064999999999797e-01 3.622455000000000069e+01 1.229509999999999934e+02 1.619769999999999982e+03
7.399999999999999634e-02 6.673979999999999357e-01 3.679734999999999445e+01 1.258494999999999919e+02 1.620569999999999936e+03
7.499999999999999722e-02 6.680565000000000531e-01 3.729649999999999466e+01 1.286235000000000070e+02 1.621345000000000027e+03
7.599999999999999811e-02 6.686719999999999331e-01 3.770430000000000348e+01 1.312265000000000157e+02 1.622079999999999927e+03
7.699999999999999900e-02 6.692365000000000119e-01 3.800515000000000043e+01 1.336159999999999854e+02 1.622759999999999991e+03
7.799999999999999989e-02 6.697414999999999896e-01 3.818654999999999688e+01 1.357584999999999980e+02 1.623384999999999991e+03
7.900000000000000078e-02 6.701825000000000143e-01 3.823930000000000007e+01 1.376279999999999859e+02 1.623945000000000164e+03
8.000000000000000167e-02 6.705559999999999299e-01 3.815874999999999773e+01 1.392079999999999984e+02 1.624429999999999836e+03
8.100000000000000255e-02 6.708614999999999995e-01 3.794420000000000215e+01 1.404934999999999832e+02 1.624835000000000036e+03
8.200000000000000344e-02 6.711004999999999887e-01 3.759940000000000282e+01 1.414875000000000114e+02 1.625170000000000073e+03
8.300000000000000433e-02 6.712765000000000537e-01 3.713204999999999956e+01 1.422035000000000196e+02 1.625430000000000064e+03
8.400000000000000522e-02 6.713949999999999640e-01 3.655349999999999966e+01 1.426639999999999873e+02 1.625615000000000009e+03
8.500000000000000611e-02 6.714634999999999909e-01 3.587814999999999799e+01 1.428965000000000032e+02 1.625744999999999891e+03
8.600000000000000699e-02 6.714885000000000437e-01 3.512279999999999802e+01 1.429340000000000259e+02 1.625815000000000055e+03
8.700000000000000788e-02 6.714789999999999370e-01 3.430584999999999951e+01 1.428149999999999977e+02 1.625835000000000036e+03
8.800000000000000877e-02 6.714439999999999298e-01 3.344665000000000532e+01 1.425780000000000030e+02 1.625819999999999936e+03
8.899999999999999578e-02 6.713925000000000587e-01 3.256445000000000078e+01 1.422620000000000005e+02 1.625775000000000091e+03
8.999999999999999667e-02 6.713320000000000398e-01 3.167759999999999820e+01 1.419035000000000082e+02 1.625710000000000036e+03
9.099999999999999756e-02 6.712704999999999922e-01 3.080310000000000059e+01 1.415375000000000227e+02 1.625634999999999991e+03
9.199999999999999845e-02 6.712145000000000472e-01 2.995534999999999926e+01 1.411920000000000073e+02 1.625559999999999945e+03
9.299999999999999933e-02 6.711674999999999169e-01 2.914625000000000199e+01 1.408905000000000030e+02 1.625490000000000009e+03
9.400000000000000022e-02 6.711340000000000083e-01 2.838425000000000153e+01 1.406510000000000105e+02 1.625429999999999836e+03
9.500000000000000111e-02 6.711165000000000047e-01 2.767445000000000022e+01 1.404819999999999993e+02 1.625384999999999991e+03
9.600000000000000200e-02 6.711139999999999883e-01 2.701849999999999952e+01 1.403874999999999886e+02 1.625349999999999909e+03
9.700000000000000289e-02 6.711249999999999716e-01 2.641474999999999795e+01 1.403639999999999759e+02 1.625335000000000036e+03
9.800000000000000377e-02 6.711480000000000778e-01 2.585835000000000150e+01 1.404019999999999868e+02 1.625335000000000036e+03
9.900000000000000466e-02 6.711789999999999701e-01 2.534199999999999875e+01 1.404870000000000232e+02 1.625349999999999909e+03
1.000000000000000056e-01 6.712135000000000185e-01 2.485640000000000072e+01 1.405999999999999943e+02 1.625369999999999891e+03
1.010000000000000064e-01 6.712464999999999682e-01 2.439065000000000083e+01 1.407205000000000155e+02 1.625390000000000100e+03
1.020000000000000073e-01 6.712735000000000785e-01 2.393329999999999913e+01 1.408255000000000052e+02 1.625409999999999854e+03
1.030000000000000082e-01 6.712884999999999547e-01 2.347254999999999825e+01 1.408930000000000007e+02 1.625424999999999955e+03
1.040000000000000091e-01 6.712879999999999958e-01 2.299749999999999872e+01 1.409010000000000105e+02 1.625424999999999955e+03
1.050000000000000100e-01 6.712670000000000581e-01 2.249820000000000064e+01 1.408305000000000007e+02 1.625410000000000082e+03
1.059999999999999970e-01 6.712234999999999729e-01 2.196645000000000181e+01 1.406680000000000064e+02 1.625369999999999891e+03
1.069999999999999979e-01 6.711540000000000283e-01 2.139625000000000199e+01 1.404010000000000105e+02 1.625309999999999945e+03
1.079999999999999988e-01 6.710590000000000721e-01 2.078405000000000058e+01 1.400244999999999891e+02 1.625224999999999909e+03
1.089999999999999997e-01 6.709384999999999932e-01 2.012890000000000157e+01 1.395384999999999991e+02 1.625105000000000018e+03
1.100000000000000006e-01 6.707944999999999602e-01 1.943274999999999864e+01 1.389470000000000027e+02 1.624960000000000036e+03
1.110000000000000014e-01 6.706285000000000718e-01 1.869999999999999929e+01 1.382605000000000075e+02 1.624795000000000073e+03
1.120000000000000023e-01 6.704459999999999864e-01 1.793759999999999977e+01 1.374934999999999832e+02 1.624605000000000018e+03
1.130000000000000032e-01 6.702504999999999713e-01 1.715460000000000207e+01 1.366650000000000205e+02 1.624400000000000091e+03
1.140000000000000041e-01 6.700475000000000181e-01 1.636175000000000068e+01 1.357970000000000255e+02 1.624175000000000182e+03
1.150000000000000050e-01 6.698429999999999662e-01 1.557099999999999973e+01 1.349134999999999991e+02 1.623950000000000045e+03
1.160000000000000059e-01 6.696429999999999882e-01 1.479485000000000028e+01 1.340394999999999754e+02 1.623720000000000027e+03
1.170000000000000068e-01 6.694519999999999360e-01 1.404587499999999878e+01 1.331995000000000005e+02 1.623500000000000000e+03
1.180000000000000077e-01 6.692769999999998998e-01 1.333604000000000056e+01 1.324175000000000182e+02 1.623284999999999854e+03
1.190000000000000085e-01 6.691214999999999247e-01 1.267612499999999898e+01 1.317144999999999868e+02 1.623090000000000146e+03
1.200000000000000094e-01 6.689890000000000558e-01 1.207543499999999881e+01 1.311080000000000041e+02 1.622914999999999964e+03
1.209999999999999964e-01 6.688830000000000053e-01 1.154110999999999976e+01 1.306114999999999782e+02 1.622764999999999873e+03
1.219999999999999973e-01 6.688045000000000240e-01 1.107806499999999872e+01 1.302339999999999804e+02 1.622644999999999982e+03
1.229999999999999982e-01 6.687544999999999185e-01 1.068867499999999993e+01 1.299795000000000016e+02 1.622559999999999945e+03
1.239999999999999991e-01 6.687324999999999520e-01 1.037290499999999938e+01 1.298464999999999918e+02 1.622500000000000000e+03
1.250000000000000000e-01 6.687359999999999971e-01 1.012835000000000107e+01 1.298299999999999841e+02 1.622470000000000027e+03
1.260000000000000009e-01 6.687635000000000662e-01 9.950410000000001531e+00 1.299205000000000041e+02 1.622465000000000146e+03
1.270000000000000018e-01 6.688110000000000444e-01 9.832630000000001758e+00 1.301034999999999968e+02 1.622494999999999891e+03
1.280000000000000027e-01 6.688749999999999973e-01 9.767049999999999343e+00 1.303639999999999759e+02 1.622539999999999964e+03
1.290000000000000036e-01 6.689505000000000035e-01 9.744749999999999801e+00 1.306845000000000141e+02 1.622605000000000018e+03
1.300000000000000044e-01 6.690344999999999764e-01 9.756119999999999237e+00 1.310455000000000041e+02 1.622680000000000064e+03
1.310000000000000053e-01 6.691219999999999946e-01 9.791309999999999292e+00 1.314279999999999973e+02 1.622769999999999982e+03
1.320000000000000062e-01 6.692089999999999428e-01 9.840830000000000410e+00 1.318154999999999859e+02 1.622860000000000127e+03
1.330000000000000071e-01 6.692919999999999980e-01 9.895654999999999646e+00 1.321904999999999859e+02 1.622949999999999818e+03
1.340000000000000080e-01 6.693685000000000329e-01 9.947559999999999292e+00 1.325400000000000205e+02 1.623034999999999854e+03
1.350000000000000089e-01 6.694355000000000722e-01 9.989610000000000767e+00 1.328514999999999873e+02 1.623119999999999891e+03
1.360000000000000098e-01 6.694915000000000171e-01 1.001597500000000096e+01 1.331165000000000020e+02 1.623190000000000055e+03
1.370000000000000107e-01 6.695349999999999913e-01 1.002233499999999999e+01 1.333290000000000077e+02 1.623250000000000000e+03
1.380000000000000115e-01 6.695660000000001055e-01 1.000568999999999953e+01 1.334859999999999900e+02 1.623295000000000073e+03
1.390000000000000124e-01 6.695849999999999858e-01 9.964459999999998985e+00 1.335875000000000057e+02 1.623329999999999927e+03
1.400000000000000133e-01 6.695919999999999650e-01 9.898424999999999585e+00 1.336345000000000027e+02 1.623355000000000018e+03
1.410000000000000142e-01 6.695880000000000720e-01 9.808510000000000062e+00 1.336324999999999932e+02 1.623360000000000127e+03
1.420000000000000151e-01 6.695750000000000313e-01 9.696649999999999991e+00 1.335865000000000009e+02 1.623355000000000018e+03
1.430000000000000160e-01 6.695539999999999825e-01 9.565774999999998585e+00 1.335040000000000191e+02 1.623345000000000027e+03
1.440000000000000169e-01 6.695280000000000120e-01 9.419319999999999027e+00 1.333930000000000007e+02 1.623325000000000045e+03
1.450000000000000178e-01 6.694975000000000787e-01 9.261279999999999291e+00 1.332620000000000005e+02 1.623299999999999955e+03
1.459999999999999909e-01 6.694655000000000467e-01 9.095845000000000624e+00 1.331189999999999998e+02 1.623264999999999873e+03
1.469999999999999918e-01 6.694335000000000147e-01 8.927184999999999704e+00 1.329719999999999800e+02 1.623230000000000018e+03
1.479999999999999927e-01 6.694029999999999703e-01 8.759460000000000690e+00 1.328290000000000077e+02 1.623200000000000045e+03
1.489999999999999936e-01 6.693755000000000122e-01 8.596265000000000711e+00 1.326954999999999814e+02 1.623170000000000073e+03
1.499999999999999944e-01 6.693515000000000992e-01 8.440879999999999939e+00 1.325769999999999982e+02 1.623135000000000218e+03
1.509999999999999953e-01 6.693320000000000380e-01 8.295974999999998545e+00 1.324764999999999873e+02 1.623110000000000127e+03
1.519999999999999962e-01 6.693175000000000097e-01 8.163460000000000605e+00 1.323969999999999914e+02 1.623085000000000036e+03
1.529999999999999971e-01 6.693085000000000839e-01 8.044584999999999653e+00 1.323385000000000105e+02 1.623070000000000164e+03
1.539999999999999980e-01 6.693029999999999813e-01 7.939869999999999095e+00 1.323015000000000043e+02 1.623059999999999945e+03
1.549999999999999989e-01 6.693029999999999813e-01 7.849170000000000869e+00 1.322824999999999989e+02 1.623050000000000182e+03
1.559999999999999998e-01 6.693050000000000388e-01 7.771744999999999237e+00 1.322805000000000177e+02 1.623049999999999955e+03
1.570000000000000007e-01 6.693104999999999194e-01 7.706335000000000157e+00 1.322905000000000086e+02 1.623045000000000073e+03
1.580000000000000016e-01 6.693164999999999809e-01 7.651315000000000310e+00 1.323084999999999809e+02 1.623049999999999955e+03
1.590000000000000024e-01 6.693240000000000300e-01 7.604775000000000063e+00 1.323299999999999841e+02 1.623054999999999836e+03
