# t [s], A [cm^2], U [cm/s], P [cPa], c [cm/s]
1.000000000000000021e-03 1.378155000000000074e-01 3.388749999999999818e-01 8.751910000000000878e+01 1.764795000000000073e+03
2.000000000000000042e-03 1.377939999999999998e-01 1.772873999999999839e+00 8.473414999999999964e+01 1.764574999999999818e+03
3.000000000000000062e-03 1.377109999999999723e-01 3.489154999999999784e+00 8.120490000000000919e+01 1.763759999999999991e+03
4.000000000000000083e-03 1.375859999999999861e-01 5.370728000000000613e+00 7.738649999999999807e+01 1.762559999999999945e+03
5.000000000000000104e-03 1.374414999999999942e-01 7.373565000000000147e+00 7.388870000000000005e+01 1.761190000000000055e+03
6.000000000000000125e-03 1.372939999999999994e-01 9.401299999999999102e+00 7.098975000000000080e+01 1.759795000000000073e+03
7.000000000000000146e-03 1.371514999999999818e-01 1.131542499999999940e+01 6.861240000000000805e+01 1.758465000000000146e+03
8.000000000000000167e-03 1.370164999999999855e-01 1.301643999999999934e+01 6.655199999999999250e+01 1.757214999999999918e+03
9.000000000000001055e-03 1.368909999999999849e-01 1.448985500000000037e+01 6.471805000000000518e+01 1.756074999999999818e+03
1.000000000000000194e-02 1.367780000000000107e-01 1.576235000000000142e+01 6.313814999999999600e+01 1.755065000000000055e+03
1.099999999999999936e-02 1.366795000000000093e-01 1.685075000000000145e+01 6.182880000000000109e+01 1.754190000000000055e+03
1.200000000000000025e-02 1.365954999999999808e-01 1.776055000000000206e+01 6.075709999999999411e+01 1.753445000000000164e+03
1.300000000000000114e-02 1.365235000000000198e-01 1.849784999999999968e+01 5.987550000000000239e+01 1.752815000000000055e+03
1.400000000000000203e-02 1.364630000000000010e-01 1.906984999999999886e+01 5.913665000000000305e+01 1.752295000000000073e+03
1.499999999999999944e-02 1.364114999999999911e-01 1.948610000000000042e+01 5.849385000000000190e+01 1.751865000000000009e+03
1.600000000000000033e-02 1.363679999999999892e-01 1.977190000000000225e+01 5.792855000000000132e+01 1.751494999999999891e+03
1.700000000000000122e-02 1.363324999999999954e-01 1.998075000000000045e+01 5.749210000000000065e+01 1.751204999999999927e+03
1.800000000000000211e-02 1.363059999999999827e-01 2.018919999999999959e+01 5.731434999999999746e+01 1.750994999999999891e+03
1.900000000000000300e-02 1.362935000000000119e-01 2.047274999999999778e+01 5.755639999999999645e+01 1.750900000000000091e+03
2.000000000000000042e-02 1.362984999999999891e-01 2.087685000000000102e+01 5.833174999999999955e+01 1.750954999999999927e+03
2.100000000000000130e-02 1.363225000000000131e-01 2.139839999999999876e+01 5.964050000000000296e+01 1.751179999999999836e+03
2.200000000000000219e-02 1.363644999999999996e-01 2.198664999999999736e+01 6.134955000000000780e+01 1.751555000000000064e+03
2.299999999999999961e-02 1.364184999999999981e-01 2.255944999999999823e+01 6.322339999999999804e+01 1.752045000000000073e+03
2.400000000000000050e-02 1.364790000000000170e-01 2.302875000000000227e+01 6.498775000000000546e+01 1.752590000000000146e+03
2.500000000000000139e-02 1.365374999999999783e-01 2.332354999999999734e+01 6.640120000000000289e+01 1.753119999999999891e+03
2.600000000000000228e-02 1.365870000000000140e-01 2.340615000000000023e+01 6.731045000000000300e+01 1.753575000000000045e+03
2.700000000000000316e-02 1.366235000000000088e-01 2.327669999999999817e+01 6.767579999999999529e+01 1.753920000000000073e+03
2.800000000000000058e-02 1.366455000000000031e-01 2.296710000000000207e+01 6.756380000000000052e+01 1.754134999999999991e+03
2.900000000000000147e-02 1.366539999999999977e-01 2.252795000000000059e+01 6.711275000000000546e+01 1.754230000000000018e+03
3.000000000000000236e-02 1.366525000000000101e-01 2.201255000000000095e+01 6.648624999999999829e+01 1.754230000000000018e+03
3.099999999999999978e-02 1.366445000000000021e-01 2.146399999999999864e+01 6.582789999999999964e+01 1.754164999999999964e+03
3.200000000000000067e-02 1.366324999999999901e-01 2.090739999999999910e+01 6.523104999999999620e+01 1.754074999999999818e+03
3.300000000000000155e-02 1.366199999999999914e-01 2.034904999999999831e+01 6.472755000000000791e+01 1.753960000000000036e+03
3.400000000000000244e-02 1.366074999999999928e-01 1.978115000000000023e+01 6.429654999999999632e+01 1.753849999999999909e+03
3.500000000000000333e-02 1.365945000000000076e-01 1.918950000000000244e+01 6.388550000000000040e+01 1.753744999999999891e+03
3.600000000000000422e-02 1.365799999999999792e-01 1.856250000000000000e+01 6.343699999999999761e+01 1.753619999999999891e+03
3.700000000000000511e-02 1.365635000000000043e-01 1.789805000000000135e+01 6.291335000000000122e+01 1.753474999999999909e+03
3.799999999999999906e-02 1.365445000000000131e-01 1.720775000000000077e+01 6.231279999999999575e+01 1.753315000000000055e+03
3.899999999999999994e-02 1.365234999999999921e-01 1.651675000000000182e+01 6.167504999999999882e+01 1.753130000000000109e+03
4.000000000000000083e-02 1.365014999999999978e-01 1.586025000000000063e+01 6.107460000000000377e+01 1.752934999999999945e+03
4.100000000000000172e-02 1.364809999999999912e-01 1.527734999999999843e+01 6.060529999999999973e+01 1.752759999999999991e+03
4.200000000000000261e-02 1.364655000000000173e-01 1.480320000000000036e+01 6.035900000000000176e+01 1.752619999999999891e+03
4.300000000000000350e-02 1.364569999999999950e-01 1.446215000000000117e+01 6.040494999999999948e+01 1.752539999999999964e+03
4.400000000000000439e-02 1.364575000000000093e-01 1.426255000000000095e+01 6.077294999999999447e+01 1.752534999999999854e+03
4.499999999999999833e-02 1.364684999999999926e-01 1.419514999999999993e+01 6.144535000000000480e+01 1.752625000000000000e+03
4.599999999999999922e-02 1.364885000000000126e-01 1.423355000000000103e+01 6.235800000000000409e+01 1.752795000000000073e+03
4.700000000000000011e-02 1.365164999999999851e-01 1.433854999999999968e+01 6.340895000000000437e+01 1.753034999999999854e+03
4.800000000000000100e-02 1.365494999999999903e-01 1.446290000000000120e+01 6.447360000000000468e+01 1.753324999999999818e+03
4.900000000000000189e-02 1.365840000000000110e-01 1.455770000000000053e+01 6.542175000000000296e+01 1.753625000000000000e+03
5.000000000000000278e-02 1.366155000000000008e-01 1.457750000000000057e+01 6.613429999999999609e+01 1.753900000000000091e+03
5.100000000000000366e-02 1.366399999999999837e-01 1.448509999999999920e+01 6.651619999999999777e+01 1.754125000000000000e+03
5.200000000000000455e-02 1.366555000000000131e-01 1.425380000000000003e+01 6.650445000000000562e+01 1.754259999999999991e+03
5.300000000000000544e-02 1.366585000000000161e-01 1.386880000000000024e+01 6.607129999999999370e+01 1.754284999999999854e+03
5.399999999999999939e-02 1.366479999999999917e-01 1.332649999999999935e+01 6.522229999999998995e+01 1.754199999999999818e+03
5.500000000000000028e-02 1.366229999999999944e-01 1.263339999999999996e+01 6.399050000000000438e+01 1.753990000000000009e+03
5.600000000000000117e-02 1.365855000000000263e-01 1.180378499999999953e+01 6.242955000000000609e+01 1.753654999999999973e+03
5.700000000000000205e-02 1.365350000000000175e-01 1.085761499999999913e+01 6.060555000000000092e+01 1.753210000000000036e+03
5.800000000000000294e-02 1.364744999999999986e-01 9.818725000000000591e+00 5.859049999999999869e+01 1.752679999999999836e+03
5.900000000000000383e-02 1.364049999999999985e-01 8.713384999999998826e+00 5.645674999999999955e+01 1.752069999999999936e+03
6.000000000000000472e-02 1.363304999999999934e-01 7.568875000000000242e+00 5.427384999999999593e+01 1.751404999999999973e+03
6.099999999999999867e-02 1.362510000000000110e-01 6.413280000000000314e+00 5.210710000000000264e+01 1.750704999999999927e+03
6.199999999999999956e-02 1.361709999999999865e-01 5.274955000000000283e+00 5.001725000000000421e+01 1.749990000000000009e+03
6.300000000000000044e-02 1.360914999999999764e-01 4.182330000000000325e+00 4.806095000000000539e+01 1.749284999999999854e+03
6.400000000000000133e-02 1.360149999999999970e-01 3.163700500000000027e+00 4.629184999999999661e+01 1.748605000000000018e+03
6.500000000000000222e-02 1.359440000000000093e-01 2.246872499999999828e+00 4.476064999999999827e+01 1.747970000000000027e+03
6.600000000000000311e-02 1.358794999999999864e-01 1.458642000000000216e+00 4.351520000000000010e+01 1.747400000000000091e+03
6.700000000000000400e-02 1.358250000000000013e-01 8.240619999999998502e-01 4.259985000000000355e+01 1.746910000000000082e+03
6.800000000000000488e-02 1.357820000000000138e-01 3.656125000000000624e-01 4.205370000000000630e+01 1.746514999999999873e+03
6.900000000000000577e-02 1.357514999999999972e-01 1.022554999999999992e-01 4.190930000000000177e+01 1.746235000000000127e+03
7.000000000000000666e-02 1.357355000000000089e-01 4.856000000000001982e-02 4.219024999999999892e+01 1.746079999999999927e+03
7.100000000000000755e-02 1.357339999999999935e-01 2.139454600000000040e-01 4.291020000000000323e+01 1.746059999999999945e+03
7.200000000000000844e-02 1.357490000000000085e-01 6.021414999999999962e-01 4.407090000000000174e+01 1.746179999999999836e+03
7.300000000000000933e-02 1.357809999999999850e-01 1.210914999999999964e+00 4.566195000000000448e+01 1.746444999999999936e+03
7.399999999999999634e-02 1.358290000000000053e-01 2.032133500000000037e+00 4.766084999999999638e+01 1.746860000000000127e+03
7.499999999999999722e-02 1.358929999999999860e-01 3.052080500000000196e+00 5.003394999999999726e+01 1.747409999999999854e+03
7.599999999999999811e-02 1.359710000000000085e-01 4.252085000000000115e+00 5.273770000000000380e+01 1.748090000000000146e+03
7.699999999999999900e-02 1.360635000000000039e-01 5.609375000000000000e+00 5.572109999999999985e+01 1.748894999999999982e+03
7.799999999999999989e-02 1.361674999999999969e-01 7.098039999999999239e+00 5.892784999999999940e+01 1.749809999999999945e+03
7.900000000000000078e-02 1.362820000000000142e-01 8.690059999999999008e+00 6.229925000000000068e+01 1.750820000000000164e+03
8.000000000000000167e-02 1.364045000000000119e-01 1.035660500000000006e+01 6.577639999999999532e+01 1.751894999999999982e+03
8.100000000000000255e-02 1.365330000000000155e-01 1.206893499999999975e+01 6.930294999999999561e+01 1.753034999999999854e+03
8.200000000000000344e-02 1.366654999999999953e-01 1.379937500000000128e+01 7.282720000000000482e+01 1.754214999999999918e+03
8.300000000000000433e-02 1.368000000000000049e-01 1.552239999999999931e+01 7.630379999999999541e+01 1.755414999999999964e+03
8.400000000000000522e-02 1.369345000000000145e-01 1.721519999999999939e+01 7.969495000000000573e+01 1.756619999999999891e+03
8.500000000000000611e-02 1.370680000000000232e-01 1.885839999999999961e+01 8.297175000000000011e+01 1.757825000000000045e+03
8.600000000000000699e-02 1.371990000000000154e-01 2.043625000000000114e+01 8.611394999999998845e+01 1.759000000000000000e+03
8.700000000000000788e-02 1.373270000000000046e-01 2.193694999999999951e+01 8.911039999999999850e+01 1.760154999999999973e+03
8.800000000000000877e-02 1.374500000000000166e-01 2.335260000000000247e+01 9.195810000000000173e+01 1.761269999999999982e+03
8.899999999999999578e-02 1.375689999999999968e-01 2.467914999999999992e+01 9.466140000000000043e+01 1.762349999999999909e+03
8.999999999999999667e-02 1.376834999999999865e-01 2.591564999999999941e+01 9.723140000000000782e+01 1.763384999999999991e+03
9.099999999999999756e-02 1.377935000000000132e-01 2.706425000000000125e+01 9.968280000000000030e+01 1.764389999999999873e+03
9.199999999999999845e-02 1.378989999999999938e-01 2.812914999999999921e+01 1.020341999999999985e+02 1.765349999999999909e+03
9.299999999999999933e-02 1.380009999999999848e-01 2.911625000000000085e+01 1.043048499999999876e+02 1.766284999999999854e+03
9.400000000000000022e-02 1.380994999999999862e-01 3.003249999999999886e+01 1.065139999999999958e+02 1.767194999999999936e+03
9.500000000000000111e-02 1.381959999999999855e-01 3.088495000000000346e+01 1.086794999999999902e+02 1.768074999999999818e+03
9.600000000000000200e-02 1.382899999999999963e-01 3.168069999999999808e+01 1.108160000000000025e+02 1.768944999999999936e+03
9.700000000000000289e-02 1.383829999999999782e-01 3.242580000000000240e+01 1.129344999999999999e+02 1.769795000000000073e+03
9.800000000000000377e-02 1.384745000000000004e-01 3.312525000000000119e+01 1.150430000000000064e+02 1.770634999999999991e+03
9.900000000000000466e-02 1.385655000000000081e-01 3.378270000000000550e+01 1.171419999999999959e+02 1.771474999999999909e+03
1.000000000000000056e-01 1.386554999999999871e-01 3.440005000000000024e+01 1.192299999999999898e+02 1.772299999999999955e+03
1.010000000000000064e-01 1.387444999999999928e-01 3.497755000000000081e+01 1.213004999999999995e+02 1.773125000000000000e+03
1.020000000000000073e-01 1.388330000000000120e-01 3.551404999999999745e+01 1.233425000000000011e+02 1.773940000000000055e+03
1.030000000000000082e-01 1.389205000000000023e-01 3.600674999999999670e+01 1.253425000000000011e+02 1.774740000000000009e+03
1.040000000000000091e-01 1.390055000000000041e-01 3.645165000000000077e+01 1.272845000000000084e+02 1.775530000000000200e+03
1.050000000000000100e-01 1.390889999999999904e-01 3.684375000000000000e+01 1.291505000000000223e+02 1.776299999999999955e+03
1.059999999999999970e-01 1.391695000000000015e-01 3.717754999999999654e+01 1.309219999999999970e+02 1.777039999999999964e+03
1.069999999999999979e-01 1.392459999999999809e-01 3.744709999999999894e+01 1.325815000000000055e+02 1.777755000000000109e+03
1.079999999999999988e-01 1.393189999999999984e-01 3.764639999999999986e+01 1.341100000000000136e+02 1.778429999999999836e+03
1.089999999999999997e-01 1.393874999999999975e-01 3.776980000000000359e+01 1.354929999999999950e+02 1.779059999999999945e+03
1.100000000000000006e-01 1.394500000000000184e-01 3.781225000000000591e+01 1.367150000000000034e+02 1.779639999999999873e+03
1.110000000000000014e-01 1.395069999999999921e-01 3.776954999999999529e+01 1.377655000000000030e+02 1.780170000000000073e+03
1.120000000000000023e-01 1.395575000000000010e-01 3.763875000000000171e+01 1.386370000000000005e+02 1.780644999999999982e+03
1.130000000000000032e-01 1.396009999999999751e-01 3.741785000000000139e+01 1.393229999999999791e+02 1.781055000000000064e+03
1.140000000000000041e-01 1.396379999999999844e-01 3.710654999999999859e+01 1.398220000000000027e+02 1.781394999999999982e+03
1.150000000000000050e-01 1.396670000000000134e-01 3.670589999999999975e+01 1.401355000000000075e+02 1.781674999999999955e+03
1.160000000000000059e-01 1.396894999999999942e-01 3.621850000000000591e+01 1.402690000000000055e+02 1.781889999999999873e+03
1.170000000000000068e-01 1.397045000000000092e-01 3.564865000000000350e+01 1.402309999999999945e+02 1.782034999999999854e+03
1.180000000000000077e-01 1.397125000000000172e-01 3.500180000000000291e+01 1.400319999999999823e+02 1.782119999999999891e+03
1.190000000000000085e-01 1.397140000000000049e-01 3.428490000000000038e+01 1.396864999999999952e+02 1.782140000000000100e+03
1.200000000000000094e-01 1.397094999999999865e-01 3.350610000000000355e+01 1.392100000000000080e+02 1.782110000000000127e+03
1.209999999999999964e-01 1.396995000000000042e-01 3.267425000000000068e+01 1.386195000000000164e+02 1.782025000000000091e+03
1.219999999999999973e-01 1.396844999999999892e-01 3.179909999999999926e+01 1.379354999999999905e+02 1.781889999999999873e+03
1.229999999999999982e-01 1.396649999999999836e-01 3.089059999999999917e+01 1.371754999999999995e+02 1.781715000000000146e+03
1.239999999999999991e-01 1.396419999999999884e-01 2.995889999999999986e+01 1.363594999999999970e+02 1.781505000000000109e+03
1.250000000000000000e-01 1.396155000000000035e-01 2.901384999999999792e+01 1.355049999999999955e+02 1.781264999999999873e+03
1.260000000000000009e-01 1.395865000000000022e-01 2.806494999999999962e+01 1.346295000000000073e+02 1.781009999999999991e+03
1.270000000000000018e-01 1.395565000000000000e-01 2.712089999999999890e+01 1.337479999999999905e+02 1.780730000000000018e+03
1.280000000000000027e-01 1.395250000000000101e-01 2.618945000000000078e+01 1.328725000000000023e+02 1.780445000000000164e+03
1.290000000000000036e-01 1.394930000000000059e-01 2.527730000000000032e+01 1.320144999999999982e+02 1.780154999999999973e+03
1.300000000000000044e-01 1.394610000000000016e-01 2.438974999999999937e+01 1.311820000000000164e+02 1.779855000000000018e+03
1.310000000000000053e-01 1.394289999999999974e-01 2.353090000000000259e+01 1.303785000000000025e+02 1.779565000000000055e+03
1.320000000000000062e-01 1.393975000000000075e-01 2.270335000000000036e+01 1.296080000000000041e+02 1.779275000000000091e+03
1.330000000000000071e-01 1.393670000000000186e-01 2.190850000000000009e+01 1.288689999999999998e+02 1.778994999999999891e+03
1.340000000000000080e-01 1.393375000000000030e-01 2.114634999999999820e+01 1.281589999999999918e+02 1.778715000000000146e+03
1.350000000000000089e-01 1.393085000000000018e-01 2.041559999999999775e+01 1.274729999999999990e+02 1.778444999999999936e+03
1.360000000000000098e-01 1.392800000000000149e-01 1.971410000000000196e+01 1.268050000000000068e+02 1.778179999999999836e+03
1.370000000000000107e-01 1.392519999999999869e-01 1.903875000000000028e+01 1.261465000000000032e+02 1.777924999999999955e+03
1.380000000000000115e-01 1.392240000000000144e-01 1.838564999999999827e+01 1.254884999999999877e+02 1.777664999999999964e+03
1.390000000000000124e-01 1.391965000000000008e-01 1.775049999999999883e+01 1.248215000000000003e+02 1.777405000000000200e+03
1.400000000000000133e-01 1.391689999999999872e-01 1.712859999999999872e+01 1.241359999999999957e+02 1.777150000000000091e+03
1.410000000000000142e-01 1.391399999999999859e-01 1.651524999999999821e+01 1.234230000000000018e+02 1.776880000000000109e+03
1.420000000000000151e-01 1.391104999999999980e-01 1.590595000000000070e+01 1.226730000000000018e+02 1.776605000000000018e+03
1.430000000000000160e-01 1.390794999999999948e-01 1.529619999999999891e+01 1.218795000000000073e+02 1.776325000000000045e+03
1.440000000000000169e-01 1.390474999999999905e-01 1.468220000000000169e+01 1.210354999999999990e+02 1.776025000000000091e+03
1.450000000000000178e-01 1.390135000000000121e-01 1.406080000000000041e+01 1.201370000000000005e+02 1.775715000000000146e+03
1.459999999999999909e-01 1.389775000000000038e-01 1.342940000000000111e+01 1.191804999999999950e+02 1.775380000000000109e+03
1.469999999999999918e-01 1.389394999999999936e-01 1.278650000000000020e+01 1.181654999999999944e+02 1.775029999999999973e+03
1.479999999999999927e-01 1.388989999999999947e-01 1.213133000000000017e+01 1.170929999999999893e+02 1.774660000000000082e+03
1.489999999999999936e-01 1.388564999999999938e-01 1.146415500000000165e+01 1.159664999999999964e+02 1.774275000000000091e+03
1.499999999999999944e-01 1.388125000000000053e-01 1.078631999999999991e+01 1.147900000000000063e+02 1.773865000000000009e+03
1.509999999999999953e-01 1.387660000000000005e-01 1.009990999999999950e+01 1.135715000000000003e+02 1.773440000000000055e+03
1.519999999999999962e-01 1.387174999999999936e-01 9.408020000000000493e+00 1.123185000000000002e+02 1.773000000000000000e+03
1.529999999999999971e-01 1.386680000000000135e-01 8.714504999999999058e+00 1.110414999999999992e+02 1.772545000000000073e+03
1.539999999999999980e-01 1.386175000000000046e-01 8.023904999999999177e+00 1.097519999999999953e+02 1.772090000000000146e+03
1.549999999999999989e-01 1.385660000000000225e-01 7.341219999999999857e+00 1.084610000000000127e+02 1.771615000000000009e+03
1.559999999999999998e-01 1.385139999999999982e-01 6.671810000000000684e+00 1.071814999999999998e+02 1.771144999999999982e+03
1.570000000000000007e-01 1.384620000000000017e-01 6.021205000000000140e+00 1.059254999999999995e+02 1.770670000000000073e+03
1.580000000000000016e-01 1.384110000000000062e-01 5.394909999999999428e+00 1.047044999999999959e+02 1.770204999999999927e+03
1.590000000000000024e-01 1.383604999999999974e-01 4.798235000000000028e+00 1.035304999999999893e+02 1.769740000000000009e+03
