# t [s], A [cm^2], U [cm/s], P [cPa], c [cm/s]
1.000000000000000021e-03 1.588600000000000012e-01 3.723485000000000267e-01 1.012104499999999945e+02 1.797200000000000045e+03
2.000000000000000042e-03 1.588279999999999970e-01 2.029727999999999977e+00 9.802955000000000041e+01 1.796940000000000055e+03
3.000000000000000062e-03 1.587145000000000084e-01 4.025087500000000595e+00 9.392685000000000173e+01 1.796039999999999964e+03
4.000000000000000083e-03 1.585460000000000202e-01 6.216596000000000011e+00 8.945410000000001105e+01 1.794734999999999900e+03
5.000000000000000104e-03 1.583525000000000071e-01 8.546520000000001005e+00 8.534219999999999118e+01 1.793250000000000000e+03
6.000000000000000125e-03 1.581564999999999777e-01 1.089444000000000123e+01 8.192070000000001073e+01 1.791755000000000109e+03
7.000000000000000146e-03 1.579685000000000117e-01 1.309536499999999926e+01 7.910280000000000200e+01 1.790335000000000036e+03
8.000000000000000167e-03 1.577910000000000146e-01 1.503564499999999882e+01 7.666225000000000023e+01 1.789025000000000091e+03
9.000000000000001055e-03 1.576289999999999913e-01 1.670204999999999984e+01 7.450915000000000532e+01 1.787835000000000036e+03
1.000000000000000194e-02 1.574849999999999861e-01 1.812549999999999883e+01 7.267920000000000869e+01 1.786795000000000073e+03
1.099999999999999936e-02 1.573610000000000009e-01 1.932584999999999908e+01 7.118630000000000280e+01 1.785904999999999973e+03
1.200000000000000025e-02 1.572560000000000069e-01 2.031275000000000119e+01 6.999195000000000277e+01 1.785164999999999964e+03
1.300000000000000114e-02 1.571695000000000175e-01 2.109740000000000038e+01 6.904384999999999195e+01 1.784559999999999945e+03
1.400000000000000203e-02 1.570985000000000020e-01 2.169034999999999869e+01 6.828600000000000136e+01 1.784065000000000055e+03
1.499999999999999944e-02 1.570404999999999995e-01 2.210529999999999973e+01 6.766129999999999711e+01 1.783670000000000073e+03
1.600000000000000033e-02 1.569925000000000070e-01 2.237675000000000125e+01 6.715170000000000528e+01 1.783355000000000018e+03
1.700000000000000122e-02 1.569559999999999844e-01 2.257225000000000037e+01 6.682644999999999413e+01 1.783119999999999891e+03
1.800000000000000211e-02 1.569335000000000035e-01 2.278195000000000192e+01 6.684069999999999823e+01 1.782980000000000018e+03
1.900000000000000300e-02 1.569305000000000005e-01 2.308680000000000021e+01 6.736889999999999645e+01 1.782980000000000018e+03
2.000000000000000042e-02 1.569510000000000072e-01 2.352599999999999980e+01 6.850960000000000605e+01 1.783134999999999991e+03
2.100000000000000130e-02 1.569949999999999957e-01 2.408060000000000045e+01 7.021880000000000166e+01 1.783460000000000036e+03
2.200000000000000219e-02 1.570595000000000185e-01 2.468029999999999902e+01 7.230260000000001241e+01 1.783929999999999836e+03
2.299999999999999961e-02 1.571369999999999989e-01 2.522719999999999985e+01 7.446784999999999854e+01 1.784494999999999891e+03
2.400000000000000050e-02 1.572175000000000100e-01 2.562584999999999980e+01 7.640399999999999636e+01 1.785079999999999927e+03
2.500000000000000139e-02 1.572915000000000008e-01 2.580924999999999869e+01 7.786480000000000246e+01 1.785625000000000000e+03
2.600000000000000228e-02 1.573505000000000043e-01 2.575280000000000058e+01 7.872370000000000800e+01 1.786074999999999818e+03
2.700000000000000316e-02 1.573920000000000041e-01 2.547494999999999976e+01 7.898949999999999250e+01 1.786390000000000100e+03
2.800000000000000058e-02 1.574149999999999994e-01 2.502555000000000263e+01 7.878305000000000291e+01 1.786574999999999818e+03
2.900000000000000147e-02 1.574230000000000074e-01 2.446734999999999971e+01 7.828669999999999618e+01 1.786650000000000091e+03
3.000000000000000236e-02 1.574205000000000187e-01 2.385774999999999935e+01 7.768580000000000041e+01 1.786644999999999982e+03
3.099999999999999978e-02 1.574125000000000107e-01 2.323559999999999803e+01 7.712004999999999200e+01 1.786595000000000027e+03
3.200000000000000067e-02 1.574025000000000007e-01 2.261599999999999966e+01 7.665755000000000052e+01 1.786529999999999973e+03
3.300000000000000155e-02 1.573924999999999907e-01 2.199345000000000283e+01 7.629429999999999268e+01 1.786460000000000036e+03
3.400000000000000244e-02 1.573825000000000085e-01 2.135040000000000049e+01 7.597495000000000687e+01 1.786389999999999873e+03
3.500000000000000333e-02 1.573709999999999831e-01 2.066825000000000045e+01 7.562449999999999761e+01 1.786315000000000055e+03
3.600000000000000422e-02 1.573569999999999969e-01 1.993759999999999977e+01 7.518184999999999718e+01 1.786220000000000027e+03
3.700000000000000511e-02 1.573390000000000066e-01 1.916505000000000081e+01 7.462524999999999409e+01 1.786095000000000027e+03
3.799999999999999906e-02 1.573169999999999846e-01 1.837480000000000047e+01 7.398505000000000109e+01 1.785940000000000055e+03
3.899999999999999994e-02 1.572930000000000161e-01 1.760654999999999859e+01 7.334035000000000082e+01 1.785769999999999982e+03
4.000000000000000083e-02 1.572700000000000209e-01 1.690729999999999933e+01 7.280299999999999727e+01 1.785609999999999900e+03
4.100000000000000172e-02 1.572514999999999885e-01 1.632254999999999967e+01 7.249150000000000205e+01 1.785470000000000027e+03
4.200000000000000261e-02 1.572415000000000063e-01 1.588674999999999926e+01 7.250334999999999752e+01 1.785394999999999982e+03
4.300000000000000350e-02 1.572425000000000073e-01 1.561605000000000132e+01 7.289170000000000016e+01 1.785400000000000091e+03
4.400000000000000439e-02 1.572580000000000089e-01 1.550455000000000005e+01 7.365160000000000196e+01 1.785500000000000000e+03
4.499999999999999833e-02 1.572854999999999948e-01 1.552505000000000024e+01 7.471809999999999263e+01 1.785690000000000055e+03
4.599999999999999922e-02 1.573240000000000194e-01 1.563305000000000078e+01 7.597599999999999909e+01 1.785960000000000036e+03
4.700000000000000011e-02 1.573700000000000099e-01 1.577335000000000065e+01 7.727774999999999750e+01 1.786280000000000200e+03
4.800000000000000100e-02 1.574174999999999880e-01 1.588749999999999929e+01 7.846539999999998827e+01 1.786614999999999782e+03
4.900000000000000189e-02 1.574619999999999909e-01 1.592085000000000150e+01 7.939209999999999923e+01 1.786934999999999945e+03
5.000000000000000278e-02 1.574975000000000125e-01 1.582839999999999847e+01 7.993930000000000291e+01 1.787190000000000055e+03
5.100000000000000366e-02 1.575205000000000077e-01 1.557804999999999929e+01 8.002830000000000155e+01 1.787360000000000127e+03
5.200000000000000455e-02 1.575270000000000004e-01 1.515199999999999925e+01 7.962369999999999948e+01 1.787410000000000082e+03
5.300000000000000544e-02 1.575155000000000027e-01 1.454635000000000034e+01 7.873170000000000357e+01 1.787335000000000036e+03
5.399999999999999939e-02 1.574860000000000149e-01 1.376914999999999978e+01 7.739279999999999404e+01 1.787125000000000000e+03
5.500000000000000028e-02 1.574384999999999812e-01 1.283765000000000001e+01 7.567239999999999611e+01 1.786789999999999964e+03
5.600000000000000117e-02 1.573760000000000159e-01 1.177557000000000009e+01 7.365010000000000900e+01 1.786345000000000027e+03
5.700000000000000205e-02 1.572995000000000088e-01 1.061074999999999946e+01 7.141159999999999286e+01 1.785804999999999836e+03
5.800000000000000294e-02 1.572125000000000050e-01 9.373139999999999361e+00 6.904144999999999754e+01 1.785184999999999945e+03
5.900000000000000383e-02 1.571184999999999943e-01 8.093785000000000451e+00 6.661934999999999718e+01 1.784509999999999991e+03
6.000000000000000472e-02 1.570205000000000073e-01 6.803910000000000124e+00 6.421860000000000923e+01 1.783800000000000182e+03
6.099999999999999867e-02 1.569209999999999772e-01 5.534955000000000069e+00 6.190635000000000332e+01 1.783090000000000146e+03
6.199999999999999956e-02 1.568224999999999758e-01 4.318410000000000082e+00 5.974479999999999791e+01 1.782380000000000109e+03
6.300000000000000044e-02 1.567284999999999928e-01 3.185551000000000244e+00 5.779224999999999568e+01 1.781704999999999927e+03
6.400000000000000133e-02 1.566420000000000035e-01 2.167173500000000086e+00 5.610434999999999661e+01 1.781074999999999818e+03
6.500000000000000222e-02 1.565644999999999953e-01 1.293009500000000145e+00 5.473380000000000223e+01 1.780514999999999873e+03
6.600000000000000311e-02 1.564985000000000126e-01 5.908149999999999791e-01 5.372955000000000325e+01 1.780034999999999854e+03
6.700000000000000400e-02 1.564475000000000171e-01 8.532499999999998419e-02 5.313495000000000346e+01 1.779659999999999854e+03
6.800000000000000488e-02 1.564125000000000099e-01 -2.028490000000000015e-01 5.298545000000000016e+01 1.779394999999999982e+03
6.900000000000000577e-02 1.563955000000000206e-01 -2.583249349999999778e-01 5.330649999999999977e+01 1.779259999999999991e+03
7.000000000000000666e-02 1.563975000000000226e-01 -7.183449999999999558e-02 5.411095000000000255e+01 1.779260000000000218e+03
7.100000000000000755e-02 1.564194999999999891e-01 3.592044999999999266e-01 5.539809999999999945e+01 1.779404999999999973e+03
7.200000000000000844e-02 1.564619999999999900e-01 1.030467499999999870e+00 5.715285000000000082e+01 1.779690000000000055e+03
7.300000000000000933e-02 1.565235000000000098e-01 1.930870500000000156e+00 5.934604999999999819e+01 1.780119999999999891e+03
7.399999999999999634e-02 1.566044999999999798e-01 3.043137000000000203e+00 6.193599999999999994e+01 1.780684999999999945e+03
7.499999999999999722e-02 1.567029999999999812e-01 4.344624999999999737e+00 6.487049999999999272e+01 1.781380000000000109e+03
7.599999999999999811e-02 1.568169999999999842e-01 5.808434999999999349e+00 6.808974999999999511e+01 1.782190000000000055e+03
7.699999999999999900e-02 1.569444999999999868e-01 7.404590000000000671e+00 7.152909999999999968e+01 1.783095000000000027e+03
7.799999999999999989e-02 1.570834999999999870e-01 9.101399999999999935e+00 7.512250000000000227e+01 1.784090000000000146e+03
7.900000000000000078e-02 1.572310000000000096e-01 1.086669999999999980e+01 7.880519999999999925e+01 1.785139999999999873e+03
8.000000000000000167e-02 1.573839999999999961e-01 1.266910999999999987e+01 8.251685000000000514e+01 1.786240000000000009e+03
8.100000000000000255e-02 1.575409999999999866e-01 1.447900000000000098e+01 8.620345000000000368e+01 1.787375000000000000e+03
8.200000000000000344e-02 1.576990000000000058e-01 1.626964999999999861e+01 8.981940000000000168e+01 1.788514999999999873e+03
8.300000000000000433e-02 1.578565000000000107e-01 1.801784999999999926e+01 9.332835000000000036e+01 1.789650000000000091e+03
8.400000000000000522e-02 1.580110000000000126e-01 1.970459999999999923e+01 9.670515000000000327e+01 1.790779999999999973e+03
8.500000000000000611e-02 1.581619999999999970e-01 2.131519999999999726e+01 9.993365000000000009e+01 1.791875000000000000e+03
8.600000000000000699e-02 1.583085000000000186e-01 2.283940000000000126e+01 1.030087000000000046e+02 1.792950000000000045e+03
8.700000000000000788e-02 1.584495000000000209e-01 2.427159999999999940e+01 1.059341499999999883e+02 1.793985000000000127e+03
8.800000000000000877e-02 1.585850000000000037e-01 2.560994999999999777e+01 1.087210000000000036e+02 1.794980000000000018e+03
8.899999999999999578e-02 1.587159999999999960e-01 2.685620000000000118e+01 1.113859999999999957e+02 1.795945000000000164e+03
8.999999999999999667e-02 1.588424999999999976e-01 2.801469999999999771e+01 1.139509999999999934e+02 1.796880000000000109e+03
9.099999999999999756e-02 1.589645000000000086e-01 2.909194999999999709e+01 1.164385000000000048e+02 1.797779999999999973e+03
9.199999999999999845e-02 1.590834999999999888e-01 3.009570000000000078e+01 1.188714999999999975e+02 1.798664999999999964e+03
9.299999999999999933e-02 1.592000000000000082e-01 3.103399999999999892e+01 1.212704999999999984e+02 1.799525000000000091e+03
9.400000000000000022e-02 1.593144999999999978e-01 3.191465000000000174e+01 1.236544999999999987e+02 1.800375000000000000e+03
9.500000000000000111e-02 1.594280000000000141e-01 3.274450000000000216e+01 1.260354999999999848e+02 1.801219999999999800e+03
9.600000000000000200e-02 1.595415000000000028e-01 3.352915000000000134e+01 1.284219999999999970e+02 1.802054999999999836e+03
9.700000000000000289e-02 1.596540000000000181e-01 3.427219999999999800e+01 1.308154999999999859e+02 1.802894999999999982e+03
9.800000000000000377e-02 1.597669999999999924e-01 3.497544999999999504e+01 1.332125000000000057e+02 1.803730000000000018e+03
9.900000000000000466e-02 1.598795000000000077e-01 3.563864999999999839e+01 1.356039999999999850e+02 1.804569999999999936e+03
1.000000000000000056e-01 1.599920000000000231e-01 3.625969999999999516e+01 1.379759999999999991e+02 1.805400000000000091e+03
1.010000000000000064e-01 1.601029999999999953e-01 3.683459999999999468e+01 1.403114999999999952e+02 1.806230000000000018e+03
1.020000000000000073e-01 1.602125000000000077e-01 3.735800000000000409e+01 1.425894999999999868e+02 1.807045000000000073e+03
1.030000000000000082e-01 1.603195000000000037e-01 3.782349999999999568e+01 1.447874999999999943e+02 1.807839999999999918e+03
1.040000000000000091e-01 1.604234999999999967e-01 3.822390000000000043e+01 1.468829999999999814e+02 1.808615000000000009e+03
1.050000000000000100e-01 1.605234999999999856e-01 3.855169999999999675e+01 1.488534999999999968e+02 1.809360000000000127e+03
1.059999999999999970e-01 1.606180000000000108e-01 3.879964999999999975e+01 1.506765000000000043e+02 1.810069999999999936e+03
1.069999999999999979e-01 1.607069999999999887e-01 3.896059999999999945e+01 1.523329999999999984e+02 1.810730000000000018e+03
1.079999999999999988e-01 1.607885000000000009e-01 3.902855000000000274e+01 1.538070000000000164e+02 1.811340000000000146e+03
1.089999999999999997e-01 1.608629999999999782e-01 3.899849999999999994e+01 1.550840000000000032e+02 1.811900000000000091e+03
1.100000000000000006e-01 1.609289999999999887e-01 3.886690000000000111e+01 1.561550000000000011e+02 1.812394999999999982e+03
1.110000000000000014e-01 1.609865000000000046e-01 3.863165000000000049e+01 1.570135000000000218e+02 1.812829999999999927e+03
1.120000000000000023e-01 1.610344999999999971e-01 3.829250000000000398e+01 1.576585000000000036e+02 1.813199999999999818e+03
1.130000000000000032e-01 1.610739999999999950e-01 3.785110000000000241e+01 1.580919999999999845e+02 1.813500000000000000e+03
1.140000000000000041e-01 1.611035000000000106e-01 3.731069999999999709e+01 1.583204999999999814e+02 1.813730000000000018e+03
1.150000000000000050e-01 1.611249999999999905e-01 3.667669999999999675e+01 1.583539999999999850e+02 1.813894999999999982e+03
1.160000000000000059e-01 1.611369999999999747e-01 3.595595000000000141e+01 1.582069999999999936e+02 1.813994999999999891e+03
1.170000000000000068e-01 1.611410000000000065e-01 3.515704999999999814e+01 1.578954999999999984e+02 1.814030000000000200e+03
1.180000000000000077e-01 1.611374999999999891e-01 3.428974999999999795e+01 1.574395000000000095e+02 1.814014999999999873e+03
1.190000000000000085e-01 1.611274999999999791e-01 3.336495000000000033e+01 1.568589999999999804e+02 1.813944999999999936e+03
1.200000000000000094e-01 1.611110000000000042e-01 3.239424999999999955e+01 1.561765000000000043e+02 1.813825000000000045e+03
1.209999999999999964e-01 1.610894999999999966e-01 3.138949999999999818e+01 1.554155000000000086e+02 1.813670000000000073e+03
1.219999999999999973e-01 1.610630000000000117e-01 3.036264999999999858e+01 1.545964999999999918e+02 1.813485000000000127e+03
1.229999999999999982e-01 1.610340000000000105e-01 2.932540000000000191e+01 1.537409999999999854e+02 1.813269999999999982e+03
1.239999999999999991e-01 1.610015000000000196e-01 2.828859999999999886e+01 1.528684999999999832e+02 1.813039999999999964e+03
1.250000000000000000e-01 1.609680000000000000e-01 2.726235000000000142e+01 1.519964999999999975e+02 1.812789999999999964e+03
1.260000000000000009e-01 1.609335000000000071e-01 2.625534999999999997e+01 1.511374999999999886e+02 1.812529999999999973e+03
1.270000000000000018e-01 1.608984999999999999e-01 2.527505000000000024e+01 1.503040000000000020e+02 1.812275000000000091e+03
1.280000000000000027e-01 1.608634999999999926e-01 2.432715000000000316e+01 1.495045000000000073e+02 1.812014999999999873e+03
1.290000000000000036e-01 1.608300000000000007e-01 2.341595000000000226e+01 1.487420000000000186e+02 1.811764999999999873e+03
1.300000000000000044e-01 1.607965000000000089e-01 2.254379999999999740e+01 1.480185000000000173e+02 1.811515000000000100e+03
1.310000000000000053e-01 1.607645000000000046e-01 2.171170000000000044e+01 1.473325000000000102e+02 1.811275000000000091e+03
1.320000000000000062e-01 1.607335000000000014e-01 2.091894999999999882e+01 1.466784999999999854e+02 1.811039999999999964e+03
1.330000000000000071e-01 1.607034999999999991e-01 2.016344999999999743e+01 1.460504999999999995e+02 1.810815000000000055e+03
1.340000000000000080e-01 1.606744999999999979e-01 1.944205000000000183e+01 1.454395000000000095e+02 1.810595000000000027e+03
1.350000000000000089e-01 1.606460000000000110e-01 1.875039999999999907e+01 1.448344999999999914e+02 1.810384999999999991e+03
1.360000000000000098e-01 1.606174999999999964e-01 1.808364999999999867e+01 1.442255000000000109e+02 1.810164999999999964e+03
1.370000000000000107e-01 1.605889999999999818e-01 1.743625000000000114e+01 1.435989999999999895e+02 1.809950000000000045e+03
1.380000000000000115e-01 1.605594999999999939e-01 1.680259999999999820e+01 1.429449999999999932e+02 1.809735000000000127e+03
1.390000000000000124e-01 1.605290000000000050e-01 1.617705000000000126e+01 1.422524999999999977e+02 1.809505000000000109e+03
1.400000000000000133e-01 1.604970000000000008e-01 1.555424999999999969e+01 1.415109999999999957e+02 1.809264999999999873e+03
1.410000000000000142e-01 1.604634999999999811e-01 1.492940000000000111e+01 1.407135000000000105e+02 1.809014999999999873e+03
1.420000000000000151e-01 1.604275000000000007e-01 1.429844999999999899e+01 1.398545000000000016e+02 1.808744999999999891e+03
1.430000000000000160e-01 1.603890000000000038e-01 1.365830000000000055e+01 1.389284999999999854e+02 1.808454999999999927e+03
1.440000000000000169e-01 1.603479999999999905e-01 1.300685000000000002e+01 1.379365000000000236e+02 1.808150000000000091e+03
1.450000000000000178e-01 1.603040000000000020e-01 1.234325000000000117e+01 1.368774999999999977e+02 1.807825000000000045e+03
1.459999999999999909e-01 1.602574999999999972e-01 1.166779500000000169e+01 1.357565000000000168e+02 1.807480000000000018e+03
1.469999999999999918e-01 1.602080000000000171e-01 1.098204499999999939e+01 1.345805000000000007e+02 1.807115000000000009e+03
1.479999999999999927e-01 1.601560000000000206e-01 1.028882000000000119e+01 1.333569999999999993e+02 1.806735000000000127e+03
1.489999999999999936e-01 1.601020000000000221e-01 9.591884999999999550e+00 1.320985000000000014e+02 1.806335000000000036e+03
1.499999999999999944e-01 1.600469999999999948e-01 8.896069999999999922e+00 1.308170000000000073e+02 1.805925000000000182e+03
1.509999999999999953e-01 1.599904999999999800e-01 8.207079999999999487e+00 1.295264999999999986e+02 1.805509999999999991e+03
1.519999999999999962e-01 1.599329999999999918e-01 7.531039999999999957e+00 1.282419999999999902e+02 1.805085000000000036e+03
1.529999999999999971e-01 1.598755000000000037e-01 6.874555000000000859e+00 1.269789999999999850e+02 1.804660000000000082e+03
1.539999999999999980e-01 1.598185000000000022e-01 6.244284999999999641e+00 1.257520000000000095e+02 1.804240000000000009e+03
1.549999999999999989e-01 1.597629999999999884e-01 5.646765000000000256e+00 1.245765000000000100e+02 1.803829999999999927e+03
1.559999999999999998e-01 1.597089999999999899e-01 5.088165000000000049e+00 1.234650000000000034e+02 1.803425000000000182e+03
1.570000000000000007e-01 1.596575000000000077e-01 4.574044999999999916e+00 1.224290000000000020e+02 1.803050000000000182e+03
1.580000000000000016e-01 1.596084999999999865e-01 4.109174999999999578e+00 1.214774999999999920e+02 1.802679999999999836e+03
1.590000000000000024e-01 1.595630000000000104e-01 3.697390000000000398e+00 1.206189999999999998e+02 1.802345000000000027e+03
