# t [s], A [cm^2], U [cm/s], P [cPa], c [cm/s]
1.000000000000000021e-03 7.212524999999999631e-01 4.656449999999999478e-03 1.000271999999999935e+02 1.605590000000000146e+03
2.000000000000000042e-03 7.212415000000000909e-01 -2.342450000000000261e-03 1.000045000000000073e+02 1.605585000000000036e+03
3.000000000000000062e-03 7.212844999999999951e-01 6.083435000000000231e-02 1.000718499999999977e+02 1.605605000000000018e+03
4.000000000000000083e-03 7.213430000000000675e-01 1.519283499999999898e-01 1.001896999999999878e+02 1.605639999999999873e+03
5.000000000000000104e-03 7.213414999999999688e-01 1.631659999999999777e-01 1.001989499999999964e+02 1.605644999999999982e+03
6.000000000000000125e-03 7.212879999999999292e-01 9.578500000000000902e-02 1.000643499999999904e+02 1.605610000000000127e+03
7.000000000000000146e-03 7.212365000000000581e-01 2.738450000000003381e-02 9.987180000000000746e+01 1.605565000000000055e+03
8.000000000000000167e-03 7.211790000000000145e-01 -5.709249999999999048e-02 9.962049999999999272e+01 1.605505000000000109e+03
9.000000000000001055e-03 7.210775000000000379e-01 -2.198149999999999271e-01 9.923359999999999559e+01 1.605414999999999964e+03
1.000000000000000194e-02 7.209200000000000053e-01 -4.824800000000001310e-01 9.866049999999999898e+01 1.605275000000000091e+03
1.099999999999999936e-02 7.206939999999999458e-01 -8.591449999999999365e-01 9.785389999999999588e+01 1.605085000000000036e+03
1.200000000000000025e-02 7.203825000000000367e-01 -1.366084999999999994e+00 9.675864999999998872e+01 1.604820000000000164e+03
1.300000000000000114e-02 7.199925000000000352e-01 -1.979560000000000208e+00 9.536594999999999800e+01 1.604474999999999909e+03
1.400000000000000203e-02 7.195639999999999814e-01 -2.615709999999999980e+00 9.375460000000001060e+01 1.604059999999999945e+03
1.499999999999999944e-02 7.191525000000000833e-01 -3.162155000000000271e+00 9.206425000000000125e+01 1.603625000000000000e+03
1.600000000000000033e-02 7.187995000000000356e-01 -3.527518999999999849e+00 9.043514999999999304e+01 1.603174999999999955e+03
1.700000000000000122e-02 7.185144999999999449e-01 -3.671346449999999706e+00 8.895629999999999882e+01 1.602750000000000000e+03
1.800000000000000211e-02 7.182830000000000048e-01 -3.605342999999999964e+00 8.764719999999999800e+01 1.602355000000000018e+03
1.900000000000000300e-02 7.180744999999999489e-01 -3.376079999999999970e+00 8.646875000000000000e+01 1.601980000000000018e+03
2.000000000000000042e-02 7.178560000000000496e-01 -3.041789000000000076e+00 8.535014999999999930e+01 1.601619999999999891e+03
2.100000000000000130e-02 7.176050000000000484e-01 -2.651982999999999979e+00 8.421809999999999263e+01 1.601250000000000000e+03
2.200000000000000219e-02 7.173125000000000195e-01 -2.234771499999999911e+00 8.302164999999999395e+01 1.600859999999999900e+03
2.299999999999999961e-02 7.169840000000000657e-01 -1.793995000000000006e+00 8.174379999999999313e+01 1.600460000000000036e+03
2.400000000000000050e-02 7.166339999999999932e-01 -1.315805000000000113e+00 8.040039999999999054e+01 1.600039999999999964e+03
2.500000000000000139e-02 7.162794999999999579e-01 -7.812050000000001493e-01 7.902644999999999698e+01 1.599605000000000018e+03
2.600000000000000228e-02 7.159325000000000827e-01 -1.793049999999998256e-01 7.765744999999999720e+01 1.599174999999999955e+03
2.700000000000000316e-02 7.155940000000000634e-01 4.833499999999997243e-01 7.631305000000000405e+01 1.598740000000000009e+03
2.800000000000000058e-02 7.152570000000000316e-01 1.179905000000000204e+00 7.498675000000000068e+01 1.598309999999999945e+03
2.900000000000000147e-02 7.149045000000000538e-01 1.866535000000000055e+00 7.364560000000000173e+01 1.597880000000000109e+03
3.000000000000000236e-02 7.145155000000000811e-01 2.490515000000000256e+00 7.223680000000000234e+01 1.597434999999999945e+03
3.099999999999999978e-02 7.140729999999999578e-01 3.000669999999999504e+00 7.070064999999999600e+01 1.596960000000000036e+03
3.200000000000000067e-02 7.135635000000000172e-01 3.357740000000000169e+00 6.898605000000000587e+01 1.596444999999999936e+03
3.300000000000000155e-02 7.129860000000000086e-01 3.542290000000000383e+00 6.706454999999999700e+01 1.595880000000000109e+03
3.400000000000000244e-02 7.123494999999999688e-01 3.558065000000000033e+00 6.493940000000000623e+01 1.595269999999999982e+03
3.500000000000000333e-02 7.116735000000000699e-01 3.430274999999999519e+00 6.264825000000000443e+01 1.594619999999999891e+03
3.600000000000000422e-02 7.109830000000000316e-01 3.199484999999999690e+00 6.025740000000000407e+01 1.593934999999999945e+03
3.700000000000000511e-02 7.103059999999999929e-01 2.913324999999999942e+00 5.785170000000000101e+01 1.593250000000000000e+03
3.799999999999999906e-02 7.096679999999999655e-01 2.618454999999999977e+00 5.552209999999999468e+01 1.592569999999999936e+03
3.899999999999999994e-02 7.090899999999999981e-01 2.354560000000000208e+00 5.335434999999999661e+01 1.591929999999999836e+03
4.000000000000000083e-02 7.085859999999999381e-01 2.151380000000000070e+00 5.142064999999999486e+01 1.591355000000000018e+03
4.100000000000000172e-02 7.081655000000000033e-01 2.028360000000000163e+00 4.977559999999999718e+01 1.590840000000000146e+03
4.200000000000000261e-02 7.078335000000000043e-01 1.996360000000000134e+00 4.845530000000000115e+01 1.590420000000000073e+03
4.300000000000000350e-02 7.075910000000000810e-01 2.060609999999999609e+00 4.747970000000000113e+01 1.590079999999999927e+03
4.400000000000000439e-02 7.074370000000000935e-01 2.223738500000000062e+00 4.685670000000000357e+01 1.589845000000000027e+03
4.499999999999999833e-02 7.073715000000000419e-01 2.488335000000000186e+00 4.658599999999999852e+01 1.589714999999999918e+03
4.599999999999999922e-02 7.073935000000000084e-01 2.858319999999999972e+00 4.666365000000000407e+01 1.589670000000000073e+03
4.700000000000000011e-02 7.075025000000000341e-01 3.339159999999999684e+00 4.708375000000000199e+01 1.589735000000000127e+03
4.800000000000000100e-02 7.076985000000000081e-01 3.936890000000000001e+00 4.783995000000000175e+01 1.589889999999999873e+03
4.900000000000000189e-02 7.079804999999999016e-01 4.656449999999999534e+00 4.892399999999999949e+01 1.590144999999999982e+03
5.000000000000000278e-02 7.083455000000000723e-01 5.499920000000000364e+00 5.032479999999999620e+01 1.590485000000000127e+03
5.100000000000000366e-02 7.087890000000000024e-01 6.464980000000000615e+00 5.202655000000000030e+01 1.590924999999999955e+03
5.200000000000000455e-02 7.093049999999999633e-01 7.544134999999999813e+00 5.400700000000000500e+01 1.591440000000000055e+03
5.300000000000000544e-02 7.098835000000000006e-01 8.724610000000000198e+00 5.623740000000000805e+01 1.592034999999999854e+03
5.399999999999999939e-02 7.105150000000000077e-01 9.989254999999999995e+00 5.868274999999999864e+01 1.592695000000000164e+03
5.500000000000000028e-02 7.111885000000000012e-01 1.131762499999999960e+01 6.130299999999999727e+01 1.593410000000000082e+03
5.600000000000000117e-02 7.118900000000000228e-01 1.268768999999999991e+01 6.405554999999999666e+01 1.594174999999999955e+03
5.700000000000000205e-02 7.126099999999999657e-01 1.407759499999999875e+01 6.689735000000000298e+01 1.594974999999999909e+03
5.800000000000000294e-02 7.133380000000000276e-01 1.546691999999999823e+01 6.978790000000000759e+01 1.595795000000000073e+03
5.900000000000000383e-02 7.140655000000000197e-01 1.683794999999999931e+01 7.269079999999999586e+01 1.596625000000000000e+03
6.000000000000000472e-02 7.147855000000000736e-01 1.817644999999999911e+01 7.557620000000000005e+01 1.597465000000000146e+03
6.099999999999999867e-02 7.154949999999999921e-01 1.947165000000000035e+01 7.842095000000000482e+01 1.598300000000000182e+03
6.199999999999999956e-02 7.161899999999999933e-01 2.071645000000000181e+01 8.120965000000001055e+01 1.599125000000000000e+03
6.300000000000000044e-02 7.168700000000000072e-01 2.190690000000000026e+01 8.393365000000000009e+01 1.599940000000000055e+03
6.400000000000000133e-02 7.175359999999999516e-01 2.304140000000000299e+01 8.659049999999999159e+01 1.600740000000000009e+03
6.500000000000000222e-02 7.181885000000000074e-01 2.412040000000000006e+01 8.918255000000000621e+01 1.601525000000000091e+03
6.600000000000000311e-02 7.188304999999999279e-01 2.514539999999999864e+01 9.171600000000000819e+01 1.602295000000000073e+03
6.700000000000000400e-02 7.194629999999999637e-01 2.611860000000000070e+01 9.419794999999999163e+01 1.603049999999999955e+03
6.800000000000000488e-02 7.200884999999999092e-01 2.704200000000000159e+01 9.663704999999998790e+01 1.603795000000000073e+03
6.900000000000000577e-02 7.207080000000000153e-01 2.791734999999999900e+01 9.904079999999999018e+01 1.604534999999999854e+03
7.000000000000000666e-02 7.213220000000000187e-01 2.874555000000000149e+01 1.014151499999999970e+02 1.605259999999999991e+03
7.100000000000000755e-02 7.219320000000000181e-01 2.952649999999999864e+01 1.037621499999999912e+02 1.605980000000000018e+03
7.200000000000000844e-02 7.225360000000000671e-01 3.025895000000000223e+01 1.060822500000000019e+02 1.606695000000000164e+03
7.300000000000000933e-02 7.231324999999999559e-01 3.094085000000000107e+01 1.083714999999999975e+02 1.607400000000000091e+03
7.399999999999999634e-02 7.237195000000000711e-01 3.156909999999999883e+01 1.106244999999999976e+02 1.608094999999999800e+03
7.499999999999999722e-02 7.242939999999999934e-01 3.214005000000000223e+01 1.128300000000000125e+02 1.608780000000000200e+03
7.599999999999999811e-02 7.248535000000000394e-01 3.264979999999999905e+01 1.149784999999999968e+02 1.609450000000000045e+03
7.699999999999999900e-02 7.253929999999999545e-01 3.309440000000000026e+01 1.170570000000000022e+02 1.610094999999999800e+03
7.799999999999999989e-02 7.259109999999999729e-01 3.347019999999999840e+01 1.190519999999999925e+02 1.610720000000000027e+03
7.900000000000000078e-02 7.264040000000000497e-01 3.377415000000000589e+01 1.209515000000000100e+02 1.611325000000000045e+03
8.000000000000000167e-02 7.268684999999999174e-01 3.400384999999999991e+01 1.227435000000000116e+02 1.611889999999999873e+03
8.100000000000000255e-02 7.273030000000000328e-01 3.415765000000000384e+01 1.244184999999999945e+02 1.612430000000000064e+03
8.200000000000000344e-02 7.277044999999999764e-01 3.423494999999999777e+01 1.259675000000000011e+02 1.612930000000000064e+03
8.300000000000000433e-02 7.280729999999999702e-01 3.423574999999999591e+01 1.273839999999999861e+02 1.613394999999999982e+03
8.400000000000000522e-02 7.284064999999999568e-01 3.416089999999999804e+01 1.286634999999999991e+02 1.613819999999999936e+03
8.500000000000000611e-02 7.287055000000000060e-01 3.401234999999999786e+01 1.298045000000000186e+02 1.614204999999999927e+03
8.600000000000000699e-02 7.289689999999999781e-01 3.379249999999999687e+01 1.308059999999999832e+02 1.614550000000000182e+03
8.700000000000000788e-02 7.291984999999999717e-01 3.350464999999999804e+01 1.316700000000000159e+02 1.614849999999999909e+03
8.800000000000000877e-02 7.293944999999999457e-01 3.315294999999999703e+01 1.324005000000000223e+02 1.615110000000000127e+03
8.899999999999999578e-02 7.295579999999999288e-01 3.274235000000000184e+01 1.330020000000000095e+02 1.615335000000000036e+03
8.999999999999999667e-02 7.296914999999999374e-01 3.227844999999999942e+01 1.334819999999999993e+02 1.615519999999999982e+03
9.099999999999999756e-02 7.297974999999999879e-01 3.176765000000000327e+01 1.338500000000000227e+02 1.615664999999999964e+03
9.199999999999999845e-02 7.298780000000000268e-01 3.121674999999999756e+01 1.341150000000000091e+02 1.615789999999999964e+03
9.299999999999999933e-02 7.299364999999999881e-01 3.063319999999999865e+01 1.342900000000000205e+02 1.615875000000000000e+03
9.400000000000000022e-02 7.299754999999999994e-01 3.002465000000000117e+01 1.343845000000000027e+02 1.615934999999999945e+03
9.500000000000000111e-02 7.299984999999999946e-01 2.939850000000000207e+01 1.344130000000000109e+02 1.615969999999999800e+03
9.600000000000000200e-02 7.300085000000000601e-01 2.876214999999999833e+01 1.343870000000000005e+02 1.615990000000000009e+03
9.700000000000000289e-02 7.300079999999999902e-01 2.812229999999999919e+01 1.343179999999999836e+02 1.615990000000000009e+03
9.800000000000000377e-02 7.299995000000000234e-01 2.748490000000000322e+01 1.342170000000000130e+02 1.615980000000000018e+03
9.900000000000000466e-02 7.299854999999999539e-01 2.685490000000000066e+01 1.340925000000000011e+02 1.615954999999999927e+03
1.000000000000000056e-01 7.299670000000000325e-01 2.623610000000000042e+01 1.339519999999999982e+02 1.615924999999999955e+03
1.010000000000000064e-01 7.299455000000000249e-01 2.563105000000000189e+01 1.338020000000000209e+02 1.615889999999999873e+03
1.020000000000000073e-01 7.299215000000000009e-01 2.504110000000000014e+01 1.336444999999999936e+02 1.615849999999999909e+03
1.030000000000000082e-01 7.298940000000000428e-01 2.446634999999999849e+01 1.334814999999999827e+02 1.615805000000000064e+03
1.040000000000000091e-01 7.298634999999999984e-01 2.390590000000000259e+01 1.333110000000000070e+02 1.615759999999999991e+03
1.050000000000000100e-01 7.298284999999999911e-01 2.335794999999999888e+01 1.331320000000000050e+02 1.615704999999999927e+03
1.059999999999999970e-01 7.297890000000000210e-01 2.282000000000000028e+01 1.329399999999999977e+02 1.615650000000000091e+03
1.069999999999999979e-01 7.297424999999999606e-01 2.228904999999999959e+01 1.327300000000000182e+02 1.615590000000000146e+03
1.079999999999999988e-01 7.296880000000000033e-01 2.176184999999999903e+01 1.324975000000000023e+02 1.615519999999999982e+03
1.089999999999999997e-01 7.296255000000000379e-01 2.123499999999999943e+01 1.322375000000000114e+02 1.615444999999999936e+03
1.100000000000000006e-01 7.295514999999999084e-01 2.070534999999999926e+01 1.319435000000000002e+02 1.615360000000000127e+03
1.110000000000000014e-01 7.294669999999999765e-01 2.016995000000000005e+01 1.316125000000000114e+02 1.615260000000000218e+03
1.120000000000000023e-01 7.293704999999999217e-01 1.962630000000000052e+01 1.312395000000000209e+02 1.615150000000000091e+03
1.130000000000000032e-01 7.292609999999999371e-01 1.907250000000000156e+01 1.308234999999999957e+02 1.615034999999999854e+03
1.140000000000000041e-01 7.291395000000000515e-01 1.850735000000000241e+01 1.303625000000000114e+02 1.614900000000000091e+03
1.150000000000000050e-01 7.290060000000000429e-01 1.793019999999999925e+01 1.298569999999999993e+02 1.614759999999999991e+03
1.160000000000000059e-01 7.288620000000000099e-01 1.734140000000000015e+01 1.293089999999999975e+02 1.614599999999999909e+03
1.170000000000000068e-01 7.287069999999999936e-01 1.674224999999999852e+01 1.287219999999999800e+02 1.614429999999999836e+03
1.180000000000000077e-01 7.285435000000000105e-01 1.613445000000000107e+01 1.281005000000000109e+02 1.614250000000000000e+03
1.190000000000000085e-01 7.283735000000000070e-01 1.552090000000000103e+01 1.274510000000000076e+02 1.614059999999999945e+03
1.200000000000000094e-01 7.281990000000000407e-01 1.490484999999999971e+01 1.267809999999999917e+02 1.613865000000000009e+03
1.209999999999999964e-01 7.280219999999999470e-01 1.429039999999999822e+01 1.260995000000000061e+02 1.613664999999999964e+03
1.219999999999999973e-01 7.278454999999999231e-01 1.368196000000000012e+01 1.254154999999999944e+02 1.613464999999999918e+03
1.229999999999999982e-01 7.276719999999999855e-01 1.308420499999999898e+01 1.247379999999999995e+02 1.613264999999999873e+03
1.239999999999999991e-01 7.275039999999999285e-01 1.250209500000000062e+01 1.240780000000000030e+02 1.613065000000000055e+03
1.250000000000000000e-01 7.273434999999999206e-01 1.194038499999999914e+01 1.234449999999999932e+02 1.612875000000000000e+03
1.260000000000000009e-01 7.271935000000000482e-01 1.140366500000000016e+01 1.228479999999999990e+02 1.612690000000000055e+03
1.270000000000000018e-01 7.270559999999999246e-01 1.089620000000000033e+01 1.222949999999999875e+02 1.612514999999999873e+03
1.280000000000000027e-01 7.269320000000000226e-01 1.042163500000000020e+01 1.217934999999999945e+02 1.612360000000000127e+03
1.290000000000000036e-01 7.268234999999999557e-01 9.982879999999999754e+00 1.213495000000000061e+02 1.612220000000000027e+03
1.300000000000000044e-01 7.267310000000000159e-01 9.582195000000000462e+00 1.209664999999999964e+02 1.612090000000000146e+03
1.310000000000000053e-01 7.266554999999998987e-01 9.220879999999999299e+00 1.206479999999999961e+02 1.611980000000000018e+03
1.320000000000000062e-01 7.265964999999999785e-01 8.899480000000000501e+00 1.203944999999999936e+02 1.611889999999999873e+03
1.330000000000000071e-01 7.265530000000000044e-01 8.617605000000001070e+00 1.202049999999999983e+02 1.611819999999999936e+03
1.340000000000000080e-01 7.265260000000000051e-01 8.374075000000001268e+00 1.200769999999999982e+02 1.611764999999999873e+03
1.350000000000000089e-01 7.265125000000000055e-01 8.167024999999998869e+00 1.200070000000000050e+02 1.611724999999999909e+03
1.360000000000000098e-01 7.265114999999999768e-01 7.994009999999999394e+00 1.199894999999999925e+02 1.611710000000000036e+03
1.370000000000000107e-01 7.265220000000000011e-01 7.852059999999999818e+00 1.200190000000000055e+02 1.611699999999999818e+03
1.380000000000000115e-01 7.265414999999999512e-01 7.737894999999999968e+00 1.200884999999999962e+02 1.611710000000000036e+03
1.390000000000000124e-01 7.265695000000000903e-01 7.648025000000000517e+00 1.201914999999999907e+02 1.611724999999999909e+03
1.400000000000000133e-01 7.266029999999999989e-01 7.578879999999999839e+00 1.203205000000000098e+02 1.611750000000000000e+03
1.410000000000000142e-01 7.266409999999999814e-01 7.526934999999999931e+00 1.204695000000000107e+02 1.611785000000000082e+03
1.420000000000000151e-01 7.266814999999999802e-01 7.488795000000000535e+00 1.206320000000000050e+02 1.611825000000000045e+03
1.430000000000000160e-01 7.267230000000000079e-01 7.461269999999999847e+00 1.208019999999999925e+02 1.611865000000000009e+03
1.440000000000000169e-01 7.267654999999999532e-01 7.441440000000000055e+00 1.209749999999999943e+02 1.611910000000000082e+03
1.450000000000000178e-01 7.268069999999999808e-01 7.426700000000000301e+00 1.211454999999999984e+02 1.611954999999999927e+03
1.459999999999999909e-01 7.268464999999999510e-01 7.414759999999999351e+00 1.213110000000000070e+02 1.612000000000000000e+03
1.469999999999999918e-01 7.268844999999999335e-01 7.403684999999999405e+00 1.214685000000000059e+02 1.612039999999999964e+03
1.479999999999999927e-01 7.269200000000000106e-01 7.391879999999999562e+00 1.216159999999999997e+02 1.612085000000000036e+03
1.489999999999999936e-01 7.269520000000000426e-01 7.378085000000000448e+00 1.217519999999999953e+02 1.612125000000000000e+03
1.499999999999999944e-01 7.269820000000000171e-01 7.361365000000001046e+00 1.218764999999999930e+02 1.612159999999999854e+03
1.509999999999999953e-01 7.270090000000000163e-01 7.341109999999999580e+00 1.219885000000000019e+02 1.612200000000000045e+03
1.519999999999999962e-01 7.270324999999999704e-01 7.316989999999999661e+00 1.220895000000000010e+02 1.612230000000000018e+03
1.529999999999999971e-01 7.270545000000000480e-01 7.288929999999999687e+00 1.221790000000000020e+02 1.612259999999999991e+03
1.539999999999999980e-01 7.270745000000000680e-01 7.257089999999999819e+00 1.222590000000000003e+02 1.612285000000000082e+03
1.549999999999999989e-01 7.270920000000000716e-01 7.221840000000000259e+00 1.223305000000000007e+02 1.612305000000000064e+03
1.559999999999999998e-01 7.271080000000000876e-01 7.183695000000000164e+00 1.223949999999999960e+02 1.612329999999999927e+03
1.570000000000000007e-01 7.271235000000000337e-01 7.143280000000000740e+00 1.224544999999999959e+02 1.612349999999999909e+03
1.580000000000000016e-01 7.271380000000000621e-01 7.101300000000000168e+00 1.225095000000000027e+02 1.612369999999999891e+03
1.590000000000000024e-01 7.271525000000000905e-01 7.058489999999999931e+00 1.225620000000000118e+02 1.612384999999999991e+03
