# t [s], A [cm^2], U [cm/s], P [cPa], c [cm/s]
1.000000000000000021e-03 1.857504999999999851e-01 3.831044000000000116e-01 9.488124999999999432e+01 2.326789999999999964e+03
2.000000000000000042e-03 1.856789999999999830e-01 2.011515999999999860e+00 9.075925000000000864e+01 2.326135000000000218e+03
3.000000000000000062e-03 1.855225000000000068e-01 4.037424500000000194e+00 8.498975000000000080e+01 2.324744999999999891e+03
4.000000000000000083e-03 1.853309999999999957e-01 6.359180000000000277e+00 7.918989999999999441e+01 2.323065000000000055e+03
5.000000000000000104e-03 1.851455000000000184e-01 8.812374999999999403e+00 7.449349999999999739e+01 2.321454999999999927e+03
6.000000000000000125e-03 1.849760000000000015e-01 1.102692000000000050e+01 7.071725000000000705e+01 2.320019999999999982e+03
7.000000000000000146e-03 1.848219999999999863e-01 1.278847000000000023e+01 6.729009999999999536e+01 2.318744999999999891e+03
8.000000000000000167e-03 1.846905000000000074e-01 1.417689999999999984e+01 6.433589999999999520e+01 2.317670000000000073e+03
9.000000000000001055e-03 1.845844999999999847e-01 1.525440000000000040e+01 6.202179999999999893e+01 2.316815000000000055e+03
1.000000000000000194e-02 1.845025000000000137e-01 1.605419999999999803e+01 6.029455000000000098e+01 2.316164999999999964e+03
1.099999999999999936e-02 1.844430000000000236e-01 1.661959999999999837e+01 5.909210000000000207e+01 2.315699999999999818e+03
1.200000000000000025e-02 1.843990000000000073e-01 1.694470000000000098e+01 5.820600000000000307e+01 2.315369999999999891e+03
1.300000000000000114e-02 1.843629999999999991e-01 1.705794999999999817e+01 5.741644999999999754e+01 2.315105000000000018e+03
1.400000000000000203e-02 1.843400000000000039e-01 1.716189999999999927e+01 5.699450000000000216e+01 2.314940000000000055e+03
1.499999999999999944e-02 1.843474999999999975e-01 1.756919999999999860e+01 5.774394999999999811e+01 2.315000000000000000e+03
1.600000000000000033e-02 1.844024999999999970e-01 1.846450000000000102e+01 6.033749999999999858e+01 2.315444999999999709e+03
1.700000000000000122e-02 1.845054999999999890e-01 1.973299999999999699e+01 6.460505000000000564e+01 2.316274999999999636e+03
1.800000000000000211e-02 1.846349999999999936e-01 2.099755000000000038e+01 6.941424999999999557e+01 2.317335000000000036e+03
1.900000000000000300e-02 1.847535000000000149e-01 2.181595000000000084e+01 7.319379999999999598e+01 2.318324999999999818e+03
2.000000000000000042e-02 1.848269999999999913e-01 2.190299999999999869e+01 7.471209999999999241e+01 2.318970000000000255e+03
2.100000000000000130e-02 1.848380000000000023e-01 2.125584999999999880e+01 7.365090000000000714e+01 2.319099999999999909e+03
2.200000000000000219e-02 1.847920000000000118e-01 2.012839999999999918e+01 7.068574999999999875e+01 2.318769999999999982e+03
2.299999999999999961e-02 1.847139999999999893e-01 1.888410000000000011e+01 6.707450000000000045e+01 2.318144999999999982e+03
2.400000000000000050e-02 1.846335000000000059e-01 1.781864999999999810e+01 6.401954999999999529e+01 2.317485000000000127e+03
2.500000000000000139e-02 1.845709999999999851e-01 1.704500000000000171e+01 6.215524999999999523e+01 2.316954999999999927e+03
2.600000000000000228e-02 1.845330000000000026e-01 1.648310000000000031e+01 6.138165000000000049e+01 2.316630000000000109e+03
2.700000000000000316e-02 1.845094999999999930e-01 1.593559999999999910e+01 6.104994999999999550e+01 2.316425000000000182e+03
2.800000000000000058e-02 1.844844999999999957e-01 1.520395000000000074e+01 6.035660000000000025e+01 2.316215000000000146e+03
2.900000000000000147e-02 1.844415000000000082e-01 1.419355000000000189e+01 5.875665000000000049e+01 2.315875000000000000e+03
3.000000000000000236e-02 1.843759999999999843e-01 1.297015000000000029e+01 5.623820000000000618e+01 2.315349999999999909e+03
3.099999999999999978e-02 1.842965000000000020e-01 1.174474999999999980e+01 5.335294999999999987e+01 2.314699999999999818e+03
3.200000000000000067e-02 1.842225000000000112e-01 1.079464499999999916e+01 5.099759999999999849e+01 2.314085000000000036e+03
3.300000000000000155e-02 1.841760000000000064e-01 1.035531999999999897e+01 5.004579999999999984e+01 2.313684999999999945e+03
3.400000000000000244e-02 1.841754999999999920e-01 1.053144999999999953e+01 5.099715000000000487e+01 2.313644999999999982e+03
3.500000000000000333e-02 1.842249999999999999e-01 1.126000000000000156e+01 5.378524999999999778e+01 2.314015000000000327e+03
3.600000000000000422e-02 1.843159999999999799e-01 1.233174999999999955e+01 5.779849999999999710e+01 2.314734999999999673e+03
3.700000000000000511e-02 1.844274999999999942e-01 1.345394999999999897e+01 6.207410000000000139e+01 2.315635000000000218e+03
3.799999999999999906e-02 1.845335000000000170e-01 1.432685000000000031e+01 6.557245000000000346e+01 2.316505000000000109e+03
3.899999999999999994e-02 1.846085000000000087e-01 1.470955000000000013e+01 6.743524999999999636e+01 2.317140000000000327e+03
4.000000000000000083e-02 1.846335000000000059e-01 1.446124999999999972e+01 6.715835000000001287e+01 2.317380000000000109e+03
4.100000000000000172e-02 1.845994999999999997e-01 1.355134999999999934e+01 6.464879999999999427e+01 2.317135000000000218e+03
4.200000000000000261e-02 1.845069999999999766e-01 1.204338999999999871e+01 6.017305000000000348e+01 2.316404999999999745e+03
4.300000000000000350e-02 1.843640000000000001e-01 1.006285000000000096e+01 5.423234999999999673e+01 2.315250000000000000e+03
4.400000000000000439e-02 1.841840000000000144e-01 7.761155000000000470e+00 4.741474999999999795e+01 2.313789999999999964e+03
4.499999999999999833e-02 1.839820000000000066e-01 5.287291499999999367e+00 4.027214999999999634e+01 2.312140000000000327e+03
4.599999999999999922e-02 1.837719999999999909e-01 2.771894999999999776e+00 3.324784999999999968e+01 2.310414999999999964e+03
4.700000000000000011e-02 1.835649999999999782e-01 3.245649999999997704e-01 2.666155000000000186e+01 2.308710000000000036e+03
4.800000000000000100e-02 1.833695000000000186e-01 -1.961125000000000007e+00 2.073460000000000036e+01 2.307100000000000364e+03
4.900000000000000189e-02 1.831929999999999947e-01 -3.999641699999999744e+00 1.563350499999999954e+01 2.305630000000000109e+03
5.000000000000000278e-02 1.830419999999999825e-01 -5.707989999999999675e+00 1.150870500000000085e+01 2.304369999999999891e+03
5.100000000000000366e-02 1.829204999999999859e-01 -7.005164999999999864e+00 8.514324999999999477e+00 2.303344999999999800e+03
5.200000000000000455e-02 1.828345000000000109e-01 -7.817065000000000374e+00 6.805545000000000400e+00 2.302614999999999782e+03
5.300000000000000544e-02 1.827889999999999793e-01 -8.085069999999999979e+00 6.516094999999999970e+00 2.302210000000000036e+03
5.399999999999999939e-02 1.827874999999999917e-01 -7.775280000000000413e+00 7.727965000000000195e+00 2.302159999999999854e+03
5.500000000000000028e-02 1.828314999999999801e-01 -6.885390000000000121e+00 1.044447999999999865e+01 2.302485000000000127e+03
5.600000000000000117e-02 1.829204999999999859e-01 -5.447054999999999758e+00 1.457620000000000005e+01 2.303170000000000073e+03
5.700000000000000205e-02 1.830499999999999905e-01 -3.523258999999999919e+00 1.994429999999999836e+01 2.304204999999999927e+03
5.800000000000000294e-02 1.832159999999999900e-01 -1.201659999999999950e+00 2.629895000000000138e+01 2.305534999999999854e+03
5.900000000000000383e-02 1.834095000000000031e-01 1.414125000000000076e+00 3.334665000000000390e+01 2.307099999999999909e+03
6.000000000000000472e-02 1.836229999999999807e-01 4.213262499999999910e+00 4.077955000000000041e+01 2.308840000000000146e+03
6.099999999999999867e-02 1.838474999999999970e-01 7.085144999999999804e+00 4.829990000000000094e+01 2.310684999999999945e+03
6.199999999999999956e-02 1.840740000000000154e-01 9.925329999999998876e+00 5.563814999999999600e+01 2.312555000000000291e+03
6.300000000000000044e-02 1.842949999999999866e-01 1.264011999999999958e+01 6.256449999999999534e+01 2.314385000000000218e+03
6.400000000000000133e-02 1.845040000000000013e-01 1.515074999999999861e+01 6.889764999999999873e+01 2.316125000000000000e+03
6.500000000000000222e-02 1.846959999999999991e-01 1.739740000000000109e+01 7.451200000000000045e+01 2.317739999999999782e+03
6.600000000000000311e-02 1.848675000000000179e-01 1.934235000000000326e+01 7.934385000000000332e+01 2.319184999999999945e+03
6.700000000000000400e-02 1.850165000000000004e-01 2.097259999999999991e+01 8.339570000000000505e+01 2.320449999999999818e+03
6.800000000000000488e-02 1.851444999999999896e-01 2.230015000000000214e+01 8.673555000000000348e+01 2.321529999999999745e+03
6.900000000000000577e-02 1.852530000000000010e-01 2.335949999999999704e+01 8.948994999999999322e+01 2.322465000000000146e+03
7.000000000000000666e-02 1.853454999999999964e-01 2.420385000000000275e+01 9.183019999999999072e+01 2.323255000000000109e+03
7.100000000000000755e-02 1.854279999999999817e-01 2.489809999999999945e+01 9.395284999999999798e+01 2.323965000000000146e+03
7.200000000000000844e-02 1.855050000000000032e-01 2.551169999999999760e+01 9.605764999999999532e+01 2.324625000000000000e+03
7.300000000000000933e-02 1.855829999999999980e-01 2.611120000000000019e+01 9.832599999999999341e+01 2.325289999999999964e+03
7.399999999999999634e-02 1.856659999999999977e-01 2.675345000000000084e+01 1.009011500000000012e+02 2.325989999999999782e+03
7.499999999999999722e-02 1.857584999999999931e-01 2.748089999999999833e+01 1.038785000000000025e+02 2.326765000000000327e+03
7.599999999999999811e-02 1.858615000000000128e-01 2.831830000000000069e+01 1.072944999999999993e+02 2.327630000000000109e+03
7.699999999999999900e-02 1.859770000000000034e-01 2.927165000000000106e+01 1.111304999999999978e+02 2.328590000000000146e+03
7.799999999999999989e-02 1.861035000000000050e-01 3.032914999999999850e+01 1.153179999999999978e+02 2.329644999999999982e+03
7.900000000000000078e-02 1.862384999999999735e-01 3.146340000000000003e+01 1.197445000000000022e+02 2.330769999999999982e+03
8.000000000000000167e-02 1.863790000000000169e-01 3.263479999999999848e+01 1.242709999999999866e+02 2.331944999999999709e+03
8.100000000000000255e-02 1.865204999999999780e-01 3.379585000000000150e+01 1.287425000000000068e+02 2.333135000000000218e+03
8.200000000000000344e-02 1.866590000000000193e-01 3.489530000000000598e+01 1.330015000000000214e+02 2.334300000000000182e+03
8.300000000000000433e-02 1.867894999999999972e-01 3.588235000000000241e+01 1.369019999999999868e+02 2.335404999999999745e+03
8.400000000000000522e-02 1.869085000000000052e-01 3.671070000000000277e+01 1.403154999999999859e+02 2.336414999999999964e+03
8.500000000000000611e-02 1.870124999999999982e-01 3.734170000000000300e+01 1.431430000000000007e+02 2.337295000000000073e+03
8.600000000000000699e-02 1.870979999999999865e-01 3.774685000000000201e+01 1.453185000000000002e+02 2.338029999999999745e+03
8.700000000000000788e-02 1.871639999999999970e-01 3.790964999999999918e+01 1.468109999999999786e+02 2.338605000000000018e+03
8.800000000000000877e-02 1.872099999999999875e-01 3.782605000000000217e+01 1.476250000000000000e+02 2.339010000000000218e+03
8.899999999999999578e-02 1.872354999999999992e-01 3.750440000000000396e+01 1.477984999999999900e+02 2.339239999999999782e+03
8.999999999999999667e-02 1.872420000000000195e-01 3.696410000000000196e+01 1.473990000000000009e+02 2.339315000000000055e+03
9.099999999999999756e-02 1.872324999999999962e-01 3.623404999999999632e+01 1.465130000000000052e+02 2.339244999999999891e+03
9.199999999999999845e-02 1.872079999999999855e-01 3.535014999999999930e+01 1.452454999999999927e+02 2.339055000000000291e+03
9.299999999999999933e-02 1.871725000000000194e-01 3.435305000000000319e+01 1.437074999999999818e+02 2.338769999999999982e+03
9.400000000000000022e-02 1.871289999999999898e-01 3.328535000000000110e+01 1.420110000000000241e+02 2.338414999999999964e+03
9.500000000000000111e-02 1.870804999999999829e-01 3.218949999999999534e+01 1.402644999999999982e+02 2.338015000000000327e+03
9.600000000000000200e-02 1.870314999999999894e-01 3.110559999999999903e+01 1.385654999999999859e+02 2.337600000000000364e+03
9.700000000000000289e-02 1.869830000000000103e-01 3.006964999999999577e+01 1.370000000000000000e+02 2.337195000000000164e+03
9.800000000000000377e-02 1.869385000000000074e-01 2.911185000000000045e+01 1.356370000000000005e+02 2.336820000000000164e+03
9.900000000000000466e-02 1.868994999999999962e-01 2.825515000000000043e+01 1.345244999999999891e+02 2.336484999999999673e+03
1.000000000000000056e-01 1.868680000000000063e-01 2.751440000000000197e+01 1.336920000000000073e+02 2.336215000000000146e+03
1.010000000000000064e-01 1.868440000000000101e-01 2.689574999999999960e+01 1.331444999999999936e+02 2.336005000000000109e+03
1.020000000000000073e-01 1.868279999999999941e-01 2.639630000000000010e+01 1.328664999999999736e+02 2.335864999999999782e+03
1.030000000000000082e-01 1.868195000000000272e-01 2.600450000000000017e+01 1.328174999999999955e+02 2.335779999999999745e+03
1.040000000000000091e-01 1.868170000000000108e-01 2.570125000000000171e+01 1.329420000000000073e+02 2.335755000000000109e+03
1.050000000000000100e-01 1.868190000000000128e-01 2.546110000000000184e+01 1.331659999999999968e+02 2.335760000000000218e+03
1.059999999999999970e-01 1.868235000000000035e-01 2.525430000000000064e+01 1.334089999999999918e+02 2.335789999999999964e+03
1.069999999999999979e-01 1.868270000000000208e-01 2.504879999999999995e+01 1.335824999999999818e+02 2.335820000000000164e+03
1.079999999999999988e-01 1.868279999999999941e-01 2.481299999999999883e+01 1.336050000000000182e+02 2.335824999999999818e+03
1.089999999999999997e-01 1.868250000000000188e-01 2.451764999999999972e+01 1.334000000000000057e+02 2.335795000000000073e+03
1.100000000000000006e-01 1.868134999999999935e-01 2.413830000000000098e+01 1.329085000000000036e+02 2.335710000000000036e+03
1.110000000000000014e-01 1.867939999999999878e-01 2.365704999999999814e+01 1.320904999999999916e+02 2.335545000000000073e+03
1.120000000000000023e-01 1.867650000000000143e-01 2.306369999999999720e+01 1.309270000000000209e+02 2.335309999999999945e+03
1.130000000000000032e-01 1.867254999999999887e-01 2.235685000000000144e+01 1.294244999999999948e+02 2.334980000000000018e+03
1.140000000000000041e-01 1.866764999999999952e-01 2.154350000000000165e+01 1.276124999999999972e+02 2.334574999999999818e+03
1.150000000000000050e-01 1.866190000000000071e-01 2.063904999999999745e+01 1.255420000000000016e+02 2.334095000000000255e+03
1.160000000000000059e-01 1.865539999999999976e-01 1.966550000000000153e+01 1.232814999999999941e+02 2.333559999999999945e+03
1.170000000000000068e-01 1.864835000000000242e-01 1.865024999999999977e+01 1.209124999999999943e+02 2.332974999999999909e+03
1.180000000000000077e-01 1.864109999999999934e-01 1.762409999999999854e+01 1.185210000000000008e+02 2.332369999999999891e+03
1.190000000000000085e-01 1.863380000000000036e-01 1.661899999999999977e+01 1.161965000000000003e+02 2.331755000000000109e+03
1.200000000000000094e-01 1.862675000000000025e-01 1.566590000000000060e+01 1.140220000000000056e+02 2.331164999999999964e+03
1.209999999999999964e-01 1.862020000000000064e-01 1.479309999999999903e+01 1.120699999999999932e+02 2.330609999999999673e+03
1.219999999999999973e-01 1.861435000000000173e-01 1.402430000000000021e+01 1.103995000000000033e+02 2.330114999999999782e+03
1.229999999999999982e-01 1.860930000000000084e-01 1.337780000000000058e+01 1.090529999999999973e+02 2.329684999999999945e+03
1.239999999999999991e-01 1.860525000000000095e-01 1.286550000000000082e+01 1.080560000000000116e+02 2.329335000000000036e+03
1.250000000000000000e-01 1.860219999999999929e-01 1.249259999999999948e+01 1.074130000000000109e+02 2.329074999999999818e+03
1.260000000000000009e-01 1.860025000000000150e-01 1.225784999999999947e+01 1.071154999999999973e+02 2.328899999999999636e+03
1.270000000000000018e-01 1.859935000000000060e-01 1.215395000000000003e+01 1.071355000000000075e+02 2.328805000000000291e+03
1.280000000000000027e-01 1.859925000000000050e-01 1.216830000000000034e+01 1.074364999999999952e+02 2.328795000000000073e+03
1.290000000000000036e-01 1.860009999999999997e-01 1.228420000000000023e+01 1.079705000000000013e+02 2.328849999999999909e+03
1.300000000000000044e-01 1.860160000000000147e-01 1.248165000000000013e+01 1.086825000000000045e+02 2.328970000000000255e+03
1.310000000000000053e-01 1.860354999999999925e-01 1.273879999999999946e+01 1.095155000000000030e+02 2.329130000000000109e+03
1.320000000000000062e-01 1.860594999999999888e-01 1.303299999999999947e+01 1.104120000000000061e+02 2.329320000000000164e+03
1.330000000000000071e-01 1.860844999999999860e-01 1.334174999999999933e+01 1.113170000000000073e+02 2.329529999999999745e+03
1.340000000000000080e-01 1.861105000000000120e-01 1.364395000000000024e+01 1.121794999999999902e+02 2.329744999999999891e+03
1.350000000000000089e-01 1.861349999999999949e-01 1.392089999999999961e+01 1.129549999999999983e+02 2.329949999999999818e+03
1.360000000000000098e-01 1.861570000000000169e-01 1.415664999999999907e+01 1.136089999999999947e+02 2.330135000000000218e+03
1.370000000000000107e-01 1.861754999999999938e-01 1.433910000000000018e+01 1.141159999999999997e+02 2.330289999999999964e+03
1.380000000000000115e-01 1.861895000000000078e-01 1.446024999999999849e+01 1.144599999999999937e+02 2.330414999999999964e+03
1.390000000000000124e-01 1.861995000000000178e-01 1.451624999999999943e+01 1.146375000000000028e+02 2.330500000000000000e+03
1.400000000000000133e-01 1.862039999999999806e-01 1.450764999999999993e+01 1.146560000000000059e+02 2.330539999999999964e+03
1.410000000000000142e-01 1.862044999999999950e-01 1.443895000000000017e+01 1.145305000000000035e+02 2.330550000000000182e+03
1.420000000000000151e-01 1.862004999999999910e-01 1.431794999999999973e+01 1.142860000000000014e+02 2.330524999999999636e+03
1.430000000000000160e-01 1.861939999999999984e-01 1.415530000000000044e+01 1.139530000000000030e+02 2.330470000000000255e+03
1.440000000000000169e-01 1.861845000000000028e-01 1.396340000000000003e+01 1.135655000000000001e+02 2.330394999999999982e+03
1.450000000000000178e-01 1.861734999999999918e-01 1.375540000000000163e+01 1.131590000000000060e+02 2.330309999999999945e+03
1.459999999999999909e-01 1.861619999999999941e-01 1.354444999999999943e+01 1.127659999999999911e+02 2.330215000000000146e+03
1.469999999999999918e-01 1.861514999999999975e-01 1.334274999999999878e+01 1.124164999999999992e+02 2.330130000000000109e+03
1.479999999999999927e-01 1.861420000000000019e-01 1.316065000000000040e+01 1.121355000000000075e+02 2.330050000000000182e+03
1.489999999999999936e-01 1.861344999999999805e-01 1.300635000000000119e+01 1.119385000000000048e+02 2.329985000000000127e+03
1.499999999999999944e-01 1.861295000000000033e-01 1.288540000000000063e+01 1.118370000000000033e+02 2.329939999999999600e+03
1.509999999999999953e-01 1.861275000000000013e-01 1.280059999999999931e+01 1.118324999999999960e+02 2.329920000000000073e+03
1.519999999999999962e-01 1.861280000000000157e-01 1.275205000000000055e+01 1.119209999999999923e+02 2.329925000000000182e+03
1.529999999999999971e-01 1.861309999999999909e-01 1.273740000000000094e+01 1.120919999999999987e+02 2.329944999999999709e+03
1.539999999999999980e-01 1.861364999999999825e-01 1.275210000000000043e+01 1.123290000000000077e+02 2.329989999999999782e+03
1.549999999999999989e-01 1.861435000000000173e-01 1.278999999999999915e+01 1.126140000000000043e+02 2.330050000000000182e+03
1.559999999999999998e-01 1.861519999999999841e-01 1.284379999999999988e+01 1.129250000000000114e+02 2.330114999999999782e+03
1.570000000000000007e-01 1.861609999999999931e-01 1.290554999999999986e+01 1.132404999999999973e+02 2.330184999999999945e+03
1.580000000000000016e-01 1.861700000000000021e-01 1.296734999999999971e+01 1.135399999999999920e+02 2.330265000000000327e+03
1.590000000000000024e-01 1.861784999999999968e-01 1.302155000000000129e+01 1.138040000000000020e+02 2.330335000000000036e+03
