# t [s], A [cm^2], U [cm/s], P [cPa], c [cm/s]
1.000000000000000021e-03 4.766969999999999819e-01 4.536200000000004118e-03 9.151935000000000286e+01 1.619514999999999873e+03
2.000000000000000042e-03 4.766894999999999882e-01 -1.525284999999999922e-03 9.149250000000000682e+01 1.619509999999999991e+03
3.000000000000000062e-03 4.767295000000000282e-01 9.465955000000000896e-02 9.159319999999999595e+01 1.619529999999999973e+03
4.000000000000000083e-03 4.767660000000000231e-01 1.903182049999999903e-01 9.171129999999999427e+01 1.619565000000000055e+03
5.000000000000000104e-03 4.767464999999999620e-01 1.654633000000000076e-01 9.165654999999999575e+01 1.619554999999999836e+03
6.000000000000000125e-03 4.766974999999999962e-01 6.561099999999997490e-02 9.143980000000000530e+01 1.619509999999999991e+03
7.000000000000000146e-03 4.766540000000000221e-01 -2.967800000000003768e-02 9.116179999999999950e+01 1.619445000000000164e+03
8.000000000000000167e-03 4.765874999999999417e-01 -1.904050000000000464e-01 9.075509999999999877e+01 1.619355000000000018e+03
9.000000000000001055e-03 4.764764999999999695e-01 -4.725749999999999673e-01 9.012895000000000323e+01 1.619220000000000027e+03
1.000000000000000194e-02 4.763175000000000603e-01 -8.785799999999999166e-01 8.924269999999999925e+01 1.619025000000000091e+03
1.099999999999999936e-02 4.760984999999999800e-01 -1.427674999999999805e+00 8.803589999999999804e+01 1.618755000000000109e+03
1.200000000000000025e-02 4.758120000000000127e-01 -2.125449999999999839e+00 8.645839999999999748e+01 1.618390000000000100e+03
1.300000000000000114e-02 4.754774999999999974e-01 -2.899224999999999941e+00 8.456274999999999409e+01 1.617950000000000045e+03
1.400000000000000203e-02 4.751440000000000108e-01 -3.604994999999999727e+00 8.252240000000000464e+01 1.617460000000000036e+03
1.499999999999999944e-02 4.748580000000000023e-01 -4.097893500000000522e+00 8.055549999999999500e+01 1.616965000000000146e+03
1.600000000000000033e-02 4.746405000000000207e-01 -4.296651999999999916e+00 7.882715000000000316e+01 1.616505000000000109e+03
1.700000000000000122e-02 4.744840000000000169e-01 -4.203559000000000268e+00 7.739584999999999582e+01 1.616095000000000027e+03
1.800000000000000211e-02 4.743605000000000183e-01 -3.885829999999999895e+00 7.621414999999998940e+01 1.615730000000000018e+03
1.900000000000000300e-02 4.742364999999999498e-01 -3.439224999999999977e+00 7.516625000000000512e+01 1.615400000000000091e+03
2.000000000000000042e-02 4.740840000000000054e-01 -2.950682500000000097e+00 7.412024999999999864e+01 1.615065000000000055e+03
2.100000000000000130e-02 4.738919999999999799e-01 -2.471300500000000344e+00 7.297690000000000055e+01 1.614720000000000027e+03
2.200000000000000219e-02 4.736640000000000295e-01 -2.006979999999999986e+00 7.169874999999998977e+01 1.614345000000000027e+03
2.299999999999999961e-02 4.734160000000000590e-01 -1.528779999999999806e+00 7.031080000000000041e+01 1.613950000000000045e+03
2.400000000000000050e-02 4.731680000000000330e-01 -9.967150000000000176e-01 6.887579999999999814e+01 1.613539999999999964e+03
2.500000000000000139e-02 4.729320000000000190e-01 -3.852599999999999358e-01 6.745759999999999934e+01 1.613125000000000000e+03
2.600000000000000228e-02 4.727100000000000191e-01 2.995500000000004270e-01 6.608924999999999272e+01 1.612724999999999909e+03
2.700000000000000316e-02 4.724909999999999943e-01 1.015955000000000163e+00 6.475560000000000116e+01 1.612329999999999927e+03
2.800000000000000058e-02 4.722560000000000091e-01 1.694239999999999968e+00 6.339355000000000473e+01 1.611924999999999955e+03
2.900000000000000147e-02 4.719835000000000003e-01 2.252650000000000041e+00 6.190760000000000218e+01 1.611494999999999891e+03
3.000000000000000236e-02 4.716529999999999889e-01 2.617059999999999942e+00 6.019604999999999961e+01 1.611019999999999982e+03
3.099999999999999978e-02 4.712549999999999795e-01 2.739395000000000024e+00 5.818045000000000044e+01 1.610485000000000127e+03
3.200000000000000067e-02 4.707915000000000294e-01 2.609970000000000123e+00 5.583145000000000380e+01 1.609875000000000000e+03
3.300000000000000155e-02 4.702779999999999738e-01 2.260119999999999685e+00 5.318160000000000309e+01 1.609200000000000045e+03
3.400000000000000244e-02 4.697394999999999765e-01 1.754745000000000221e+00 5.032389999999999475e+01 1.608470000000000027e+03
3.500000000000000333e-02 4.692064999999999708e-01 1.177764999999999951e+00 4.739605000000000246e+01 1.607715000000000146e+03
3.600000000000000422e-02 4.687080000000000135e-01 6.159050000000005909e-01 4.455695000000000050e+01 1.606965000000000146e+03
3.700000000000000511e-02 4.682690000000000463e-01 1.451850000000001195e-01 4.196255000000000024e+01 1.606275000000000091e+03
3.799999999999999906e-02 4.679095000000000337e-01 -1.771149999999996894e-01 3.974694999999999823e+01 1.605660000000000082e+03
3.899999999999999994e-02 4.676390000000000269e-01 -3.148100000000000342e-01 3.801075000000000159e+01 1.605144999999999982e+03
4.000000000000000083e-02 4.674635000000000318e-01 -2.506299999999999084e-01 3.681685000000000230e+01 1.604764999999999873e+03
4.100000000000000172e-02 4.673820000000000197e-01 1.890000000000013891e-02 3.619379999999999598e+01 1.604519999999999982e+03
4.200000000000000261e-02 4.673919999999999741e-01 4.896205000000000140e-01 3.614305000000000234e+01 1.604424999999999955e+03
4.300000000000000350e-02 4.674895000000000023e-01 1.155282000000000142e+00 3.664809999999999945e+01 1.604474999999999909e+03
4.400000000000000439e-02 4.676709999999999479e-01 2.011232999999999826e+00 3.768379999999999797e+01 1.604654999999999973e+03
4.499999999999999833e-02 4.679324999999999735e-01 3.055630000000000290e+00 3.922249999999999659e+01 1.604980000000000018e+03
4.599999999999999922e-02 4.682725000000000359e-01 4.288299999999999557e+00 4.123704999999999643e+01 1.605434999999999945e+03
4.700000000000000011e-02 4.686865000000000059e-01 5.708019500000000690e+00 4.370054999999999978e+01 1.606005000000000109e+03
4.800000000000000100e-02 4.691710000000000047e-01 7.309488499999999611e+00 4.658350000000000080e+01 1.606695000000000164e+03
4.900000000000000189e-02 4.697195000000000120e-01 9.080686499999998773e+00 4.985119999999999862e+01 1.607494999999999891e+03
5.000000000000000278e-02 4.703245000000000342e-01 1.100178000000000011e+01 5.346079999999999899e+01 1.608389999999999873e+03
5.100000000000000366e-02 4.709754999999999914e-01 1.304558499999999910e+01 5.736084999999999923e+01 1.609369999999999891e+03
5.200000000000000455e-02 4.716624999999999845e-01 1.517907999999999902e+01 6.149259999999999593e+01 1.610420000000000073e+03
5.300000000000000544e-02 4.723735000000000017e-01 1.736639999999999873e+01 6.579250000000000398e+01 1.611525000000000091e+03
5.399999999999999939e-02 4.730969999999999898e-01 1.957135500000000050e+01 7.019629999999999370e+01 1.612670000000000073e+03
5.500000000000000028e-02 4.738239999999999674e-01 2.176054999999999851e+01 7.464329999999999643e+01 1.613845000000000027e+03
5.600000000000000117e-02 4.745460000000000234e-01 2.390514999999999901e+01 7.908025000000000659e+01 1.615025000000000091e+03
5.700000000000000205e-02 4.752569999999999850e-01 2.598250000000000171e+01 8.346410000000000196e+01 1.616204999999999927e+03
5.800000000000000294e-02 4.759545000000000581e-01 2.797649999999999793e+01 8.776390000000000668e+01 1.617380000000000109e+03
5.900000000000000383e-02 4.766354999999999897e-01 2.987729999999999819e+01 9.196155000000000257e+01 1.618534999999999854e+03
6.000000000000000472e-02 4.773005000000000164e-01 3.168080000000000140e+01 9.605035000000000878e+01 1.619670000000000073e+03
6.099999999999999867e-02 4.779519999999999880e-01 3.338709999999999667e+01 1.000329999999999870e+02 1.620779999999999973e+03
6.199999999999999956e-02 4.785909999999999886e-01 3.500025000000000119e+01 1.039215499999999963e+02 1.621869999999999891e+03
6.300000000000000044e-02 4.792220000000000368e-01 3.652625000000000455e+01 1.077325500000000034e+02 1.622945000000000164e+03
6.400000000000000133e-02 4.798464999999999536e-01 3.797270000000000323e+01 1.114865000000000066e+02 1.624005000000000109e+03
6.500000000000000222e-02 4.804699999999999527e-01 3.934754999999999825e+01 1.152040000000000077e+02 1.625054999999999836e+03
6.600000000000000311e-02 4.810935000000000072e-01 4.065850000000000364e+01 1.189039999999999964e+02 1.626099999999999909e+03
6.700000000000000400e-02 4.817204999999999959e-01 4.191185000000000116e+01 1.226034999999999968e+02 1.627144999999999982e+03
6.800000000000000488e-02 4.823505000000000154e-01 4.311204999999999643e+01 1.263129999999999882e+02 1.628194999999999936e+03
6.900000000000000577e-02 4.829849999999999977e-01 4.426109999999999900e+01 1.300355000000000132e+02 1.629240000000000009e+03
7.000000000000000666e-02 4.836219999999999963e-01 4.535835000000000150e+01 1.337694999999999936e+02 1.630289999999999964e+03
7.100000000000000755e-02 4.842589999999999950e-01 4.640019999999999811e+01 1.375040000000000191e+02 1.631349999999999909e+03
7.200000000000000844e-02 4.848930000000000184e-01 4.738074999999999903e+01 1.412220000000000084e+02 1.632394999999999982e+03
7.300000000000000933e-02 4.855190000000000339e-01 4.829194999999999993e+01 1.449004999999999939e+02 1.633440000000000055e+03
7.399999999999999634e-02 4.861324999999999674e-01 4.912454999999999927e+01 1.485120000000000005e+02 1.634460000000000036e+03
7.499999999999999722e-02 4.867289999999999672e-01 4.986870000000000402e+01 1.520260000000000105e+02 1.635469999999999800e+03
7.599999999999999811e-02 4.873020000000000129e-01 5.051474999999999937e+01 1.554139999999999873e+02 1.636440000000000055e+03
7.699999999999999900e-02 4.878489999999999771e-01 5.105409999999999826e+01 1.586460000000000150e+02 1.637375000000000000e+03
7.799999999999999989e-02 4.883644999999999792e-01 5.147955000000000325e+01 1.616965000000000146e+02 1.638269999999999982e+03
7.900000000000000078e-02 4.888449999999999740e-01 5.178555000000000064e+01 1.645430000000000064e+02 1.639105000000000018e+03
8.000000000000000167e-02 4.892889999999999739e-01 5.196894999999999953e+01 1.671684999999999945e+02 1.639884999999999991e+03
8.100000000000000255e-02 4.896945000000000325e-01 5.202844999999999942e+01 1.695615000000000236e+02 1.640610000000000127e+03
8.200000000000000344e-02 4.900600000000000511e-01 5.196535000000000082e+01 1.717155000000000200e+02 1.641264999999999873e+03
8.300000000000000433e-02 4.903875000000000317e-01 5.178294999999999959e+01 1.736304999999999836e+02 1.641860000000000127e+03
8.400000000000000522e-02 4.906765000000000154e-01 5.148685000000000400e+01 1.753100000000000023e+02 1.642389999999999873e+03
8.500000000000000611e-02 4.909284999999999899e-01 5.108460000000000178e+01 1.767644999999999982e+02 1.642855000000000018e+03
8.600000000000000699e-02 4.911465000000000414e-01 5.058570000000000277e+01 1.780070000000000050e+02 1.643264999999999873e+03
8.700000000000000788e-02 4.913334999999999786e-01 5.000110000000000099e+01 1.790554999999999950e+02 1.643615000000000009e+03
8.800000000000000877e-02 4.914930000000000132e-01 4.934315000000000140e+01 1.799295000000000186e+02 1.643914999999999964e+03
8.899999999999999578e-02 4.916280000000000094e-01 4.862510000000000332e+01 1.806529999999999916e+02 1.644164999999999964e+03
8.999999999999999667e-02 4.917435000000000000e-01 4.786074999999999591e+01 1.812489999999999952e+02 1.644380000000000109e+03
9.099999999999999756e-02 4.918425000000000158e-01 4.706385000000000218e+01 1.817425000000000068e+02 1.644554999999999836e+03
9.199999999999999845e-02 4.919290000000000052e-01 4.624765000000000015e+01 1.821564999999999941e+02 1.644710000000000036e+03
9.299999999999999933e-02 4.920069999999999721e-01 4.542439999999999856e+01 1.825130000000000052e+02 1.644845000000000027e+03
9.400000000000000022e-02 4.920789999999999886e-01 4.460490000000000066e+01 1.828329999999999984e+02 1.644954999999999927e+03
9.500000000000000111e-02 4.921474999999999600e-01 4.379800000000000182e+01 1.831310000000000002e+02 1.645059999999999945e+03
9.600000000000000200e-02 4.922144999999999992e-01 4.301054999999999495e+01 1.834209999999999923e+02 1.645159999999999854e+03
9.700000000000000289e-02 4.922800000000000509e-01 4.224699999999999989e+01 1.837110000000000127e+02 1.645250000000000000e+03
9.800000000000000377e-02 4.923459999999999503e-01 4.150945000000000107e+01 1.840054999999999836e+02 1.645340000000000146e+03
9.900000000000000466e-02 4.924110000000000431e-01 4.079784999999999684e+01 1.843040000000000020e+02 1.645430000000000064e+03
1.000000000000000056e-01 4.924744999999999817e-01 4.010999999999999943e+01 1.846024999999999920e+02 1.645519999999999982e+03
1.010000000000000064e-01 4.925350000000000561e-01 3.944214999999999804e+01 1.848940000000000055e+02 1.645599999999999909e+03
1.020000000000000073e-01 4.925915000000000155e-01 3.878920000000000101e+01 1.851694999999999993e+02 1.645679999999999836e+03
1.030000000000000082e-01 4.926405000000000367e-01 3.814504999999999768e+01 1.854170000000000016e+02 1.645750000000000000e+03
1.040000000000000091e-01 4.926814999999999944e-01 3.750310000000000343e+01 1.856239999999999952e+02 1.645815000000000055e+03
1.050000000000000100e-01 4.927114999999999689e-01 3.685665000000000191e+01 1.857775000000000034e+02 1.645859999999999900e+03
1.059999999999999970e-01 4.927290000000000281e-01 3.619944999999999879e+01 1.858669999999999902e+02 1.645890000000000100e+03
1.069999999999999979e-01 4.927335000000000464e-01 3.552580000000000382e+01 1.858810000000000002e+02 1.645900000000000091e+03
1.079999999999999988e-01 4.927225000000000077e-01 3.483089999999999975e+01 1.858114999999999952e+02 1.645894999999999982e+03
1.089999999999999997e-01 4.926955000000000640e-01 3.411129999999999995e+01 1.856529999999999916e+02 1.645865000000000009e+03
1.100000000000000006e-01 4.926525000000000487e-01 3.336500000000000199e+01 1.854025000000000034e+02 1.645804999999999836e+03
1.110000000000000014e-01 4.925939999999999763e-01 3.259159999999999968e+01 1.850600000000000023e+02 1.645730000000000018e+03
1.120000000000000023e-01 4.925205000000000277e-01 3.179220000000000113e+01 1.846289999999999907e+02 1.645625000000000000e+03
1.130000000000000032e-01 4.924344999999999972e-01 3.096985000000000099e+01 1.841170000000000186e+02 1.645494999999999891e+03
1.140000000000000041e-01 4.923365000000000102e-01 3.012884999999999991e+01 1.835329999999999870e+02 1.645349999999999909e+03
1.150000000000000050e-01 4.922290000000000276e-01 2.927510000000000190e+01 1.828899999999999864e+02 1.645184999999999945e+03
1.160000000000000059e-01 4.921155000000000390e-01 2.841559999999999775e+01 1.822019999999999982e+02 1.645009999999999991e+03
1.170000000000000068e-01 4.919979999999999909e-01 2.755830000000000268e+01 1.814850000000000136e+02 1.644820000000000164e+03
1.180000000000000077e-01 4.918789999999999552e-01 2.671154999999999902e+01 1.807570000000000050e+02 1.644625000000000000e+03
1.190000000000000085e-01 4.917624999999999913e-01 2.588405000000000200e+01 1.800339999999999918e+02 1.644429999999999836e+03
1.200000000000000094e-01 4.916509999999999492e-01 2.508425000000000082e+01 1.793344999999999914e+02 1.644240000000000009e+03
1.209999999999999964e-01 4.915464999999999973e-01 2.432029999999999959e+01 1.786739999999999782e+02 1.644054999999999836e+03
1.219999999999999973e-01 4.914520000000000000e-01 2.359919999999999973e+01 1.780660000000000025e+02 1.643880000000000109e+03
1.229999999999999982e-01 4.913679999999999715e-01 2.292694999999999794e+01 1.775229999999999961e+02 1.643720000000000027e+03
1.239999999999999991e-01 4.912975000000000536e-01 2.230829999999999913e+01 1.770525000000000091e+02 1.643585000000000036e+03
1.250000000000000000e-01 4.912400000000000100e-01 2.174624999999999986e+01 1.766624999999999943e+02 1.643465000000000146e+03
1.260000000000000009e-01 4.911959999999999660e-01 2.124239999999999995e+01 1.763550000000000182e+02 1.643360000000000127e+03
1.270000000000000018e-01 4.911655000000000326e-01 2.079650000000000176e+01 1.761290000000000191e+02 1.643279999999999973e+03
1.280000000000000027e-01 4.911474999999999591e-01 2.040704999999999814e+01 1.759814999999999827e+02 1.643220000000000027e+03
1.290000000000000036e-01 4.911404999999999799e-01 2.007085000000000008e+01 1.759064999999999941e+02 1.643179999999999836e+03
1.300000000000000044e-01 4.911435000000000106e-01 1.978375000000000128e+01 1.758950000000000102e+02 1.643160000000000082e+03
1.310000000000000053e-01 4.911545000000000494e-01 1.954050000000000153e+01 1.759375000000000000e+02 1.643154999999999973e+03
1.320000000000000062e-01 4.911710000000000242e-01 1.933530000000000015e+01 1.760224999999999795e+02 1.643159999999999854e+03
1.330000000000000071e-01 4.911920000000000175e-01 1.916205000000000069e+01 1.761374999999999886e+02 1.643180000000000064e+03
1.340000000000000080e-01 4.912155000000000271e-01 1.901454999999999984e+01 1.762719999999999914e+02 1.643204999999999927e+03
1.350000000000000089e-01 4.912389999999999812e-01 1.888669999999999760e+01 1.764145000000000039e+02 1.643230000000000018e+03
1.360000000000000098e-01 4.912615000000000176e-01 1.877305000000000135e+01 1.765554999999999950e+02 1.643264999999999873e+03
1.370000000000000107e-01 4.912819999999999965e-01 1.866850000000000165e+01 1.766864999999999952e+02 1.643289999999999964e+03
1.380000000000000115e-01 4.912990000000000412e-01 1.856900000000000261e+01 1.768009999999999877e+02 1.643319999999999936e+03
1.390000000000000124e-01 4.913129999999999997e-01 1.847100000000000009e+01 1.768944999999999936e+02 1.643339999999999918e+03
1.400000000000000133e-01 4.913224999999999953e-01 1.837199999999999989e+01 1.769635000000000105e+02 1.643355000000000018e+03
1.410000000000000142e-01 4.913270000000000137e-01 1.827025000000000077e+01 1.770084999999999980e+02 1.643369999999999891e+03
1.420000000000000151e-01 4.913290000000000157e-01 1.816474999999999795e+01 1.770289999999999964e+02 1.643380000000000109e+03
1.430000000000000160e-01 4.913264999999999993e-01 1.805530000000000257e+01 1.770275000000000034e+02 1.643380000000000109e+03
1.440000000000000169e-01 4.913220000000000365e-01 1.794215000000000160e+01 1.770070000000000050e+02 1.643369999999999891e+03
1.450000000000000178e-01 4.913149999999999462e-01 1.782610000000000028e+01 1.769714999999999918e+02 1.643365000000000009e+03
1.459999999999999909e-01 4.913069999999999382e-01 1.770834999999999937e+01 1.769259999999999877e+02 1.643355000000000018e+03
1.469999999999999918e-01 4.912980000000000125e-01 1.759025000000000105e+01 1.768745000000000118e+02 1.643340000000000146e+03
1.479999999999999927e-01 4.912894999999999346e-01 1.747344999999999970e+01 1.768220000000000027e+02 1.643325000000000045e+03
1.489999999999999936e-01 4.912819999999999965e-01 1.735940000000000083e+01 1.767730000000000246e+02 1.643315000000000055e+03
1.499999999999999944e-01 4.912755000000000316e-01 1.724949999999999761e+01 1.767314999999999827e+02 1.643305000000000064e+03
1.509999999999999953e-01 4.912714999999999721e-01 1.714509999999999934e+01 1.766999999999999886e+02 1.643295000000000073e+03
1.519999999999999962e-01 4.912699999999999845e-01 1.704720000000000013e+01 1.766810000000000116e+02 1.643289999999999964e+03
1.529999999999999971e-01 4.912704999999999989e-01 1.695655000000000001e+01 1.766765000000000043e+02 1.643289999999999964e+03
1.539999999999999980e-01 4.912735000000000296e-01 1.687349999999999994e+01 1.766870000000000118e+02 1.643289999999999964e+03
1.549999999999999989e-01 4.912784999999999513e-01 1.679810000000000159e+01 1.767115000000000009e+02 1.643295000000000073e+03
1.559999999999999998e-01 4.912865000000000149e-01 1.673010000000000019e+01 1.767500000000000000e+02 1.643299999999999955e+03
1.570000000000000007e-01 4.912959999999999550e-01 1.666890000000000072e+01 1.768000000000000114e+02 1.643315000000000055e+03
1.580000000000000016e-01 4.913070000000000492e-01 1.661370000000000147e+01 1.768589999999999804e+02 1.643324999999999818e+03
1.590000000000000024e-01 4.913184999999999913e-01 1.656354999999999933e+01 1.769254999999999995e+02 1.643344999999999800e+03
