# t [s], A [cm^2], U [cm/s], P [cPa], c [cm/s]
1.000000000000000021e-03 5.683264999999999567e-01 3.849850000000001882e-03 9.342185000000000628e+01 1.555750000000000000e+03
2.000000000000000042e-03 5.683175000000000310e-01 -1.891931000000000125e-03 9.339969999999999573e+01 1.555750000000000000e+03
3.000000000000000062e-03 5.683570000000000011e-01 7.232964999999999534e-02 9.347350000000000136e+01 1.555769999999999982e+03
4.000000000000000083e-03 5.684040000000000203e-01 1.656340000000000034e-01 9.358769999999999811e+01 1.555805000000000064e+03
5.000000000000000104e-03 5.683975000000000000e-01 1.672825000000000006e-01 9.358135000000000048e+01 1.555804999999999836e+03
6.000000000000000125e-03 5.683495000000000630e-01 8.959449999999999359e-02 9.342940000000000111e+01 1.555769999999999982e+03
7.000000000000000146e-03 5.683035000000000725e-01 9.611000000000036181e-03 9.321479999999999677e+01 1.555715000000000146e+03
8.000000000000000167e-03 5.682464999999999877e-01 -9.956950000000003298e-02 9.292234999999999445e+01 1.555639999999999873e+03
9.000000000000001055e-03 5.681469999999999576e-01 -3.000200000000000644e-01 9.247230000000000416e+01 1.555525000000000091e+03
1.000000000000000194e-02 5.679980000000000029e-01 -6.059399999999999231e-01 9.181919999999999504e+01 1.555355000000000018e+03
1.099999999999999936e-02 5.677900000000000169e-01 -1.027835000000000054e+00 9.091990000000001260e+01 1.555125000000000000e+03
1.200000000000000025e-02 5.675095000000000001e-01 -1.581769999999999898e+00 8.972124999999999773e+01 1.554799999999999955e+03
1.300000000000000114e-02 5.671614999999999851e-01 -2.242369999999999752e+00 8.821709999999998786e+01 1.554394999999999982e+03
1.400000000000000203e-02 5.667809999999999793e-01 -2.919494999999999951e+00 8.649280000000000257e+01 1.553920000000000073e+03
1.499999999999999944e-02 5.664184999999999359e-01 -3.490585000000000271e+00 8.470250000000000057e+01 1.553404999999999973e+03
1.600000000000000033e-02 5.661110000000000309e-01 -3.854642000000000568e+00 8.300390000000000157e+01 1.552894999999999982e+03
1.700000000000000122e-02 5.658714999999999717e-01 -3.966905000000000125e+00 8.150024999999999409e+01 1.552414999999999964e+03
1.800000000000000211e-02 5.656864999999999810e-01 -3.842420999999999864e+00 8.021659999999999968e+01 1.551980000000000018e+03
1.900000000000000300e-02 5.655274999999999608e-01 -3.538108999999999948e+00 7.910884999999998968e+01 1.551589999999999918e+03
2.000000000000000042e-02 5.653635000000000188e-01 -3.126395500000000105e+00 7.809155000000001223e+01 1.551215000000000146e+03
2.100000000000000130e-02 5.651709999999999789e-01 -2.670516749999999995e+00 7.707269999999999754e+01 1.550840000000000146e+03
2.200000000000000219e-02 5.649399999999999977e-01 -2.207798499999999997e+00 7.598385000000000389e+01 1.550449999999999818e+03
2.299999999999999961e-02 5.646729999999999805e-01 -1.744739999999999958e+00 7.479734999999999445e+01 1.550034999999999854e+03
2.400000000000000050e-02 5.643850000000000255e-01 -1.264145000000000074e+00 7.352655000000000030e+01 1.549605000000000018e+03
2.500000000000000139e-02 5.640920000000000378e-01 -7.402599999999999181e-01 7.221070000000000277e+01 1.549150000000000091e+03
2.600000000000000228e-02 5.638054999999999595e-01 -1.552950000000001829e-01 7.089345000000000141e+01 1.548704999999999927e+03
2.700000000000000316e-02 5.635299999999999754e-01 4.887399999999999523e-01 6.960169999999999391e+01 1.548255000000000109e+03
2.800000000000000058e-02 5.632580000000000364e-01 1.165739999999999998e+00 6.833344999999999914e+01 1.547809999999999945e+03
2.900000000000000147e-02 5.629750000000000032e-01 1.828845000000000054e+00 6.705490000000000350e+01 1.547360000000000127e+03
3.000000000000000236e-02 5.626625000000000654e-01 2.419385000000000119e+00 6.570770000000000266e+01 1.546894999999999982e+03
3.099999999999999978e-02 5.623015000000000096e-01 2.878969999999999807e+00 6.422254999999999825e+01 1.546400000000000091e+03
3.200000000000000067e-02 5.618790000000000173e-01 3.161795000000000577e+00 6.253730000000000189e+01 1.545855000000000018e+03
3.300000000000000155e-02 5.613920000000000021e-01 3.244525000000000325e+00 6.061365000000000691e+01 1.545244999999999891e+03
3.400000000000000244e-02 5.608474999999999433e-01 3.131139999999999812e+00 5.844934999999999548e+01 1.544574999999999818e+03
3.500000000000000333e-02 5.602614999999999679e-01 2.851844999999999963e+00 5.608270000000000266e+01 1.543849999999999909e+03
3.600000000000000422e-02 5.596585000000000587e-01 2.456475000000000186e+00 5.358774999999999977e+01 1.543089999999999918e+03
3.700000000000000511e-02 5.590649999999999231e-01 2.005034999999999457e+00 5.106340000000000146e+01 1.542309999999999945e+03
3.799999999999999906e-02 5.585080000000000044e-01 1.557825000000000237e+00 4.861925000000000097e+01 1.541549999999999955e+03
3.899999999999999994e-02 5.580079999999999485e-01 1.167705000000000215e+00 4.636149999999999949e+01 1.540835000000000036e+03
4.000000000000000083e-02 5.575824999999999809e-01 8.754199999999996429e-01 4.438185000000000002e+01 1.540184999999999945e+03
4.100000000000000172e-02 5.572409999999999863e-01 7.083000000000003737e-01 4.275130000000000052e+01 1.539625000000000000e+03
4.200000000000000261e-02 5.569899999999999851e-01 6.815400000000002567e-01 4.151720000000000255e+01 1.539184999999999945e+03
4.300000000000000350e-02 5.568305000000000060e-01 8.011399999999999633e-01 4.070489999999999498e+01 1.538855000000000018e+03
4.400000000000000439e-02 5.567610000000000614e-01 1.067512999999999934e+00 4.032169999999999987e+01 1.538659999999999854e+03
4.499999999999999833e-02 5.567794999999999828e-01 1.478849999999999998e+00 4.036169999999999902e+01 1.538590000000000146e+03
4.599999999999999922e-02 5.568824999999999470e-01 2.033471999999999724e+00 4.081149999999999523e+01 1.538650000000000091e+03
4.700000000000000011e-02 5.570669999999999789e-01 2.730813500000000005e+00 4.165364999999999895e+01 1.538829999999999927e+03
4.800000000000000100e-02 5.573299999999999921e-01 3.571072649999999626e+00 4.286945000000000050e+01 1.539125000000000000e+03
4.900000000000000189e-02 5.576689999999999703e-01 4.553826824999999801e+00 4.443900000000000006e+01 1.539539999999999964e+03
5.000000000000000278e-02 5.580800000000000205e-01 5.676256999999999664e+00 4.634044999999999703e+01 1.540065000000000055e+03
5.100000000000000366e-02 5.585569999999999702e-01 6.931543500000000080e+00 4.854860000000000042e+01 1.540684999999999945e+03
5.200000000000000455e-02 5.590939999999999799e-01 8.307760000000000034e+00 5.103329999999999700e+01 1.541394999999999982e+03
5.300000000000000544e-02 5.596809999999999841e-01 9.787845000000000795e+00 5.375889999999999702e+01 1.542195000000000164e+03
5.399999999999999939e-02 5.603095000000000159e-01 1.135024500000000103e+01 5.668439999999999657e+01 1.543059999999999945e+03
5.500000000000000028e-02 5.609674999999999523e-01 1.297023500000000062e+01 5.976494999999999891e+01 1.543985000000000127e+03
5.600000000000000117e-02 5.616455000000000197e-01 1.462169499999999900e+01 6.295354999999999279e+01 1.544954999999999927e+03
5.700000000000000205e-02 5.623329999999999718e-01 1.627893999999999863e+01 6.620390000000000441e+01 1.545949999999999818e+03
5.800000000000000294e-02 5.630205000000000348e-01 1.791835000000000022e+01 6.947284999999999400e+01 1.546970000000000027e+03
5.900000000000000383e-02 5.637020000000000364e-01 1.951975000000000193e+01 7.272270000000000323e+01 1.547994999999999891e+03
6.000000000000000472e-02 5.643709999999999560e-01 2.106719999999999970e+01 7.592314999999999259e+01 1.549009999999999991e+03
6.099999999999999867e-02 5.650245000000000406e-01 2.254910000000000281e+01 7.905205000000000837e+01 1.550014999999999873e+03
6.199999999999999956e-02 5.656605000000000105e-01 2.395844999999999914e+01 8.209584999999999866e+01 1.551009999999999991e+03
6.300000000000000044e-02 5.662795000000000467e-01 2.529194999999999993e+01 8.504890000000000327e+01 1.551974999999999909e+03
6.400000000000000133e-02 5.668819999999999970e-01 2.654980000000000118e+01 8.791290000000000759e+01 1.552920000000000073e+03
6.500000000000000222e-02 5.674710000000000587e-01 2.773449999999999704e+01 9.069499999999999318e+01 1.553849999999999909e+03
6.600000000000000311e-02 5.680484999999999562e-01 2.885034999999999883e+01 9.340684999999999150e+01 1.554755000000000109e+03
6.700000000000000400e-02 5.686180000000000678e-01 2.990254999999999797e+01 9.606154999999999688e+01 1.555639999999999873e+03
6.800000000000000488e-02 5.691819999999999657e-01 3.089659999999999940e+01 9.867324999999999591e+01 1.556519999999999982e+03
6.900000000000000577e-02 5.697434999999999583e-01 3.183764999999999645e+01 1.012563000000000102e+02 1.557389999999999873e+03
7.000000000000000666e-02 5.703035000000000743e-01 3.272990000000000066e+01 1.038218999999999994e+02 1.558244999999999891e+03
7.100000000000000755e-02 5.708640000000000381e-01 3.357644999999999413e+01 1.063777000000000044e+02 1.559105000000000018e+03
7.200000000000000844e-02 5.714245000000000019e-01 3.437874999999999659e+01 1.089275000000000091e+02 1.559960000000000036e+03
7.300000000000000933e-02 5.719845000000000068e-01 3.513660000000000139e+01 1.114715000000000060e+02 1.560815000000000055e+03
7.399999999999999634e-02 5.725424999999999542e-01 3.584810000000000230e+01 1.140030000000000001e+02 1.561659999999999854e+03
7.499999999999999722e-02 5.730954999999999799e-01 3.650974999999999682e+01 1.165144999999999982e+02 1.562505000000000109e+03
7.599999999999999811e-02 5.736400000000000388e-01 3.711684999999999945e+01 1.189904999999999973e+02 1.563340000000000146e+03
7.699999999999999900e-02 5.741730000000000445e-01 3.766380000000000194e+01 1.214155000000000086e+02 1.564155000000000200e+03
7.799999999999999989e-02 5.746894999999999643e-01 3.814455000000000240e+01 1.237709999999999866e+02 1.564954999999999927e+03
7.900000000000000078e-02 5.751855000000000162e-01 3.855310000000000059e+01 1.260374999999999943e+02 1.565730000000000018e+03
8.000000000000000167e-02 5.756580000000000030e-01 3.888380000000000081e+01 1.281974999999999909e+02 1.566474999999999909e+03
8.100000000000000255e-02 5.761020000000000030e-01 3.913170000000000215e+01 1.302309999999999945e+02 1.567179999999999836e+03
8.200000000000000344e-02 5.765149999999999997e-01 3.929290000000000305e+01 1.321239999999999952e+02 1.567845000000000027e+03
8.300000000000000433e-02 5.768944999999999768e-01 3.936480000000000246e+01 1.338629999999999995e+02 1.568460000000000036e+03
8.400000000000000522e-02 5.772390000000000576e-01 3.934609999999999985e+01 1.354375000000000000e+02 1.569025000000000091e+03
8.500000000000000611e-02 5.775474999999999914e-01 3.923699999999999477e+01 1.368419999999999845e+02 1.569539999999999964e+03
8.600000000000000699e-02 5.778189999999999715e-01 3.903920000000000101e+01 1.380729999999999791e+02 1.570000000000000000e+03
8.700000000000000788e-02 5.780540000000000678e-01 3.875580000000000069e+01 1.391315000000000168e+02 1.570400000000000091e+03
8.800000000000000877e-02 5.782540000000000457e-01 3.839135000000000275e+01 1.400210000000000150e+02 1.570750000000000000e+03
8.899999999999999578e-02 5.784194999999999753e-01 3.795159999999999911e+01 1.407489999999999952e+02 1.571045000000000073e+03
8.999999999999999667e-02 5.785540000000000127e-01 3.744364999999999810e+01 1.413249999999999886e+02 1.571285000000000082e+03
9.099999999999999756e-02 5.786599999999999522e-01 3.687555000000000405e+01 1.417609999999999957e+02 1.571485000000000127e+03
9.199999999999999845e-02 5.787400000000000322e-01 3.625625000000000142e+01 1.420715000000000146e+02 1.571639999999999873e+03
9.299999999999999933e-02 5.787965000000000471e-01 3.559510000000000218e+01 1.422719999999999914e+02 1.571750000000000000e+03
9.400000000000000022e-02 5.788345000000000296e-01 3.490185000000000315e+01 1.423795000000000073e+02 1.571829999999999927e+03
9.500000000000000111e-02 5.788575000000000248e-01 3.418650000000000233e+01 1.424100000000000250e+02 1.571880000000000109e+03
9.600000000000000200e-02 5.788679999999999382e-01 3.345839999999999748e+01 1.423810000000000002e+02 1.571904999999999973e+03
9.700000000000000289e-02 5.788694999999999258e-01 3.272650000000000148e+01 1.423084999999999809e+02 1.571909999999999854e+03
9.800000000000000377e-02 5.788649999999999629e-01 3.199885000000000090e+01 1.422060000000000173e+02 1.571900000000000091e+03
9.900000000000000466e-02 5.788564999999999960e-01 3.128224999999999767e+01 1.420869999999999891e+02 1.571880000000000109e+03
1.000000000000000056e-01 5.788470000000000004e-01 3.058210000000000051e+01 1.419610000000000127e+02 1.571855000000000018e+03
1.010000000000000064e-01 5.788370000000000459e-01 2.990245000000000175e+01 1.418365000000000009e+02 1.571824999999999818e+03
1.020000000000000073e-01 5.788269999999999804e-01 2.924549999999999983e+01 1.417180000000000177e+02 1.571789999999999964e+03
1.030000000000000082e-01 5.788185000000000136e-01 2.861204999999999998e+01 1.416084999999999923e+02 1.571759999999999991e+03
1.040000000000000091e-01 5.788094999999999768e-01 2.800139999999999674e+01 1.415054999999999836e+02 1.571724999999999909e+03
1.050000000000000100e-01 5.787995000000000223e-01 2.741145000000000209e+01 1.414085000000000036e+02 1.571694999999999936e+03
1.059999999999999970e-01 5.787889999999999979e-01 2.683915000000000006e+01 1.413109999999999786e+02 1.571664999999999964e+03
1.069999999999999979e-01 5.787740000000000107e-01 2.628049999999999997e+01 1.412069999999999936e+02 1.571625000000000000e+03
1.079999999999999988e-01 5.787545000000000606e-01 2.573085000000000022e+01 1.410889999999999986e+02 1.571590000000000146e+03
1.089999999999999997e-01 5.787280000000000202e-01 2.518544999999999945e+01 1.409484999999999957e+02 1.571539999999999964e+03
1.100000000000000006e-01 5.786940000000000417e-01 2.463940000000000197e+01 1.407775000000000034e+02 1.571485000000000127e+03
1.110000000000000014e-01 5.786495000000000388e-01 2.408800000000000097e+01 1.405679999999999836e+02 1.571420000000000073e+03
1.120000000000000023e-01 5.785945000000000116e-01 2.352720000000000056e+01 1.403134999999999764e+02 1.571335000000000036e+03
1.130000000000000032e-01 5.785270000000000135e-01 2.295340000000000202e+01 1.400080000000000098e+02 1.571244999999999891e+03
1.140000000000000041e-01 5.784475000000000033e-01 2.236390000000000100e+01 1.396479999999999961e+02 1.571134999999999991e+03
1.150000000000000050e-01 5.783540000000000347e-01 2.175710000000000122e+01 1.392314999999999827e+02 1.571005000000000109e+03
1.160000000000000059e-01 5.782490000000000130e-01 2.113239999999999696e+01 1.387584999999999980e+02 1.570860000000000127e+03
1.170000000000000068e-01 5.781319999999999792e-01 2.049019999999999797e+01 1.382305000000000064e+02 1.570699999999999818e+03
1.180000000000000077e-01 5.780045000000000321e-01 1.983214999999999861e+01 1.376525000000000034e+02 1.570519999999999982e+03
1.190000000000000085e-01 5.778669999999999085e-01 1.916104999999999947e+01 1.370294999999999845e+02 1.570324999999999818e+03
1.200000000000000094e-01 5.777229999999999865e-01 1.848055000000000092e+01 1.363695000000000164e+02 1.570119999999999891e+03
1.209999999999999964e-01 5.775730000000000031e-01 1.779520000000000124e+01 1.356825000000000045e+02 1.569904999999999973e+03
1.219999999999999973e-01 5.774215000000000320e-01 1.711039999999999850e+01 1.349795000000000016e+02 1.569684999999999945e+03
1.229999999999999982e-01 5.772690000000000321e-01 1.643185000000000073e+01 1.342704999999999984e+02 1.569460000000000036e+03
1.239999999999999991e-01 5.771195000000000075e-01 1.576575000000000060e+01 1.335695000000000050e+02 1.569230000000000018e+03
1.250000000000000000e-01 5.769744999999999457e-01 1.511830000000000140e+01 1.328870000000000005e+02 1.569009999999999991e+03
1.260000000000000009e-01 5.768375000000000030e-01 1.449544999999999817e+01 1.322344999999999970e+02 1.568795000000000073e+03
1.270000000000000018e-01 5.767105000000000148e-01 1.390291500000000013e+01 1.316235000000000070e+02 1.568590000000000146e+03
1.280000000000000027e-01 5.765945000000000098e-01 1.334573999999999927e+01 1.310629999999999882e+02 1.568400000000000091e+03
1.290000000000000036e-01 5.764920000000000044e-01 1.282825000000000060e+01 1.305614999999999952e+02 1.568224999999999909e+03
1.300000000000000044e-01 5.764035000000000686e-01 1.235364500000000021e+01 1.301239999999999952e+02 1.568070000000000164e+03
1.310000000000000053e-01 5.763304999999999678e-01 1.192439500000000052e+01 1.297560000000000002e+02 1.567934999999999945e+03
1.320000000000000062e-01 5.762724999999999653e-01 1.154161500000000018e+01 1.294594999999999914e+02 1.567825000000000045e+03
1.330000000000000071e-01 5.762295000000000611e-01 1.120544500000000099e+01 1.292334999999999923e+02 1.567730000000000018e+03
1.340000000000000080e-01 5.762005000000000043e-01 1.091495499999999907e+01 1.290765000000000100e+02 1.567660000000000082e+03
1.350000000000000089e-01 5.761855000000000171e-01 1.066825000000000045e+01 1.289850000000000136e+02 1.567610000000000127e+03
1.360000000000000098e-01 5.761825000000000419e-01 1.046255999999999986e+01 1.289524999999999864e+02 1.567579999999999927e+03
1.370000000000000107e-01 5.761899999999999800e-01 1.029437000000000069e+01 1.289724999999999966e+02 1.567565000000000055e+03
1.380000000000000115e-01 5.762059999999999960e-01 1.015964500000000115e+01 1.290374999999999943e+02 1.567569999999999936e+03
1.390000000000000124e-01 5.762289999999999912e-01 1.005408999999999864e+01 1.291399999999999864e+02 1.567585000000000036e+03
1.400000000000000133e-01 5.762574999999999781e-01 9.973134999999999195e+00 1.292694999999999936e+02 1.567610000000000127e+03
1.410000000000000142e-01 5.762890000000000512e-01 9.912224999999999397e+00 1.294194999999999993e+02 1.567644999999999982e+03
1.420000000000000151e-01 5.763225000000000708e-01 9.867000000000000881e+00 1.295815000000000055e+02 1.567684999999999945e+03
1.430000000000000160e-01 5.763570000000000082e-01 9.833254999999999413e+00 1.297475000000000023e+02 1.567730000000000018e+03
1.440000000000000169e-01 5.763905000000000278e-01 9.807244999999999990e+00 1.299124999999999943e+02 1.567775000000000091e+03
1.450000000000000178e-01 5.764215000000000311e-01 9.785614999999999952e+00 1.300705000000000098e+02 1.567820000000000164e+03
1.459999999999999909e-01 5.764504999999999768e-01 9.765575000000000117e+00 1.302175000000000011e+02 1.567860000000000127e+03
1.469999999999999918e-01 5.764765000000000583e-01 9.744695000000000107e+00 1.303505000000000109e+02 1.567900000000000091e+03
1.479999999999999927e-01 5.764989999999999837e-01 9.721289999999999765e+00 1.304669999999999845e+02 1.567940000000000055e+03
1.489999999999999936e-01 5.765175000000000161e-01 9.693944999999999368e+00 1.305670000000000073e+02 1.567970000000000027e+03
1.499999999999999944e-01 5.765335000000000321e-01 9.661950000000000927e+00 1.306500000000000057e+02 1.568000000000000000e+03
1.509999999999999953e-01 5.765454999999999330e-01 9.624814999999999898e+00 1.307169999999999845e+02 1.568025000000000091e+03
1.519999999999999962e-01 5.765550000000000397e-01 9.582570000000000476e+00 1.307685000000000173e+02 1.568039999999999964e+03
1.529999999999999971e-01 5.765624999999999778e-01 9.535629999999999384e+00 1.308084999999999809e+02 1.568054999999999836e+03
1.539999999999999980e-01 5.765675000000000106e-01 9.484580000000001121e+00 1.308375000000000057e+02 1.568065000000000055e+03
1.549999999999999989e-01 5.765719999999999734e-01 9.430270000000000152e+00 1.308584999999999923e+02 1.568079999999999927e+03
1.559999999999999998e-01 5.765755000000000186e-01 9.373630000000000351e+00 1.308745000000000118e+02 1.568085000000000036e+03
1.570000000000000007e-01 5.765784999999999938e-01 9.315749999999999531e+00 1.308874999999999886e+02 1.568095000000000027e+03
1.580000000000000016e-01 5.765815000000000801e-01 9.257715000000001027e+00 1.309010000000000105e+02 1.568099999999999909e+03
1.590000000000000024e-01 5.765860000000000429e-01 9.200514999999999333e+00 1.309155000000000086e+02 1.568105000000000018e+03
