# t [s], A [cm^2], U [cm/s], P [cPa], c [cm/s]
1.000000000000000021e-03 4.666429999999999745e-01 1.832250000000000545e-03 9.982715000000000316e+01 1.495125000000000000e+03
2.000000000000000042e-03 4.666405000000000136e-01 1.081854999999999969e-02 9.980969999999999231e+01 1.495119999999999891e+03
3.000000000000000062e-03 4.666989999999999750e-01 1.455437499999999718e-01 9.994030000000000769e+01 1.495159999999999854e+03
4.000000000000000083e-03 4.667264999999999331e-01 2.179225000000000190e-01 1.000231500000000011e+02 1.495179999999999836e+03
5.000000000000000104e-03 4.666860000000000452e-01 1.404244999999999799e-01 9.988695000000001301e+01 1.495154999999999973e+03
6.000000000000000125e-03 4.666249999999999565e-01 4.832500000000017337e-03 9.958735000000000070e+01 1.495085000000000036e+03
7.000000000000000146e-03 4.665525000000000366e-01 -1.649599999999999955e-01 9.916185000000000116e+01 1.494985000000000127e+03
8.000000000000000167e-03 4.664264999999999661e-01 -4.682899999999998730e-01 9.849370000000000402e+01 1.494819999999999936e+03
9.000000000000001055e-03 4.662344999999999962e-01 -9.282099999999999795e-01 9.750645000000000095e+01 1.494575000000000045e+03
1.000000000000000194e-02 4.659775000000000444e-01 -1.526969999999999938e+00 9.617275000000000773e+01 1.494240000000000009e+03
1.099999999999999936e-02 4.656394999999999840e-01 -2.277114999999999778e+00 9.443935000000000457e+01 1.493789999999999964e+03
1.200000000000000025e-02 4.652155000000000040e-01 -3.165890000000000093e+00 9.227805000000000746e+01 1.493220000000000027e+03
1.300000000000000114e-02 4.647390000000000132e-01 -4.082625000000000171e+00 8.978709999999999525e+01 1.492545000000000073e+03
1.400000000000000203e-02 4.642775000000000096e-01 -4.836390000000000633e+00 8.720664999999999623e+01 1.491815000000000055e+03
1.499999999999999944e-02 4.638940000000000285e-01 -5.246393000000000306e+00 8.482359999999999900e+01 1.491105000000000018e+03
1.600000000000000033e-02 4.636179999999999746e-01 -5.221613999999999756e+00 8.285169999999999391e+01 1.490474999999999909e+03
1.700000000000000122e-02 4.634380000000000166e-01 -4.785364999999999647e+00 8.136010000000000275e+01 1.489945000000000164e+03
1.800000000000000211e-02 4.633140000000000036e-01 -4.051775000000000126e+00 8.026829999999999643e+01 1.489509999999999991e+03
1.900000000000000300e-02 4.631919999999999926e-01 -3.176651500000000183e+00 7.939175000000000182e+01 1.489134999999999991e+03
2.000000000000000042e-02 4.630279999999999951e-01 -2.302973999999999855e+00 7.851454999999999984e+01 1.488769999999999982e+03
2.100000000000000130e-02 4.627974999999999728e-01 -1.518680000000000030e+00 7.746344999999999459e+01 1.488380000000000109e+03
2.200000000000000219e-02 4.625029999999999974e-01 -8.415300000000001113e-01 7.615564999999999429e+01 1.487934999999999945e+03
2.299999999999999961e-02 4.621629999999999905e-01 -2.352500000000001812e-01 7.460294999999999277e+01 1.487424999999999955e+03
2.400000000000000050e-02 4.618025000000000047e-01 3.546650000000002301e-01 7.287815000000000509e+01 1.486875000000000000e+03
2.500000000000000139e-02 4.614399999999999613e-01 9.644500000000002515e-01 7.106465000000000032e+01 1.486295000000000073e+03
2.600000000000000228e-02 4.610790000000000166e-01 1.589409999999999989e+00 6.921269999999999811e+01 1.485695000000000164e+03
2.700000000000000316e-02 4.607075000000000475e-01 2.179574999999999818e+00 6.731555000000000177e+01 1.485079999999999927e+03
2.800000000000000058e-02 4.603039999999999909e-01 2.650964999999999794e+00 6.530819999999999936e+01 1.484429999999999836e+03
2.900000000000000147e-02 4.598399999999999710e-01 2.906625000000000014e+00 6.308594999999999686e+01 1.483724999999999909e+03
3.000000000000000236e-02 4.592935000000000212e-01 2.861324999999999896e+00 6.053504999999999825e+01 1.482934999999999945e+03
3.099999999999999978e-02 4.586510000000000309e-01 2.463630000000000209e+00 5.756794999999999618e+01 1.482054999999999836e+03
3.200000000000000067e-02 4.579149999999999610e-01 1.710704999999999920e+00 5.415380000000000393e+01 1.481049999999999955e+03
3.300000000000000155e-02 4.571050000000000391e-01 6.511500000000003396e-01 5.033610000000000184e+01 1.479944999999999936e+03
3.400000000000000244e-02 4.562530000000000197e-01 -6.229500000000003368e-01 4.623274999999999579e+01 1.478750000000000000e+03
3.500000000000000333e-02 4.554000000000000270e-01 -1.992350000000000065e+00 4.202065000000000339e+01 1.477514999999999873e+03
3.600000000000000422e-02 4.545899999999999941e-01 -3.329649999999999999e+00 3.791105000000000302e+01 1.476284999999999854e+03
3.700000000000000511e-02 4.538625000000000576e-01 -4.516394999999999271e+00 3.412049999999999983e+01 1.475125000000000000e+03
3.799999999999999906e-02 4.532505000000000006e-01 -5.454895000000000493e+00 3.084604999999999819e+01 1.474079999999999927e+03
3.899999999999999994e-02 4.527784999999999727e-01 -6.074467999999999535e+00 2.824620000000000175e+01 1.473210000000000036e+03
4.000000000000000083e-02 4.524599999999999733e-01 -6.331999999999999851e+00 2.643074999999999974e+01 1.472539999999999964e+03
4.100000000000000172e-02 4.523015000000000230e-01 -6.209070000000000533e+00 2.545819999999999794e+01 1.472099999999999909e+03
4.200000000000000261e-02 4.523000000000000353e-01 -5.706419999999999604e+00 2.533979999999999677e+01 1.471894999999999982e+03
4.300000000000000350e-02 4.524495000000000045e-01 -4.838205000000000311e+00 2.604860000000000042e+01 1.471940000000000055e+03
4.400000000000000439e-02 4.527379999999999738e-01 -3.627185000000000326e+00 2.752920000000000300e+01 1.472214999999999918e+03
4.499999999999999833e-02 4.531525000000000136e-01 -2.101589999999999847e+00 2.970734999999999815e+01 1.472704999999999927e+03
4.599999999999999922e-02 4.536775000000000113e-01 -2.940550000000001774e-01 3.249765000000000015e+01 1.473394999999999982e+03
4.700000000000000011e-02 4.542964999999999920e-01 1.758100000000000218e+00 3.580725000000000335e+01 1.474250000000000000e+03
4.800000000000000100e-02 4.549925000000000219e-01 4.011945000000000761e+00 3.953875000000000028e+01 1.475250000000000000e+03
4.900000000000000189e-02 4.557455000000000256e-01 6.418324999999999392e+00 4.359055000000000035e+01 1.476369999999999891e+03
5.000000000000000278e-02 4.565369999999999706e-01 8.922264999999999446e+00 4.785814999999999486e+01 1.477579999999999927e+03
5.100000000000000366e-02 4.573455000000000159e-01 1.146476199999999857e+01 5.223584999999999923e+01 1.478840000000000146e+03
5.200000000000000455e-02 4.581520000000000037e-01 1.398543000000000092e+01 5.661950000000000216e+01 1.480130000000000109e+03
5.300000000000000544e-02 4.589374999999999982e-01 1.642594000000000065e+01 6.091109999999999758e+01 1.481420000000000073e+03
5.399999999999999939e-02 4.596864999999999979e-01 1.873359500000000111e+01 6.502309999999999945e+01 1.482684999999999945e+03
5.500000000000000028e-02 4.603865000000000318e-01 2.086455000000000126e+01 6.888304999999999723e+01 1.483889999999999873e+03
5.600000000000000117e-02 4.610289999999999666e-01 2.278610000000000113e+01 7.243774999999999409e+01 1.485025000000000091e+03
5.700000000000000205e-02 4.616095000000000059e-01 2.447794999999999987e+01 7.565500000000000114e+01 1.486079999999999927e+03
5.800000000000000294e-02 4.621284999999999976e-01 2.593240000000000123e+01 7.852510000000000900e+01 1.487045000000000073e+03
5.900000000000000383e-02 4.625884999999999581e-01 2.715344999999999942e+01 8.105944999999999823e+01 1.487914999999999964e+03
6.000000000000000472e-02 4.629980000000000206e-01 2.815549999999999997e+01 8.328815000000000168e+01 1.488704999999999927e+03
6.099999999999999867e-02 4.633639999999999981e-01 2.896124999999999972e+01 8.525659999999999172e+01 1.489414999999999964e+03
6.199999999999999956e-02 4.636995000000000422e-01 2.959915000000000163e+01 8.702109999999998990e+01 1.490055000000000064e+03
6.300000000000000044e-02 4.640144999999999964e-01 3.010215000000000174e+01 8.864480000000000359e+01 1.490654999999999973e+03
6.400000000000000133e-02 4.643220000000000125e-01 3.050515000000000043e+01 9.019339999999999691e+01 1.491220000000000027e+03
6.500000000000000222e-02 4.646325000000000038e-01 3.084375000000000000e+01 9.173199999999999932e+01 1.491769999999999982e+03
6.600000000000000311e-02 4.649575000000000236e-01 3.115299999999999869e+01 9.332179999999999609e+01 1.492325000000000045e+03
6.700000000000000400e-02 4.653059999999999974e-01 3.146574999999999989e+01 9.501765000000000327e+01 1.492900000000000091e+03
6.800000000000000488e-02 4.656860000000000444e-01 3.181134999999999735e+01 9.686580000000000723e+01 1.493509999999999991e+03
6.900000000000000577e-02 4.661045000000000327e-01 3.221464999999999890e+01 9.890209999999999013e+01 1.494170000000000073e+03
7.000000000000000666e-02 4.665635000000000199e-01 3.269415000000000049e+01 1.011505500000000097e+02 1.494884999999999991e+03
7.100000000000000755e-02 4.670655000000000223e-01 3.326125000000000398e+01 1.036204999999999927e+02 1.495660000000000082e+03
7.200000000000000844e-02 4.676085000000000380e-01 3.391919999999999646e+01 1.063075000000000045e+02 1.496490000000000009e+03
7.300000000000000933e-02 4.681870000000000198e-01 3.466284999999999883e+01 1.091920000000000073e+02 1.497380000000000109e+03
7.399999999999999634e-02 4.687949999999999617e-01 3.547879999999999967e+01 1.122409999999999997e+02 1.498324999999999818e+03
7.499999999999999722e-02 4.694220000000000059e-01 3.634609999999999985e+01 1.154060000000000059e+02 1.499300000000000182e+03
7.599999999999999811e-02 4.700564999999999882e-01 3.723794999999999789e+01 1.186320000000000050e+02 1.500304999999999836e+03
7.699999999999999900e-02 4.706865000000000077e-01 3.812330000000000041e+01 1.218524999999999920e+02 1.501320000000000164e+03
7.799999999999999989e-02 4.712989999999999680e-01 3.896849999999999881e+01 1.250000000000000000e+02 1.502315000000000055e+03
7.900000000000000078e-02 4.718800000000000217e-01 3.973985000000000412e+01 1.280065000000000168e+02 1.503279999999999973e+03
8.000000000000000167e-02 4.724194999999999922e-01 4.040545000000000186e+01 1.308075000000000045e+02 1.504200000000000045e+03
8.100000000000000255e-02 4.729059999999999930e-01 4.093675000000000352e+01 1.333445000000000107e+02 1.505045000000000073e+03
8.200000000000000344e-02 4.733324999999999894e-01 4.131010000000000559e+01 1.355715000000000146e+02 1.505804999999999836e+03
8.300000000000000433e-02 4.736920000000000019e-01 4.150794999999999391e+01 1.374535000000000196e+02 1.506474999999999909e+03
8.400000000000000522e-02 4.739820000000000144e-01 4.151930000000000121e+01 1.389685000000000059e+02 1.507034999999999854e+03
8.500000000000000611e-02 4.742014999999999425e-01 4.134005000000000507e+01 1.401090000000000089e+02 1.507489999999999782e+03
8.600000000000000699e-02 4.743525000000000102e-01 4.097294999999999732e+01 1.408810000000000002e+02 1.507829999999999927e+03
8.700000000000000788e-02 4.744390000000000551e-01 4.042719999999999914e+01 1.413029999999999973e+02 1.508059999999999945e+03
8.800000000000000877e-02 4.744669999999999721e-01 3.971774999999999523e+01 1.414050000000000011e+02 1.508195000000000164e+03
8.899999999999999578e-02 4.744440000000000324e-01 3.886455000000000126e+01 1.412264999999999873e+02 1.508235000000000127e+03
8.999999999999999667e-02 4.743779999999999664e-01 3.789159999999999684e+01 1.408129999999999882e+02 1.508195000000000164e+03
9.099999999999999756e-02 4.742794999999999650e-01 3.682569999999999766e+01 1.402155000000000200e+02 1.508089999999999918e+03
9.199999999999999845e-02 4.741585000000000383e-01 3.569539999999999935e+01 1.394875000000000114e+02 1.507934999999999945e+03
9.299999999999999933e-02 4.740240000000000009e-01 3.452984999999999616e+01 1.386814999999999998e+02 1.507740000000000009e+03
9.400000000000000022e-02 4.738860000000000294e-01 3.335779999999999745e+01 1.378489999999999895e+02 1.507529999999999973e+03
9.500000000000000111e-02 4.737525000000000208e-01 3.220595000000000141e+01 1.370380000000000109e+02 1.507309999999999945e+03
9.600000000000000200e-02 4.736314999999999831e-01 3.109864999999999924e+01 1.362884999999999991e+02 1.507095000000000027e+03
9.700000000000000289e-02 4.735285000000000188e-01 3.005640000000000356e+01 1.356360000000000241e+02 1.506900000000000091e+03
9.800000000000000377e-02 4.734484999999999943e-01 2.909564999999999912e+01 1.351050000000000182e+02 1.506730000000000018e+03
9.900000000000000466e-02 4.733939999999999815e-01 2.822794999999999987e+01 1.347139999999999986e+02 1.506599999999999909e+03
1.000000000000000056e-01 4.733659999999999535e-01 2.745965000000000344e+01 1.344699999999999989e+02 1.506505000000000109e+03
1.010000000000000064e-01 4.733644999999999659e-01 2.679209999999999781e+01 1.343720000000000141e+02 1.506445000000000164e+03
1.020000000000000073e-01 4.733865000000000434e-01 2.622180000000000177e+01 1.344110000000000014e+02 1.506430000000000064e+03
1.030000000000000082e-01 4.734284999999999743e-01 2.574074999999999847e+01 1.345690000000000168e+02 1.506445000000000164e+03
1.040000000000000091e-01 4.734865000000000324e-01 2.533705000000000140e+01 1.348224999999999909e+02 1.506494999999999891e+03
1.050000000000000100e-01 4.735539999999999750e-01 2.499575000000000102e+01 1.351419999999999959e+02 1.506565000000000055e+03
1.059999999999999970e-01 4.736255000000000326e-01 2.469964999999999833e+01 1.354964999999999975e+02 1.506654999999999973e+03
1.069999999999999979e-01 4.736949999999999772e-01 2.443010000000000304e+01 1.358514999999999873e+02 1.506740000000000009e+03
1.079999999999999988e-01 4.737554999999999961e-01 2.416814999999999714e+01 1.361730000000000018e+02 1.506824999999999818e+03
1.089999999999999997e-01 4.738014999999999866e-01 2.389535000000000053e+01 1.364284999999999854e+02 1.506900000000000091e+03
1.100000000000000006e-01 4.738274999999999570e-01 2.359450000000000003e+01 1.365889999999999986e+02 1.506950000000000045e+03
1.110000000000000014e-01 4.738295000000000146e-01 2.325050000000000239e+01 1.366295000000000073e+02 1.506965000000000146e+03
1.120000000000000023e-01 4.738040000000000029e-01 2.285115000000000052e+01 1.365305000000000177e+02 1.506950000000000045e+03
1.130000000000000032e-01 4.737485000000000168e-01 2.238725000000000165e+01 1.362780000000000200e+02 1.506884999999999991e+03
1.140000000000000041e-01 4.736630000000000007e-01 2.185320000000000107e+01 1.358659999999999854e+02 1.506784999999999854e+03
1.150000000000000050e-01 4.735470000000000512e-01 2.124725000000000108e+01 1.352944999999999993e+02 1.506630000000000109e+03
1.160000000000000059e-01 4.734025000000000594e-01 2.057140000000000057e+01 1.345699999999999932e+02 1.506429999999999836e+03
1.170000000000000068e-01 4.732330000000000148e-01 1.983135000000000048e+01 1.337054999999999723e+02 1.506190000000000055e+03
1.180000000000000077e-01 4.730409999999999893e-01 1.903609999999999758e+01 1.327199999999999989e+02 1.505910000000000082e+03
1.190000000000000085e-01 4.728329999999999478e-01 1.819764999999999944e+01 1.316374999999999886e+02 1.505599999999999909e+03
1.200000000000000094e-01 4.726124999999999909e-01 1.733044999999999902e+01 1.304859999999999900e+02 1.505259999999999991e+03
1.209999999999999964e-01 4.723865000000000425e-01 1.645089999999999719e+01 1.292944999999999993e+02 1.504909999999999854e+03
1.219999999999999973e-01 4.721604999999999830e-01 1.557642500000000041e+01 1.280969999999999800e+02 1.504545000000000073e+03
1.229999999999999982e-01 4.719409999999999439e-01 1.472478500000000068e+01 1.269240000000000066e+02 1.504184999999999945e+03
1.239999999999999991e-01 4.717334999999999723e-01 1.391340999999999894e+01 1.258059999999999974e+02 1.503839999999999918e+03
1.250000000000000000e-01 4.715435000000000043e-01 1.315869999999999962e+01 1.247724999999999937e+02 1.503505000000000109e+03
1.260000000000000009e-01 4.713744999999999741e-01 1.247508999999999979e+01 1.238479999999999990e+02 1.503204999999999927e+03
1.270000000000000018e-01 4.712304999999999966e-01 1.187471000000000032e+01 1.230529999999999973e+02 1.502934999999999945e+03
1.280000000000000027e-01 4.711144999999999916e-01 1.136688999999999972e+01 1.224029999999999916e+02 1.502704999999999927e+03
1.290000000000000036e-01 4.710275000000000434e-01 1.095766000000000062e+01 1.219064999999999941e+02 1.502510000000000218e+03
1.300000000000000044e-01 4.709704999999999586e-01 1.064994500000000066e+01 1.215685000000000002e+02 1.502369999999999891e+03
1.310000000000000053e-01 4.709415000000000129e-01 1.044301500000000082e+01 1.213864999999999981e+02 1.502269999999999982e+03
1.320000000000000062e-01 4.709400000000000253e-01 1.033323500000000017e+01 1.213515000000000015e+02 1.502219999999999800e+03
1.330000000000000071e-01 4.709624999999999506e-01 1.031380000000000052e+01 1.214530000000000030e+02 1.502210000000000036e+03
1.340000000000000080e-01 4.710069999999999535e-01 1.037542000000000009e+01 1.216730000000000018e+02 1.502235000000000127e+03
1.350000000000000089e-01 4.710685000000000011e-01 1.050675999999999988e+01 1.219909999999999997e+02 1.502299999999999955e+03
1.360000000000000098e-01 4.711420000000000052e-01 1.069484999999999886e+01 1.223855000000000075e+02 1.502384999999999991e+03
1.370000000000000107e-01 4.712244999999999906e-01 1.092585000000000051e+01 1.228319999999999936e+02 1.502490000000000009e+03
1.380000000000000115e-01 4.713109999999999800e-01 1.118524999999999991e+01 1.233075000000000045e+02 1.502615000000000009e+03
1.390000000000000124e-01 4.713975000000000248e-01 1.145889999999999986e+01 1.237890000000000015e+02 1.502744999999999891e+03
1.400000000000000133e-01 4.714794999999999958e-01 1.173314999999999841e+01 1.242530000000000001e+02 1.502875000000000000e+03
1.410000000000000142e-01 4.715539999999999732e-01 1.199549999999999983e+01 1.246825000000000045e+02 1.503000000000000000e+03
1.420000000000000151e-01 4.716179999999999817e-01 1.223499999999999943e+01 1.250604999999999905e+02 1.503110000000000127e+03
1.430000000000000160e-01 4.716700000000000337e-01 1.244245000000000090e+01 1.253735000000000070e+02 1.503210000000000036e+03
1.440000000000000169e-01 4.717075000000000573e-01 1.261064999999999969e+01 1.256134999999999877e+02 1.503289999999999964e+03
1.450000000000000178e-01 4.717310000000000114e-01 1.273470000000000013e+01 1.257750000000000057e+02 1.503349999999999909e+03
1.459999999999999909e-01 4.717394999999999783e-01 1.281165000000000020e+01 1.258569999999999993e+02 1.503389999999999873e+03
1.469999999999999918e-01 4.717339999999999867e-01 1.284100000000000108e+01 1.258605000000000018e+02 1.503404999999999973e+03
1.479999999999999927e-01 4.717149999999999954e-01 1.282410000000000139e+01 1.257909999999999968e+02 1.503400000000000091e+03
1.489999999999999936e-01 4.716850000000000209e-01 1.276420000000000066e+01 1.256580000000000013e+02 1.503375000000000000e+03
1.499999999999999944e-01 4.716465000000000241e-01 1.266619999999999990e+01 1.254705000000000013e+02 1.503335000000000036e+03
1.509999999999999953e-01 4.716004999999999781e-01 1.253627499999999984e+01 1.252409999999999997e+02 1.503279999999999973e+03
1.519999999999999962e-01 4.715504999999999836e-01 1.238145000000000095e+01 1.249825000000000017e+02 1.503210000000000036e+03
1.529999999999999971e-01 4.714985000000000426e-01 1.220947500000000119e+01 1.247100000000000080e+02 1.503139999999999873e+03
1.539999999999999980e-01 4.714470000000000605e-01 1.202829499999999996e+01 1.244354999999999905e+02 1.503065000000000055e+03
1.549999999999999989e-01 4.713990000000000125e-01 1.184577499999999972e+01 1.241724999999999994e+02 1.502994999999999891e+03
1.559999999999999998e-01 4.713559999999999972e-01 1.166935499999999948e+01 1.239325000000000045e+02 1.502920000000000073e+03
1.570000000000000007e-01 4.713200000000000167e-01 1.150572999999999979e+01 1.237255000000000109e+02 1.502855000000000018e+03
1.580000000000000016e-01 4.712915000000000298e-01 1.136052499999999910e+01 1.235594999999999999e+02 1.502805000000000064e+03
1.590000000000000024e-01 4.712729999999999975e-01 1.123832999999999949e+01 1.234399999999999977e+02 1.502765000000000100e+03
