# t [s], A [cm^2], U [cm/s], P [cPa], c [cm/s]
1.000000000000000021e-03 1.448329999999999895e-01 2.271064999999999889e-01 1.022941500000000019e+02 1.987849999999999909e+03
2.000000000000000042e-03 1.448094999999999799e-01 1.637959500000000013e+00 9.938060000000000116e+01 1.987589999999999918e+03
3.000000000000000062e-03 1.447229999999999905e-01 3.407111000000000001e+00 9.545744999999999436e+01 1.986679999999999836e+03
4.000000000000000083e-03 1.445934999999999859e-01 5.388650850000000325e+00 9.098009999999999309e+01 1.985355000000000018e+03
5.000000000000000104e-03 1.444440000000000168e-01 7.527140000000000164e+00 8.667879999999999541e+01 1.983829999999999927e+03
6.000000000000000125e-03 1.442915000000000170e-01 9.718070000000000874e+00 8.296529999999999916e+01 1.982300000000000182e+03
7.000000000000000146e-03 1.441449999999999954e-01 1.180133999999999972e+01 7.983270000000000266e+01 1.980840000000000146e+03
8.000000000000000167e-03 1.440064999999999817e-01 1.365041500000000063e+01 7.707640000000000668e+01 1.979480000000000018e+03
9.000000000000001055e-03 1.438790000000000069e-01 1.523962999999999823e+01 7.460694999999999766e+01 1.978255000000000109e+03
1.000000000000000194e-02 1.437654999999999905e-01 1.659564999999999912e+01 7.247254999999999825e+01 1.977174999999999955e+03
1.099999999999999936e-02 1.436684999999999768e-01 1.773975000000000080e+01 7.070955000000000723e+01 1.976255000000000109e+03
1.200000000000000025e-02 1.435865000000000058e-01 1.868244999999999933e+01 6.929654999999999632e+01 1.975494999999999891e+03
1.300000000000000114e-02 1.435194999999999943e-01 1.942950000000000088e+01 6.817725000000000080e+01 1.974880000000000109e+03
1.400000000000000203e-02 1.434644999999999948e-01 1.998225000000000051e+01 6.726804999999998813e+01 1.974380000000000109e+03
1.499999999999999944e-02 1.434190000000000187e-01 2.035024999999999906e+01 6.648494999999999777e+01 1.973974999999999909e+03
1.600000000000000033e-02 1.433809999999999807e-01 2.057574999999999932e+01 6.581289999999999907e+01 1.973639999999999873e+03
1.700000000000000122e-02 1.433524999999999938e-01 2.074125000000000085e+01 6.535935000000000628e+01 1.973394999999999982e+03
1.800000000000000211e-02 1.433359999999999912e-01 2.094744999999999990e+01 6.532640000000000668e+01 1.973269999999999982e+03
1.900000000000000300e-02 1.433375000000000066e-01 2.127259999999999707e+01 6.590865000000000862e+01 1.973295000000000073e+03
2.000000000000000042e-02 1.433590000000000142e-01 2.174060000000000059e+01 6.718250000000000455e+01 1.973500000000000000e+03
2.100000000000000130e-02 1.433999999999999997e-01 2.231309999999999860e+01 6.904855000000000587e+01 1.973894999999999982e+03
2.200000000000000219e-02 1.434555000000000136e-01 2.290630000000000166e+01 7.125190000000000623e+01 1.974429999999999836e+03
2.299999999999999961e-02 1.435179999999999789e-01 2.342194999999999894e+01 7.346014999999999873e+01 1.975025000000000091e+03
2.400000000000000050e-02 1.435799999999999854e-01 2.377834999999999965e+01 7.536144999999999072e+01 1.975625000000000000e+03
2.500000000000000139e-02 1.436340000000000117e-01 2.393120000000000047e+01 7.674510000000000787e+01 1.976154999999999973e+03
2.600000000000000228e-02 1.436755000000000115e-01 2.387989999999999924e+01 7.754089999999999350e+01 1.976575000000000045e+03
2.700000000000000316e-02 1.437034999999999840e-01 2.365954999999999941e+01 7.781239999999999668e+01 1.976860000000000127e+03
2.800000000000000058e-02 1.437195000000000000e-01 2.332359999999999900e+01 7.771160000000000423e+01 1.977029999999999973e+03
2.900000000000000147e-02 1.437269999999999937e-01 2.292419999999999902e+01 7.741700000000000159e+01 1.977115000000000009e+03
3.000000000000000236e-02 1.437284999999999813e-01 2.249714999999999776e+01 7.707450000000000045e+01 1.977139999999999873e+03
3.099999999999999978e-02 1.437275000000000080e-01 2.205470000000000041e+01 7.676159999999998718e+01 1.977139999999999873e+03
3.200000000000000067e-02 1.437245000000000050e-01 2.158765000000000001e+01 7.647899999999999920e+01 1.977115000000000009e+03
3.300000000000000155e-02 1.437195000000000000e-01 2.107414999999999949e+01 7.616955000000000098e+01 1.977069999999999936e+03
3.400000000000000244e-02 1.437114999999999920e-01 2.049224999999999852e+01 7.575325000000000841e+01 1.977000000000000000e+03
3.500000000000000333e-02 1.436985000000000068e-01 1.983140000000000214e+01 7.516615000000000180e+01 1.976875000000000000e+03
3.600000000000000422e-02 1.436800000000000022e-01 1.910024999999999906e+01 7.439265000000000327e+01 1.976710000000000036e+03
3.700000000000000511e-02 1.436564999999999925e-01 1.832884999999999920e+01 7.348019999999999641e+01 1.976494999999999891e+03
3.799999999999999906e-02 1.436304999999999943e-01 1.756425000000000125e+01 7.253579999999999472e+01 1.976250000000000000e+03
3.899999999999999994e-02 1.436045000000000238e-01 1.686124999999999829e+01 7.170345000000000368e+01 1.976009999999999991e+03
4.000000000000000083e-02 1.435830000000000162e-01 1.627130000000000010e+01 7.113145000000000095e+01 1.975799999999999955e+03
4.100000000000000172e-02 1.435690000000000022e-01 1.583139999999999858e+01 7.093725000000000591e+01 1.975664999999999964e+03
4.200000000000000261e-02 1.435655000000000125e-01 1.555710000000000193e+01 7.118070000000000164e+01 1.975625000000000000e+03
4.300000000000000350e-02 1.435740000000000072e-01 1.543979999999999997e+01 7.185054999999999836e+01 1.975694999999999936e+03
4.400000000000000439e-02 1.435934999999999850e-01 1.544950000000000045e+01 7.286684999999999945e+01 1.975869999999999891e+03
4.499999999999999833e-02 1.436219999999999997e-01 1.554049999999999976e+01 7.409735000000000582e+01 1.976130000000000109e+03
4.599999999999999922e-02 1.436560000000000059e-01 1.565984999999999872e+01 7.538159999999999172e+01 1.976440000000000055e+03
4.700000000000000011e-02 1.436910000000000132e-01 1.575544999999999973e+01 7.655760000000000787e+01 1.976765000000000100e+03
4.800000000000000100e-02 1.437235000000000040e-01 1.578229999999999933e+01 7.748529999999999518e+01 1.977070000000000164e+03
4.900000000000000189e-02 1.437485000000000013e-01 1.570710000000000051e+01 7.806235000000000923e+01 1.977320000000000164e+03
5.000000000000000278e-02 1.437649999999999761e-01 1.550969999999999871e+01 7.823134999999999195e+01 1.977474999999999909e+03
5.100000000000000366e-02 1.437700000000000089e-01 1.518230000000000146e+01 7.797880000000000678e+01 1.977534999999999854e+03
5.200000000000000455e-02 1.437634999999999885e-01 1.472724999999999973e+01 7.732724999999999227e+01 1.977480000000000018e+03
5.300000000000000544e-02 1.437459999999999849e-01 1.415419999999999945e+01 7.632415000000000305e+01 1.977315000000000055e+03
5.399999999999999939e-02 1.437185000000000268e-01 1.347695000000000043e+01 7.503024999999999523e+01 1.977054999999999836e+03
5.500000000000000028e-02 1.436810000000000032e-01 1.271124999999999972e+01 7.350979999999999848e+01 1.976704999999999927e+03
5.600000000000000117e-02 1.436360000000000137e-01 1.187380999999999887e+01 7.182399999999999807e+01 1.976289999999999964e+03
5.700000000000000205e-02 1.435855000000000048e-01 1.098166000000000153e+01 7.002864999999999895e+01 1.975804999999999836e+03
5.800000000000000294e-02 1.435305000000000053e-01 1.005284999999999940e+01 6.817445000000000732e+01 1.975289999999999964e+03
5.900000000000000383e-02 1.434725000000000028e-01 9.106999999999999318e+00 6.630984999999999729e+01 1.974744999999999891e+03
6.000000000000000472e-02 1.434139999999999859e-01 8.166109999999999758e+00 6.448414999999999964e+01 1.974184999999999945e+03
6.099999999999999867e-02 1.433559999999999834e-01 7.254929999999999879e+00 6.275070000000000192e+01 1.973630000000000109e+03
6.199999999999999956e-02 1.432999999999999829e-01 6.401089999999999947e+00 6.116814999999999714e+01 1.973095000000000027e+03
6.300000000000000044e-02 1.432485000000000008e-01 5.634215000000000195e+00 5.980039999999999623e+01 1.972599999999999909e+03
6.400000000000000133e-02 1.432035000000000113e-01 4.984905000000000364e+00 5.871470000000000056e+01 1.972170000000000073e+03
6.500000000000000222e-02 1.431669999999999887e-01 4.483155000000000001e+00 5.797794999999999987e+01 1.971815000000000055e+03
6.600000000000000311e-02 1.431414999999999771e-01 4.156670000000000087e+00 5.765269999999999584e+01 1.971559999999999945e+03
6.700000000000000400e-02 1.431279999999999775e-01 4.029194999999999638e+00 5.779240000000000066e+01 1.971425000000000182e+03
6.800000000000000488e-02 1.431294999999999928e-01 4.119060000000000166e+00 5.843755000000000166e+01 1.971425000000000182e+03
6.900000000000000577e-02 1.431469999999999965e-01 4.438124999999999432e+00 5.961274999999999835e+01 1.971575000000000045e+03
7.000000000000000666e-02 1.431800000000000017e-01 4.991144999999999499e+00 6.132479999999999620e+01 1.971869999999999891e+03
7.100000000000000755e-02 1.432304999999999828e-01 5.775685000000000180e+00 6.356240000000000379e+01 1.972329999999999927e+03
7.200000000000000844e-02 1.432970000000000077e-01 6.782375000000000043e+00 6.629744999999999777e+01 1.972954999999999927e+03
7.300000000000000933e-02 1.433800000000000074e-01 7.995689999999999742e+00 6.948699999999999477e+01 1.973730000000000018e+03
7.399999999999999634e-02 1.434779999999999944e-01 9.395009999999999195e+00 7.307644999999999413e+01 1.974639999999999873e+03
7.499999999999999722e-02 1.435885000000000078e-01 1.095570500000000003e+01 7.700315000000000509e+01 1.975684999999999945e+03
7.599999999999999811e-02 1.437110000000000054e-01 1.265077499999999944e+01 8.120029999999999859e+01 1.976845000000000027e+03
7.699999999999999900e-02 1.438429999999999986e-01 1.445185000000000031e+01 8.560079999999999245e+01 1.978095000000000027e+03
7.799999999999999989e-02 1.439825000000000133e-01 1.633099999999999952e+01 9.014074999999999704e+01 1.979420000000000073e+03
7.900000000000000078e-02 1.441279999999999784e-01 1.826129999999999853e+01 9.476245000000000118e+01 1.980804999999999836e+03
8.000000000000000167e-02 1.442769999999999886e-01 2.021835000000000093e+01 9.941679999999999495e+01 1.982235000000000127e+03
8.100000000000000255e-02 1.444285000000000152e-01 2.218064999999999998e+01 1.040636999999999972e+02 1.983690000000000055e+03
8.200000000000000344e-02 1.445810000000000151e-01 2.412969999999999970e+01 1.086744999999999948e+02 1.985160000000000082e+03
8.300000000000000433e-02 1.447340000000000015e-01 2.605069999999999908e+01 1.132280000000000086e+02 1.986630000000000109e+03
8.400000000000000522e-02 1.448855000000000004e-01 2.793169999999999931e+01 1.177144999999999868e+02 1.988105000000000018e+03
8.500000000000000611e-02 1.450365000000000126e-01 2.976375000000000171e+01 1.221280000000000143e+02 1.989569999999999936e+03
8.600000000000000699e-02 1.451859999999999817e-01 3.154005000000000081e+01 1.264689999999999941e+02 1.991019999999999982e+03
8.700000000000000788e-02 1.453335000000000043e-01 3.325540000000000163e+01 1.307404999999999973e+02 1.992464999999999918e+03
8.800000000000000877e-02 1.454794999999999838e-01 3.490579999999999927e+01 1.349435000000000002e+02 1.993884999999999991e+03
8.899999999999999578e-02 1.456230000000000024e-01 3.648775000000000546e+01 1.390810000000000173e+02 1.995299999999999955e+03
8.999999999999999667e-02 1.457654999999999923e-01 3.799804999999999922e+01 1.431519999999999868e+02 1.996694999999999936e+03
9.099999999999999756e-02 1.459059999999999802e-01 3.943339999999999890e+01 1.471525000000000034e+02 1.998069999999999936e+03
9.199999999999999845e-02 1.460440000000000071e-01 4.079035000000000366e+01 1.510765000000000100e+02 1.999429999999999836e+03
9.299999999999999933e-02 1.461795000000000178e-01 4.206520000000000437e+01 1.549139999999999873e+02 2.000759999999999991e+03
9.400000000000000022e-02 1.463125000000000120e-01 4.325395000000000323e+01 1.586524999999999750e+02 2.002075000000000045e+03
9.500000000000000111e-02 1.464425000000000032e-01 4.435280000000000200e+01 1.622785000000000082e+02 2.003355000000000018e+03
9.600000000000000200e-02 1.465684999999999905e-01 4.535745000000000005e+01 1.657779999999999916e+02 2.004610000000000127e+03
9.700000000000000289e-02 1.466910000000000158e-01 4.626399999999999579e+01 1.691345000000000027e+02 2.005819999999999936e+03
9.800000000000000377e-02 1.468085000000000084e-01 4.706855000000000189e+01 1.723335000000000150e+02 2.006990000000000009e+03
9.900000000000000466e-02 1.469209999999999960e-01 4.776749999999999829e+01 1.753590000000000089e+02 2.008109999999999900e+03
1.000000000000000056e-01 1.470279999999999920e-01 4.835755000000000337e+01 1.781980000000000075e+02 2.009174999999999955e+03
1.010000000000000064e-01 1.471294999999999964e-01 4.883579999999999899e+01 1.808379999999999939e+02 2.010184999999999945e+03
1.020000000000000073e-01 1.472239999999999938e-01 4.919984999999999786e+01 1.832659999999999911e+02 2.011130000000000109e+03
1.030000000000000082e-01 1.473114999999999841e-01 4.944800000000000040e+01 1.854735000000000014e+02 2.012009999999999991e+03
1.040000000000000091e-01 1.473924999999999819e-01 4.957920000000000016e+01 1.874515000000000100e+02 2.012819999999999936e+03
1.050000000000000100e-01 1.474654999999999994e-01 4.959355000000000047e+01 1.891945000000000050e+02 2.013554999999999836e+03
1.059999999999999970e-01 1.475305000000000089e-01 4.949200000000000443e+01 1.906995000000000005e+02 2.014214999999999918e+03
1.069999999999999979e-01 1.475885000000000113e-01 4.927689999999999770e+01 1.919664999999999964e+02 2.014795000000000073e+03
1.079999999999999988e-01 1.476379999999999915e-01 4.895194999999999652e+01 1.930000000000000000e+02 2.015299999999999955e+03
1.089999999999999997e-01 1.476800000000000057e-01 4.852219999999999800e+01 1.938059999999999832e+02 2.015724999999999909e+03
1.100000000000000006e-01 1.477144999999999986e-01 4.799419999999999931e+01 1.943954999999999984e+02 2.016079999999999927e+03
1.110000000000000014e-01 1.477414999999999978e-01 4.737570000000000192e+01 1.947824999999999989e+02 2.016360000000000127e+03
1.120000000000000023e-01 1.477614999999999901e-01 4.667560000000000286e+01 1.949830000000000041e+02 2.016569999999999936e+03
1.130000000000000032e-01 1.477755000000000041e-01 4.590395000000000181e+01 1.950180000000000007e+02 2.016720000000000027e+03
1.140000000000000041e-01 1.477839999999999987e-01 4.507119999999999749e+01 1.949064999999999941e+02 2.016809999999999945e+03
1.150000000000000050e-01 1.477864999999999873e-01 4.418834999999999980e+01 1.946715000000000089e+02 2.016845000000000027e+03
1.160000000000000059e-01 1.477849999999999997e-01 4.326635000000000275e+01 1.943340000000000032e+02 2.016835000000000036e+03
1.170000000000000068e-01 1.477795000000000081e-01 4.231579999999999586e+01 1.939150000000000205e+02 2.016789999999999964e+03
1.180000000000000077e-01 1.477709999999999857e-01 4.134675000000000011e+01 1.934345000000000141e+02 2.016710000000000036e+03
1.190000000000000085e-01 1.477594999999999881e-01 4.036854999999999905e+01 1.929085000000000036e+02 2.016599999999999909e+03
1.200000000000000094e-01 1.477459999999999885e-01 3.938935000000000031e+01 1.923530000000000086e+02 2.016470000000000027e+03
1.209999999999999964e-01 1.477315000000000156e-01 3.841604999999999848e+01 1.917789999999999964e+02 2.016324999999999818e+03
1.219999999999999973e-01 1.477154999999999996e-01 3.745445000000000135e+01 1.911959999999999980e+02 2.016170000000000073e+03
1.229999999999999982e-01 1.476979999999999960e-01 3.650874999999999915e+01 1.906100000000000136e+02 2.016000000000000000e+03
1.239999999999999991e-01 1.476810000000000067e-01 3.558190000000000452e+01 1.900229999999999961e+02 2.015829999999999927e+03
1.250000000000000000e-01 1.476629999999999887e-01 3.467555000000000121e+01 1.894359999999999786e+02 2.015644999999999982e+03
1.260000000000000009e-01 1.476445000000000118e-01 3.378999999999999915e+01 1.888455000000000155e+02 2.015465000000000146e+03
1.270000000000000018e-01 1.476254999999999928e-01 3.292454999999999643e+01 1.882484999999999786e+02 2.015275000000000091e+03
1.280000000000000027e-01 1.476060000000000150e-01 3.207734999999999559e+01 1.876380000000000052e+02 2.015079999999999927e+03
1.290000000000000036e-01 1.475865000000000093e-01 3.124589999999999890e+01 1.870070000000000050e+02 2.014875000000000000e+03
1.300000000000000044e-01 1.475654999999999883e-01 3.042704999999999771e+01 1.863464999999999918e+02 2.014670000000000073e+03
1.310000000000000053e-01 1.475434999999999941e-01 2.961719999999999686e+01 1.856485000000000127e+02 2.014450000000000045e+03
1.320000000000000062e-01 1.475199999999999845e-01 2.881255000000000166e+01 1.849039999999999964e+02 2.014220000000000027e+03
1.330000000000000071e-01 1.474955000000000016e-01 2.800935000000000130e+01 1.841045000000000016e+02 2.013970000000000027e+03
1.340000000000000080e-01 1.474685000000000024e-01 2.720405000000000229e+01 1.832434999999999832e+02 2.013704999999999927e+03
1.350000000000000089e-01 1.474400000000000155e-01 2.639349999999999952e+01 1.823149999999999977e+02 2.013420000000000073e+03
1.360000000000000098e-01 1.474090000000000122e-01 2.557509999999999906e+01 1.813145000000000095e+02 2.013115000000000009e+03
1.370000000000000107e-01 1.473760000000000070e-01 2.474715000000000131e+01 1.802404999999999973e+02 2.012785000000000082e+03
1.380000000000000115e-01 1.473404999999999854e-01 2.390854999999999819e+01 1.790919999999999845e+02 2.012429999999999836e+03
1.390000000000000124e-01 1.473025000000000029e-01 2.305949999999999989e+01 1.778729999999999905e+02 2.012055000000000064e+03
1.400000000000000133e-01 1.472620000000000040e-01 2.220090000000000074e+01 1.765865000000000009e+02 2.011659999999999854e+03
1.410000000000000142e-01 1.472199999999999898e-01 2.133485000000000298e+01 1.752415000000000020e+02 2.011239999999999782e+03
1.420000000000000151e-01 1.471755000000000146e-01 2.046450000000000102e+01 1.738469999999999800e+02 2.010805000000000064e+03
1.430000000000000160e-01 1.471299999999999830e-01 1.959384999999999977e+01 1.724149999999999920e+02 2.010349999999999909e+03
1.440000000000000169e-01 1.470819999999999905e-01 1.872760000000000247e+01 1.709579999999999984e+02 2.009884999999999991e+03
1.450000000000000178e-01 1.470339999999999980e-01 1.787115000000000009e+01 1.694904999999999973e+02 2.009404999999999973e+03
1.459999999999999909e-01 1.469854999999999912e-01 1.703024999999999878e+01 1.680280000000000200e+02 2.008929999999999836e+03
1.469999999999999918e-01 1.469364999999999977e-01 1.621090000000000231e+01 1.665865000000000009e+02 2.008445000000000164e+03
1.479999999999999927e-01 1.468885000000000052e-01 1.541890000000000072e+01 1.651794999999999902e+02 2.007965000000000146e+03
1.489999999999999936e-01 1.468409999999999993e-01 1.466005000000000003e+01 1.638215000000000146e+02 2.007500000000000000e+03
1.499999999999999944e-01 1.467950000000000088e-01 1.393925000000000125e+01 1.625244999999999891e+02 2.007045000000000073e+03
1.509999999999999953e-01 1.467510000000000203e-01 1.326110000000000078e+01 1.612990000000000066e+02 2.006605000000000018e+03
1.519999999999999962e-01 1.467089999999999783e-01 1.262904999999999944e+01 1.601525000000000034e+02 2.006190000000000055e+03
1.529999999999999971e-01 1.466695000000000082e-01 1.204595499999999930e+01 1.590914999999999964e+02 2.005789999999999964e+03
1.539999999999999980e-01 1.466319999999999846e-01 1.151342999999999961e+01 1.581189999999999998e+02 2.005425000000000182e+03
1.549999999999999989e-01 1.465974999999999917e-01 1.103214999999999968e+01 1.572355000000000018e+02 2.005079999999999927e+03
1.559999999999999998e-01 1.465660000000000018e-01 1.060190500000000036e+01 1.564404999999999859e+02 2.004765000000000100e+03
1.570000000000000007e-01 1.465370000000000006e-01 1.022155000000000058e+01 1.557300000000000182e+02 2.004474999999999909e+03
1.580000000000000016e-01 1.465110000000000023e-01 9.889195000000000846e+00 1.550989999999999895e+02 2.004210000000000036e+03
1.590000000000000024e-01 1.464869999999999783e-01 9.602199999999999847e+00 1.545420000000000016e+02 2.003969999999999800e+03
