# t [s], A [cm^2], U [cm/s], P [cPa], c [cm/s]
1.000000000000000021e-03 6.369115000000000748e-01 5.226700000000000790e-03 9.340934999999998922e+01 1.651239999999999782e+03
2.000000000000000042e-03 6.369005000000000916e-01 -4.414775000000000123e-03 9.338329999999999131e+01 1.651235000000000127e+03
3.000000000000000062e-03 6.369344999999999590e-01 5.412299999999999750e-02 9.344599999999999795e+01 1.651244999999999891e+03
4.000000000000000083e-03 6.369860000000000522e-01 1.499437000000000131e-01 9.356980000000000075e+01 1.651280000000000200e+03
5.000000000000000104e-03 6.369865000000000110e-01 1.686449999999999894e-01 9.358520000000000039e+01 1.651285000000000082e+03
6.000000000000000125e-03 6.369354999999999878e-01 9.775749999999999718e-02 9.344084999999999752e+01 1.651255000000000109e+03
7.000000000000000146e-03 6.368890000000000384e-01 2.984450000000005154e-02 9.324340000000000828e+01 1.651204999999999927e+03
8.000000000000000167e-03 6.368419999999999082e-01 -4.648599999999997179e-02 9.300045000000000073e+01 1.651144999999999982e+03
9.000000000000001055e-03 6.367579999999999352e-01 -2.005629999999999358e-01 9.262770000000000437e+01 1.651059999999999945e+03
1.000000000000000194e-02 6.366270000000000540e-01 -4.532700000000000617e-01 9.207614999999999839e+01 1.650934999999999945e+03
1.099999999999999936e-02 6.364404999999999646e-01 -8.191649999999999210e-01 9.129945000000000732e+01 1.650755000000000109e+03
1.200000000000000025e-02 6.361809999999999965e-01 -1.319909999999999695e+00 9.023619999999999663e+01 1.650505000000000109e+03
1.300000000000000114e-02 6.358544999999999892e-01 -1.933219999999999938e+00 8.887614999999999554e+01 1.650180000000000064e+03
1.400000000000000203e-02 6.354999999999999538e-01 -2.568785000000000096e+00 8.730750000000000455e+01 1.649800000000000182e+03
1.499999999999999944e-02 6.351685000000000247e-01 -3.106585500000000444e+00 8.568465000000000487e+01 1.649389999999999873e+03
1.600000000000000033e-02 6.348959999999999049e-01 -3.454261500000000318e+00 8.415290000000000248e+01 1.648985000000000127e+03
1.700000000000000122e-02 6.346864999999999313e-01 -3.578384499999999857e+00 8.279234999999999900e+01 1.648605000000000018e+03
1.800000000000000211e-02 6.345210000000000017e-01 -3.501567000000000096e+00 8.160370000000000346e+01 1.648259999999999991e+03
1.900000000000000300e-02 6.343665000000000553e-01 -3.279607500000000009e+00 8.052785000000000082e+01 1.647930000000000064e+03
2.000000000000000042e-02 6.341950000000000642e-01 -2.974328500000000375e+00 7.948029999999999973e+01 1.647599999999999909e+03
2.100000000000000130e-02 6.339869999999999672e-01 -2.632055999999999951e+00 7.838535000000000252e+01 1.647264999999999873e+03
2.200000000000000219e-02 6.337395000000000111e-01 -2.272433499999999995e+00 7.720019999999999527e+01 1.646909999999999854e+03
2.299999999999999961e-02 6.334619999999999695e-01 -1.888644999999999907e+00 7.592359999999999332e+01 1.646529999999999973e+03
2.400000000000000050e-02 6.331729999999999858e-01 -1.457454999999999945e+00 7.458865000000000123e+01 1.646134999999999991e+03
2.500000000000000139e-02 6.328880000000000061e-01 -9.544100000000002026e-01 7.324399999999999977e+01 1.645735000000000127e+03
2.600000000000000228e-02 6.326165000000000260e-01 -3.682600000000000318e-01 7.193164999999999054e+01 1.645335000000000036e+03
2.700000000000000316e-02 6.323594999999999633e-01 2.901649999999997842e-01 7.066899999999999693e+01 1.644950000000000045e+03
2.800000000000000058e-02 6.321045000000000691e-01 9.866349999999999287e-01 6.944055000000000177e+01 1.644565000000000055e+03
2.900000000000000147e-02 6.318340000000000067e-01 1.669059999999999988e+00 6.819995000000000118e+01 1.644184999999999945e+03
3.000000000000000236e-02 6.315275000000000194e-01 2.277849999999999930e+00 6.688079999999999359e+01 1.643784999999999854e+03
3.099999999999999978e-02 6.311674999999999924e-01 2.758470000000000422e+00 6.541370000000000573e+01 1.643359999999999900e+03
3.200000000000000067e-02 6.307445000000000412e-01 3.073220000000000063e+00 6.374490000000000123e+01 1.642884999999999991e+03
3.300000000000000155e-02 6.302615000000000300e-01 3.209220000000000184e+00 6.185205000000000553e+01 1.642360000000000127e+03
3.400000000000000244e-02 6.297304999999999708e-01 3.180344999999999978e+00 5.975249999999999773e+01 1.641795000000000073e+03
3.500000000000000333e-02 6.291735000000000522e-01 3.022754999999999637e+00 5.750184999999999746e+01 1.641184999999999945e+03
3.600000000000000422e-02 6.286160000000000636e-01 2.785820000000000185e+00 5.518404999999999916e+01 1.640554999999999836e+03
3.700000000000000511e-02 6.280835000000000168e-01 2.521540000000000337e+00 5.289650000000000318e+01 1.639930000000000064e+03
3.799999999999999906e-02 6.275965000000000016e-01 2.275845000000000340e+00 5.073510000000000275e+01 1.639329999999999927e+03
3.899999999999999994e-02 6.271704999999999641e-01 2.083569999999999922e+00 4.878265000000000384e+01 1.638780000000000200e+03
4.000000000000000083e-02 6.268139999999999823e-01 1.966774999999999718e+00 4.710195000000000221e+01 1.638289999999999964e+03
4.100000000000000172e-02 6.265304999999999902e-01 1.936485000000000012e+00 4.573425000000000296e+01 1.637880000000000109e+03
4.200000000000000261e-02 6.263210000000000166e-01 1.996180000000000065e+00 4.470154999999999745e+01 1.637550000000000182e+03
4.300000000000000350e-02 6.261829999999999341e-01 2.145966500000000110e+00 4.401139999999999475e+01 1.637309999999999945e+03
4.400000000000000439e-02 6.261160000000000059e-01 2.386289000000000105e+00 4.366315000000000168e+01 1.637164999999999964e+03
4.499999999999999833e-02 6.261189999999999811e-01 2.720369999999999955e+00 4.365269999999999584e+01 1.637115000000000009e+03
4.599999999999999922e-02 6.261924999999999297e-01 3.155014999999999681e+00 4.397684999999999889e+01 1.637150000000000091e+03
4.700000000000000011e-02 6.263385000000000202e-01 3.699715000000000309e+00 4.463405000000000200e+01 1.637285000000000082e+03
4.800000000000000100e-02 6.265579999999999483e-01 4.364594999999999558e+00 4.562409999999999854e+01 1.637500000000000000e+03
4.900000000000000189e-02 6.268515000000000059e-01 5.157779999999999809e+00 4.694530000000000314e+01 1.637815000000000055e+03
5.000000000000000278e-02 6.272174999999999834e-01 6.083050000000000068e+00 4.859165000000000134e+01 1.638224999999999909e+03
5.100000000000000366e-02 6.276524999999999466e-01 7.138119999999999798e+00 5.055030000000000001e+01 1.638715000000000146e+03
5.200000000000000455e-02 6.281505000000000560e-01 8.314225000000000421e+00 5.279989999999999384e+01 1.639284999999999854e+03
5.300000000000000544e-02 6.287024999999999419e-01 9.596355000000000857e+00 5.531024999999999636e+01 1.639934999999999945e+03
5.399999999999999939e-02 6.292995000000000116e-01 1.096484500000000040e+01 5.804359999999999786e+01 1.640650000000000091e+03
5.500000000000000028e-02 6.299299999999999899e-01 1.239698999999999884e+01 6.095680000000000121e+01 1.641414999999999964e+03
5.600000000000000117e-02 6.305840000000000334e-01 1.386922500000000014e+01 6.400435000000000230e+01 1.642235000000000127e+03
5.700000000000000205e-02 6.312519999999999243e-01 1.535889500000000041e+01 6.714135000000000275e+01 1.643079999999999927e+03
5.800000000000000294e-02 6.319250000000000700e-01 1.684588000000000108e+01 7.032654999999999745e+01 1.643945000000000164e+03
5.900000000000000383e-02 6.325975000000000348e-01 1.831354999999999933e+01 7.352449999999998909e+01 1.644829999999999927e+03
6.000000000000000472e-02 6.332645000000000080e-01 1.974900000000000233e+01 7.670714999999999861e+01 1.645720000000000027e+03
6.099999999999999867e-02 6.339224999999999444e-01 2.114320000000000022e+01 7.985409999999998831e+01 1.646605000000000018e+03
6.199999999999999956e-02 6.345714999999999550e-01 2.249050000000000082e+01 8.295269999999999300e+01 1.647480000000000018e+03
6.300000000000000044e-02 6.352100000000000524e-01 2.378780000000000072e+01 8.599664999999998827e+01 1.648345000000000027e+03
6.400000000000000133e-02 6.358390000000000430e-01 2.503399999999999892e+01 8.898555000000000348e+01 1.649204999999999927e+03
6.500000000000000222e-02 6.364604999999999846e-01 2.622914999999999708e+01 9.192135000000000389e+01 1.650049999999999955e+03
6.600000000000000311e-02 6.370750000000000579e-01 2.737395000000000067e+01 9.481075000000001296e+01 1.650880000000000109e+03
6.700000000000000400e-02 6.376829999999999998e-01 2.846890000000000143e+01 9.765879999999999939e+01 1.651699999999999818e+03
6.800000000000000488e-02 6.382870000000000488e-01 2.951429999999999865e+01 1.004703999999999979e+02 1.652519999999999982e+03
6.900000000000000577e-02 6.388854999999999951e-01 3.050945000000000107e+01 1.032500500000000017e+02 1.653329999999999927e+03
7.000000000000000666e-02 6.394794999999999785e-01 3.145280000000000342e+01 1.059980999999999938e+02 1.654125000000000000e+03
7.100000000000000755e-02 6.400664999999999827e-01 3.234194999999999709e+01 1.087119999999999891e+02 1.654920000000000073e+03
7.200000000000000844e-02 6.406454999999999789e-01 3.317334999999999923e+01 1.113875000000000028e+02 1.655700000000000045e+03
7.300000000000000933e-02 6.412145000000000206e-01 3.394299999999999784e+01 1.140155000000000030e+02 1.656469999999999800e+03
7.399999999999999634e-02 6.417699999999999516e-01 3.464659999999999940e+01 1.165859999999999985e+02 1.657224999999999909e+03
7.499999999999999722e-02 6.423099999999999365e-01 3.527974999999999994e+01 1.190875000000000057e+02 1.657960000000000036e+03
7.599999999999999811e-02 6.428315000000000001e-01 3.583865000000000123e+01 1.215060000000000002e+02 1.658679999999999836e+03
7.699999999999999900e-02 6.433320000000000149e-01 3.631990000000000407e+01 1.238305000000000007e+02 1.659375000000000000e+03
7.799999999999999989e-02 6.438095000000000345e-01 3.672119999999999607e+01 1.260490000000000066e+02 1.660035000000000082e+03
7.900000000000000078e-02 6.442620000000000013e-01 3.704104999999999848e+01 1.281514999999999986e+02 1.660670000000000073e+03
8.000000000000000167e-02 6.446870000000000100e-01 3.727890000000000015e+01 1.301295000000000073e+02 1.661269999999999982e+03
8.100000000000000255e-02 6.450850000000000195e-01 3.743515000000000015e+01 1.319759999999999991e+02 1.661835000000000036e+03
8.200000000000000344e-02 6.454545000000000421e-01 3.751075000000000159e+01 1.336875000000000000e+02 1.662360000000000127e+03
8.300000000000000433e-02 6.457950000000000079e-01 3.750724999999999909e+01 1.352599999999999909e+02 1.662849999999999909e+03
8.400000000000000522e-02 6.461054999999999993e-01 3.742690000000000339e+01 1.366929999999999836e+02 1.663295000000000073e+03
8.500000000000000611e-02 6.463870000000000449e-01 3.727224999999999966e+01 1.379850000000000136e+02 1.663710000000000036e+03
8.600000000000000699e-02 6.466389999999999638e-01 3.704670000000000130e+01 1.391390000000000100e+02 1.664075000000000045e+03
8.700000000000000788e-02 6.468635000000000357e-01 3.675390000000000157e+01 1.401569999999999823e+02 1.664409999999999854e+03
8.800000000000000877e-02 6.470599999999999685e-01 3.639875000000000682e+01 1.410439999999999827e+02 1.664700000000000045e+03
8.899999999999999578e-02 6.472305000000000419e-01 3.598649999999999949e+01 1.418054999999999950e+02 1.664954999999999927e+03
8.999999999999999667e-02 6.473769999999999802e-01 3.552339999999999520e+01 1.424499999999999886e+02 1.665174999999999955e+03
9.099999999999999756e-02 6.475014999999999521e-01 3.501635000000000275e+01 1.429870000000000232e+02 1.665364999999999782e+03
9.199999999999999845e-02 6.476055000000000561e-01 3.447279999999999944e+01 1.434259999999999877e+02 1.665525000000000091e+03
9.299999999999999933e-02 6.476925000000000043e-01 3.390059999999999718e+01 1.437800000000000011e+02 1.665654999999999973e+03
9.400000000000000022e-02 6.477654999999999941e-01 3.330760000000000076e+01 1.440604999999999905e+02 1.665759999999999991e+03
9.500000000000000111e-02 6.478260000000000129e-01 3.270125000000000171e+01 1.442804999999999893e+02 1.665845000000000027e+03
9.600000000000000200e-02 6.478764999999999663e-01 3.208859999999999957e+01 1.444505000000000052e+02 1.665914999999999964e+03
9.700000000000000289e-02 6.479200000000000514e-01 3.147560000000000002e+01 1.445819999999999936e+02 1.665970000000000027e+03
9.800000000000000377e-02 6.479570000000000052e-01 3.086734999999999829e+01 1.446835000000000093e+02 1.666014999999999873e+03
9.900000000000000466e-02 6.479894999999999960e-01 3.026740000000000208e+01 1.447629999999999768e+02 1.666049999999999955e+03
1.000000000000000056e-01 6.480175000000000241e-01 2.967834999999999823e+01 1.448245000000000005e+02 1.666079999999999927e+03
1.010000000000000064e-01 6.480420000000000069e-01 2.910130000000000194e+01 1.448720000000000141e+02 1.666099999999999909e+03
1.020000000000000073e-01 6.480624999999999858e-01 2.853614999999999924e+01 1.449050000000000011e+02 1.666115000000000009e+03
1.030000000000000082e-01 6.480779999999999319e-01 2.798195000000000121e+01 1.449230000000000018e+02 1.666125000000000000e+03
1.040000000000000091e-01 6.480879999999999974e-01 2.743674999999999997e+01 1.449234999999999900e+02 1.666130000000000109e+03
1.050000000000000100e-01 6.480920000000000014e-01 2.689825000000000088e+01 1.449019999999999868e+02 1.666125000000000000e+03
1.059999999999999970e-01 6.480885000000000673e-01 2.636345000000000027e+01 1.448539999999999850e+02 1.666115000000000009e+03
1.069999999999999979e-01 6.480770000000000142e-01 2.582929999999999993e+01 1.447750000000000057e+02 1.666095000000000027e+03
1.079999999999999988e-01 6.480555000000000065e-01 2.529265000000000185e+01 1.446589999999999918e+02 1.666065000000000055e+03
1.089999999999999997e-01 6.480234999999999745e-01 2.475065000000000026e+01 1.445020000000000095e+02 1.666019999999999982e+03
1.100000000000000006e-01 6.479809999999999182e-01 2.420049999999999812e+01 1.443000000000000114e+02 1.665969999999999800e+03
1.110000000000000014e-01 6.479270000000000307e-01 2.364010000000000034e+01 1.440500000000000114e+02 1.665904999999999973e+03
1.120000000000000023e-01 6.478615000000000901e-01 2.306790000000000163e+01 1.437495000000000118e+02 1.665824999999999818e+03
1.130000000000000032e-01 6.477839999999999154e-01 2.248295000000000243e+01 1.433994999999999891e+02 1.665735000000000127e+03
1.140000000000000041e-01 6.476954999999999796e-01 2.188514999999999944e+01 1.430000000000000000e+02 1.665625000000000000e+03
1.150000000000000050e-01 6.475975000000000481e-01 2.127524999999999977e+01 1.425540000000000020e+02 1.665505000000000109e+03
1.160000000000000059e-01 6.474900000000000100e-01 2.065484999999999971e+01 1.420670000000000073e+02 1.665369999999999891e+03
1.170000000000000068e-01 6.473759999999999515e-01 2.002645000000000053e+01 1.415434999999999945e+02 1.665235000000000127e+03
1.180000000000000077e-01 6.472554999999999836e-01 1.939329999999999998e+01 1.409920000000000186e+02 1.665079999999999927e+03
1.190000000000000085e-01 6.471314999999999706e-01 1.875919999999999987e+01 1.404205000000000041e+02 1.664920000000000073e+03
1.200000000000000094e-01 6.470065000000000399e-01 1.812865000000000038e+01 1.398385000000000105e+02 1.664759999999999991e+03
1.209999999999999964e-01 6.468825000000000269e-01 1.750665000000000049e+01 1.392570000000000050e+02 1.664599999999999909e+03
1.219999999999999973e-01 6.467620000000000591e-01 1.689809999999999945e+01 1.386859999999999786e+02 1.664434999999999945e+03
1.229999999999999982e-01 6.466469999999999718e-01 1.630805000000000149e+01 1.381365000000000123e+02 1.664280000000000200e+03
1.239999999999999991e-01 6.465395000000000447e-01 1.574145000000000039e+01 1.376175000000000068e+02 1.664125000000000000e+03
1.250000000000000000e-01 6.464419999999999611e-01 1.520274999999999821e+01 1.371394999999999982e+02 1.663985000000000127e+03
1.260000000000000009e-01 6.463554999999999717e-01 1.469585000000000008e+01 1.367090000000000032e+02 1.663860000000000127e+03
1.270000000000000018e-01 6.462814999999999532e-01 1.422390000000000043e+01 1.363340000000000032e+02 1.663744999999999891e+03
1.280000000000000027e-01 6.462204999999999755e-01 1.378934999999999889e+01 1.360185000000000173e+02 1.663639999999999873e+03
1.290000000000000036e-01 6.461730000000001084e-01 1.339365000000000094e+01 1.357649999999999864e+02 1.663559999999999945e+03
1.300000000000000044e-01 6.461394999999999778e-01 1.303725000000000023e+01 1.355760000000000218e+02 1.663490000000000009e+03
1.310000000000000053e-01 6.461189999999999989e-01 1.271984999999999921e+01 1.354484999999999957e+02 1.663440000000000055e+03
1.320000000000000062e-01 6.461109999999999909e-01 1.244020000000000081e+01 1.353820000000000050e+02 1.663410000000000082e+03
1.330000000000000071e-01 6.461140000000000772e-01 1.219640000000000057e+01 1.353710000000000093e+02 1.663394999999999982e+03
1.340000000000000080e-01 6.461280000000000356e-01 1.198584999999999923e+01 1.354110000000000014e+02 1.663389999999999873e+03
1.350000000000000089e-01 6.461500000000000021e-01 1.180550000000000033e+01 1.354945000000000164e+02 1.663400000000000091e+03
1.360000000000000098e-01 6.461790000000000589e-01 1.165215000000000067e+01 1.356165000000000020e+02 1.663424999999999955e+03
1.370000000000000107e-01 6.462145000000000250e-01 1.152229999999999954e+01 1.357690000000000055e+02 1.663454999999999927e+03
1.380000000000000115e-01 6.462535000000000363e-01 1.141244999999999976e+01 1.359440000000000168e+02 1.663494999999999891e+03
1.390000000000000124e-01 6.462954999999999117e-01 1.131929999999999836e+01 1.361370000000000005e+02 1.663545000000000073e+03
1.400000000000000133e-01 6.463389999999999969e-01 1.123975000000000080e+01 1.363400000000000034e+02 1.663590000000000146e+03
1.410000000000000142e-01 6.463834999999999997e-01 1.117084999999999972e+01 1.365490000000000066e+02 1.663644999999999982e+03
1.420000000000000151e-01 6.464275000000000437e-01 1.111011500000000041e+01 1.367584999999999980e+02 1.663699999999999818e+03
1.430000000000000160e-01 6.464710000000000178e-01 1.105524499999999932e+01 1.369654999999999916e+02 1.663755000000000109e+03
1.440000000000000169e-01 6.465130000000000043e-01 1.100436000000000014e+01 1.371675000000000182e+02 1.663809999999999945e+03
1.450000000000000178e-01 6.465535000000000032e-01 1.095589999999999975e+01 1.373620000000000232e+02 1.663865000000000009e+03
1.459999999999999909e-01 6.465924999999999034e-01 1.090861500000000106e+01 1.375475000000000136e+02 1.663914999999999964e+03
1.469999999999999918e-01 6.466290000000000093e-01 1.086146499999999904e+01 1.377235000000000014e+02 1.663965000000000146e+03
1.479999999999999927e-01 6.466639999999999056e-01 1.081381999999999977e+01 1.378899999999999864e+02 1.664009999999999991e+03
1.489999999999999936e-01 6.466970000000000773e-01 1.076515999999999984e+01 1.380480000000000018e+02 1.664059999999999945e+03
1.499999999999999944e-01 6.467285000000000394e-01 1.071531000000000056e+01 1.381970000000000027e+02 1.664105000000000018e+03
1.509999999999999953e-01 6.467585000000000139e-01 1.066418499999999980e+01 1.383385000000000105e+02 1.664144999999999982e+03
1.519999999999999962e-01 6.467880000000000296e-01 1.061193000000000097e+01 1.384739999999999895e+02 1.664184999999999945e+03
1.529999999999999971e-01 6.468165000000000164e-01 1.055884000000000000e+01 1.386045000000000016e+02 1.664224999999999909e+03
1.539999999999999980e-01 6.468439999999999745e-01 1.050515000000000043e+01 1.387305000000000064e+02 1.664259999999999991e+03
1.549999999999999989e-01 6.468709999999999738e-01 1.045129999999999981e+01 1.388534999999999968e+02 1.664295000000000073e+03
1.559999999999999998e-01 6.468979999999999730e-01 1.039762999999999948e+01 1.389755000000000109e+02 1.664329999999999927e+03
1.570000000000000007e-01 6.469255000000000422e-01 1.034451500000000124e+01 1.390960000000000036e+02 1.664369999999999891e+03
1.580000000000000016e-01 6.469525000000000414e-01 1.029223999999999961e+01 1.392160000000000082e+02 1.664405000000000200e+03
1.590000000000000024e-01 6.469795000000000407e-01 1.024092500000000072e+01 1.393360000000000127e+02 1.664440000000000055e+03
