# t [s], A [cm^2], U [cm/s], P [cPa], c [cm/s]
1.000000000000000021e-03 1.959994999999999932e-01 3.872576765000000365e-01 9.057290000000000418e+01 2.232369999999999891e+03
2.000000000000000042e-03 1.959319999999999951e-01 1.947273000000000032e+00 8.678379999999999939e+01 2.231829999999999927e+03
3.000000000000000062e-03 1.957774999999999932e-01 3.859578999999999649e+00 8.156929999999999836e+01 2.230625000000000000e+03
4.000000000000000083e-03 1.955830000000000068e-01 6.033055000000000057e+00 7.629874999999999829e+01 2.229135000000000218e+03
5.000000000000000104e-03 1.953900000000000081e-01 8.339829999999999188e+00 7.198884999999999934e+01 2.227664999999999964e+03
6.000000000000000125e-03 1.952119999999999966e-01 1.047378499999999946e+01 6.856019999999999470e+01 2.226340000000000146e+03
7.000000000000000146e-03 1.950479999999999992e-01 1.221893000000000029e+01 6.548425000000000296e+01 2.225144999999999982e+03
8.000000000000000167e-03 1.949049999999999949e-01 1.361782999999999966e+01 6.276420000000000243e+01 2.224110000000000127e+03
9.000000000000001055e-03 1.947865000000000013e-01 1.473700000000000188e+01 6.057810000000000628e+01 2.223269999999999982e+03
1.000000000000000194e-02 1.946920000000000039e-01 1.559775000000000134e+01 5.889950000000000330e+01 2.222614999999999782e+03
1.099999999999999936e-02 1.946195000000000008e-01 1.622785000000000011e+01 5.765534999999999854e+01 2.222114999999999782e+03
1.200000000000000025e-02 1.945645000000000013e-01 1.663289999999999935e+01 5.670884999999999820e+01 2.221739999999999782e+03
1.300000000000000114e-02 1.945195000000000118e-01 1.682325000000000159e+01 5.587310000000000088e+01 2.221440000000000055e+03
1.400000000000000203e-02 1.944845000000000046e-01 1.691920000000000002e+01 5.522545000000000215e+01 2.221215000000000146e+03
1.499999999999999944e-02 1.944704999999999906e-01 1.715934999999999988e+01 5.528679999999999950e+01 2.221135000000000218e+03
1.600000000000000033e-02 1.944954999999999878e-01 1.775750000000000028e+01 5.670045000000000357e+01 2.221309999999999945e+03
1.700000000000000122e-02 1.945685000000000053e-01 1.874020000000000152e+01 5.967419999999999902e+01 2.221829999999999927e+03
1.800000000000000211e-02 1.946804999999999786e-01 1.990359999999999729e+01 6.368094999999999573e+01 2.222625000000000000e+03
1.900000000000000300e-02 1.948064999999999936e-01 2.090950000000000131e+01 6.762985000000000468e+01 2.223529999999999745e+03
2.000000000000000042e-02 1.949134999999999895e-01 2.144585000000000008e+01 7.035775000000001000e+01 2.224320000000000164e+03
2.100000000000000130e-02 1.949750000000000094e-01 2.136200000000000188e+01 7.114034999999999798e+01 2.224795000000000073e+03
2.200000000000000219e-02 1.949810000000000154e-01 2.071669999999999945e+01 6.996795000000000186e+01 2.224875000000000000e+03
2.299999999999999961e-02 1.949394999999999878e-01 1.972830000000000084e+01 6.747504999999999598e+01 2.224609999999999673e+03
2.400000000000000050e-02 1.948710000000000164e-01 1.866079999999999828e+01 6.459505000000000052e+01 2.224135000000000218e+03
2.500000000000000139e-02 1.947995000000000143e-01 1.771030000000000015e+01 6.213604999999999734e+01 2.223614999999999782e+03
2.600000000000000228e-02 1.947389999999999954e-01 1.694170000000000087e+01 6.048335000000000150e+01 2.223175000000000182e+03
2.700000000000000316e-02 1.946950000000000069e-01 1.629364999999999952e+01 5.953475000000000250e+01 2.222850000000000364e+03
2.800000000000000058e-02 1.946610000000000007e-01 1.563510000000000133e+01 5.884950000000000614e+01 2.222600000000000364e+03
2.900000000000000147e-02 1.946255000000000068e-01 1.484220000000000006e+01 5.791124999999999545e+01 2.222345000000000255e+03
3.000000000000000236e-02 1.945775000000000143e-01 1.386509999999999998e+01 5.638935000000000031e+01 2.222005000000000109e+03
3.099999999999999978e-02 1.945135000000000058e-01 1.276030000000000086e+01 5.430219999999999914e+01 2.221554999999999836e+03
3.200000000000000067e-02 1.944400000000000017e-01 1.167928000000000033e+01 5.203019999999999357e+01 2.221029999999999745e+03
3.300000000000000155e-02 1.943719999999999892e-01 1.081753499999999946e+01 5.017810000000000059e+01 2.220539999999999964e+03
3.400000000000000244e-02 1.943259999999999987e-01 1.034571000000000041e+01 4.934664999999999679e+01 2.220190000000000055e+03
3.500000000000000333e-02 1.943165000000000031e-01 1.034998500000000021e+01 4.990824999999999534e+01 2.220105000000000018e+03
3.600000000000000422e-02 1.943500000000000227e-01 1.080255000000000010e+01 5.186889999999999645e+01 2.220309999999999945e+03
3.700000000000000511e-02 1.944204999999999961e-01 1.156879999999999953e+01 5.485864999999999725e+01 2.220800000000000182e+03
3.799999999999999906e-02 1.945155000000000078e-01 1.244355000000000011e+01 5.823435000000000628e+01 2.221460000000000036e+03
3.899999999999999994e-02 1.946140000000000092e-01 1.320045000000000002e+01 6.124915000000000020e+01 2.222164999999999964e+03
4.000000000000000083e-02 1.946939999999999782e-01 1.364000000000000057e+01 6.322679999999999723e+01 2.222744999999999891e+03
4.100000000000000172e-02 1.947384999999999811e-01 1.362274999999999991e+01 6.369585000000000008e+01 2.223079999999999927e+03
4.200000000000000261e-02 1.947345000000000048e-01 1.308524999999999849e+01 6.245560000000000400e+01 2.223079999999999927e+03
4.300000000000000350e-02 1.946785000000000043e-01 1.203649500000000039e+01 5.957119999999999749e+01 2.222695000000000164e+03
4.400000000000000439e-02 1.945729999999999960e-01 1.054205999999999932e+01 5.531340000000000146e+01 2.221960000000000036e+03
4.499999999999999833e-02 1.944269999999999887e-01 8.701430000000000220e+00 5.007004999999999484e+01 2.220930000000000291e+03
4.599999999999999922e-02 1.942504999999999926e-01 6.627110000000000056e+00 4.425804999999999723e+01 2.219670000000000073e+03
4.700000000000000011e-02 1.940560000000000063e-01 4.429468499999999587e+00 3.825849999999999795e+01 2.218279999999999745e+03
4.800000000000000100e-02 1.938549999999999995e-01 2.209149999999999725e+00 3.238430000000000319e+01 2.216840000000000146e+03
4.900000000000000189e-02 1.936559999999999948e-01 5.625999999999997669e-02 2.687750000000000128e+01 2.215409999999999854e+03
5.000000000000000278e-02 1.934684999999999877e-01 -1.946850000000000191e+00 2.192650000000000077e+01 2.214054999999999836e+03
5.100000000000000366e-02 1.932989999999999986e-01 -3.722233000000000125e+00 1.768909999999999982e+01 2.212819999999999709e+03
5.200000000000000455e-02 1.931529999999999914e-01 -5.194704999999999906e+00 1.431105499999999964e+01 2.211760000000000218e+03
5.300000000000000544e-02 1.930370000000000141e-01 -6.293219999999999814e+00 1.193285000000000018e+01 2.210909999999999854e+03
5.399999999999999939e-02 1.929555000000000020e-01 -6.955080000000000595e+00 1.068446499999999943e+01 2.210304999999999836e+03
5.500000000000000028e-02 1.929135000000000155e-01 -7.131834999999999702e+00 1.067036500000000032e+01 2.209974999999999909e+03
5.600000000000000117e-02 1.929150000000000031e-01 -6.795180000000000220e+00 1.195100000000000051e+01 2.209949999999999818e+03
5.700000000000000205e-02 1.929605000000000070e-01 -5.941245000000000331e+00 1.452730000000000032e+01 2.210250000000000000e+03
5.800000000000000294e-02 1.930505000000000138e-01 -4.592089999999999783e+00 1.833279999999999887e+01 2.210860000000000127e+03
5.900000000000000383e-02 1.931815000000000060e-01 -2.794162000000000035e+00 2.323564999999999969e+01 2.211770000000000437e+03
6.000000000000000472e-02 1.933500000000000218e-01 -6.142149999999999554e-01 2.904964999999999975e+01 2.212954999999999927e+03
6.099999999999999867e-02 1.935489999999999988e-01 1.866389999999999771e+00 3.555154999999999887e+01 2.214364999999999782e+03
6.199999999999999956e-02 1.937719999999999998e-01 4.557882000000000211e+00 4.250025000000000119e+01 2.215949999999999818e+03
6.300000000000000044e-02 1.940105000000000024e-01 7.367895000000000749e+00 4.965494999999999948e+01 2.217654999999999745e+03
6.400000000000000133e-02 1.942564999999999986e-01 1.020655499999999982e+01 5.679025000000000034e+01 2.219429999999999836e+03
6.500000000000000222e-02 1.945029999999999815e-01 1.299115999999999893e+01 6.370770000000000266e+01 2.221210000000000036e+03
6.600000000000000311e-02 1.947435000000000138e-01 1.564959999999999951e+01 7.024455000000000382e+01 2.222954999999999927e+03
6.700000000000000400e-02 1.949724999999999930e-01 1.812424999999999997e+01 7.628125000000000000e+01 2.224625000000000000e+03
6.800000000000000488e-02 1.951859999999999984e-01 2.037429999999999808e+01 8.174564999999999770e+01 2.226184999999999945e+03
6.900000000000000577e-02 1.953814999999999857e-01 2.237785000000000224e+01 8.661654999999998950e+01 2.227630000000000109e+03
7.000000000000000666e-02 1.955585000000000240e-01 2.413224999999999909e+01 9.092255000000000109e+01 2.228935000000000400e+03
7.100000000000000755e-02 1.957185000000000175e-01 2.565299999999999869e+01 9.473754999999999882e+01 2.230119999999999891e+03
7.200000000000000844e-02 1.958634999999999959e-01 2.697090000000000032e+01 9.817180000000000462e+01 2.231190000000000055e+03
7.300000000000000933e-02 1.959965000000000179e-01 2.812819999999999965e+01 1.013590000000000089e+02 2.232184999999999945e+03
7.399999999999999634e-02 1.961220000000000185e-01 2.917334999999999923e+01 1.044427000000000021e+02 2.233119999999999891e+03
7.499999999999999722e-02 1.962450000000000028e-01 3.015610000000000213e+01 1.075594999999999999e+02 2.234029999999999745e+03
7.599999999999999811e-02 1.963690000000000158e-01 3.112225000000000108e+01 1.108274999999999864e+02 2.234949999999999818e+03
7.699999999999999900e-02 1.964980000000000060e-01 3.210940000000000083e+01 1.143344999999999914e+02 2.235904999999999745e+03
7.799999999999999989e-02 1.966344999999999898e-01 3.314450000000000074e+01 1.181299999999999955e+02 2.236905000000000200e+03
7.900000000000000078e-02 1.967794999999999961e-01 3.424134999999999707e+01 1.222255000000000109e+02 2.237974999999999909e+03
8.000000000000000167e-02 1.969339999999999979e-01 3.540085000000000548e+01 1.265935000000000059e+02 2.239109999999999673e+03
8.100000000000000255e-02 1.970965000000000078e-01 3.661114999999999498e+01 1.311715000000000089e+02 2.240295000000000073e+03
8.200000000000000344e-02 1.972639999999999949e-01 3.784964999999999691e+01 1.358714999999999975e+02 2.241534999999999854e+03
8.300000000000000433e-02 1.974349999999999994e-01 3.908549999999999613e+01 1.405860000000000127e+02 2.242789999999999964e+03
8.400000000000000522e-02 1.976054999999999895e-01 4.028204999999999814e+01 1.451984999999999957e+02 2.244045000000000073e+03
8.500000000000000611e-02 1.977710000000000024e-01 4.140009999999999479e+01 1.495889999999999986e+02 2.245269999999999982e+03
8.600000000000000699e-02 1.979285000000000072e-01 4.240090000000000003e+01 1.536485000000000127e+02 2.246434999999999945e+03
8.700000000000000788e-02 1.980744999999999867e-01 4.324840000000000373e+01 1.572785000000000082e+02 2.247515000000000327e+03
8.800000000000000877e-02 1.982045000000000057e-01 4.391249999999999432e+01 1.604014999999999986e+02 2.248494999999999891e+03
8.899999999999999578e-02 1.983175000000000077e-01 4.436984999999999957e+01 1.629629999999999939e+02 2.249340000000000146e+03
8.999999999999999667e-02 1.984110000000000040e-01 4.460609999999999786e+01 1.649339999999999975e+02 2.250045000000000073e+03
9.099999999999999756e-02 1.984849999999999948e-01 4.461599999999999966e+01 1.663095000000000141e+02 2.250600000000000364e+03
9.199999999999999845e-02 1.985375000000000056e-01 4.440380000000000393e+01 1.671125000000000114e+02 2.251010000000000218e+03
9.299999999999999933e-02 1.985709999999999975e-01 4.398245000000000005e+01 1.673854999999999791e+02 2.251275000000000091e+03
9.400000000000000022e-02 1.985864999999999991e-01 4.337290000000000134e+01 1.671899999999999977e+02 2.251399999999999636e+03
9.500000000000000111e-02 1.985859999999999848e-01 4.260235000000000127e+01 1.666020000000000039e+02 2.251414999999999964e+03
9.600000000000000200e-02 1.985715000000000119e-01 4.170270000000000010e+01 1.657055000000000007e+02 2.251319999999999709e+03
9.700000000000000289e-02 1.985465000000000146e-01 4.070844999999999914e+01 1.645905000000000200e+02 2.251144999999999982e+03
9.800000000000000377e-02 1.985135000000000094e-01 3.965515000000000612e+01 1.633429999999999893e+02 2.250909999999999854e+03
9.900000000000000466e-02 1.984754999999999991e-01 3.857750000000000057e+01 1.620470000000000255e+02 2.250640000000000327e+03
1.000000000000000056e-01 1.984350000000000003e-01 3.750769999999999982e+01 1.607764999999999986e+02 2.250345000000000255e+03
1.010000000000000064e-01 1.983949999999999880e-01 3.647409999999999997e+01 1.595944999999999823e+02 2.250050000000000182e+03
1.020000000000000073e-01 1.983570000000000055e-01 3.550000000000000000e+01 1.585509999999999877e+02 2.249769999999999982e+03
1.030000000000000082e-01 1.983234999999999859e-01 3.460280000000000200e+01 1.576800000000000068e+02 2.249520000000000437e+03
1.040000000000000091e-01 1.982955000000000134e-01 3.379354999999999620e+01 1.569979999999999905e+02 2.249305000000000291e+03
1.050000000000000100e-01 1.982720000000000038e-01 3.307630000000000337e+01 1.565074999999999932e+02 2.249130000000000109e+03
1.059999999999999970e-01 1.982554999999999734e-01 3.244854999999999734e+01 1.561929999999999836e+02 2.248994999999999891e+03
1.069999999999999979e-01 1.982435000000000169e-01 3.190155000000000030e+01 1.560250000000000057e+02 2.248904999999999745e+03
1.079999999999999988e-01 1.982359999999999955e-01 3.142105000000000103e+01 1.559610000000000127e+02 2.248840000000000146e+03
1.089999999999999997e-01 1.982315000000000049e-01 3.098839999999999861e+01 1.559499999999999886e+02 2.248800000000000182e+03
1.100000000000000006e-01 1.982285000000000019e-01 3.058225000000000193e+01 1.559334999999999809e+02 2.248770000000000437e+03
1.110000000000000014e-01 1.982244999999999979e-01 3.017924999999999969e+01 1.558524999999999920e+02 2.248739999999999782e+03
1.120000000000000023e-01 1.982184999999999919e-01 2.975675000000000026e+01 1.556485000000000127e+02 2.248690000000000055e+03
1.130000000000000032e-01 1.982074999999999809e-01 2.929325000000000045e+01 1.552710000000000150e+02 2.248610000000000127e+03
1.140000000000000041e-01 1.981910000000000061e-01 2.877074999999999960e+01 1.546769999999999925e+02 2.248485000000000127e+03
1.150000000000000050e-01 1.981664999999999954e-01 2.817544999999999789e+01 1.538385000000000105e+02 2.248309999999999945e+03
1.160000000000000059e-01 1.981340000000000046e-01 2.749875000000000114e+01 1.527400000000000091e+02 2.248074999999999818e+03
1.170000000000000068e-01 1.980930000000000191e-01 2.673810000000000286e+01 1.513829999999999814e+02 2.247779999999999745e+03
1.180000000000000077e-01 1.980434999999999834e-01 2.589690000000000225e+01 1.497844999999999800e+02 2.247414999999999964e+03
1.190000000000000085e-01 1.979859999999999953e-01 2.498440000000000083e+01 1.479774999999999920e+02 2.246994999999999891e+03
1.200000000000000094e-01 1.979215000000000002e-01 2.401510000000000034e+01 1.460060000000000002e+02 2.246525000000000091e+03
1.209999999999999964e-01 1.978520000000000001e-01 2.300769999999999982e+01 1.439254999999999995e+02 2.246014999999999873e+03
1.219999999999999973e-01 1.977789999999999826e-01 2.198409999999999798e+01 1.417975000000000136e+02 2.245480000000000018e+03
1.229999999999999982e-01 1.977039999999999909e-01 2.096784999999999854e+01 1.396854999999999905e+02 2.244930000000000291e+03
1.239999999999999991e-01 1.976304999999999867e-01 1.998284999999999911e+01 1.376525000000000034e+02 2.244385000000000218e+03
1.250000000000000000e-01 1.975589999999999846e-01 1.905185000000000173e+01 1.357574999999999932e+02 2.243860000000000127e+03
1.260000000000000009e-01 1.974925000000000153e-01 1.819535000000000124e+01 1.340500000000000114e+02 2.243369999999999891e+03
1.270000000000000018e-01 1.974329999999999974e-01 1.743035000000000068e+01 1.325720000000000027e+02 2.242920000000000073e+03
1.280000000000000027e-01 1.973805000000000143e-01 1.676974999999999838e+01 1.313509999999999991e+02 2.242529999999999745e+03
1.290000000000000036e-01 1.973364999999999980e-01 1.622184999999999988e+01 1.304029999999999916e+02 2.242204999999999927e+03
1.300000000000000044e-01 1.973020000000000052e-01 1.578994999999999926e+01 1.297309999999999945e+02 2.241939999999999600e+03
1.310000000000000053e-01 1.972765000000000213e-01 1.547275000000000134e+01 1.293269999999999982e+02 2.241744999999999891e+03
1.320000000000000062e-01 1.972599999999999909e-01 1.526454999999999984e+01 1.291715000000000089e+02 2.241614999999999782e+03
1.330000000000000071e-01 1.972519999999999829e-01 1.515569999999999951e+01 1.292355000000000018e+02 2.241550000000000182e+03
1.340000000000000080e-01 1.972514999999999963e-01 1.513335000000000008e+01 1.294844999999999970e+02 2.241534999999999854e+03
1.350000000000000089e-01 1.972574999999999745e-01 1.518254999999999910e+01 1.298795000000000073e+02 2.241570000000000164e+03
1.360000000000000098e-01 1.972685000000000133e-01 1.528655000000000008e+01 1.303779999999999859e+02 2.241650000000000091e+03
1.370000000000000107e-01 1.972829999999999862e-01 1.542820000000000036e+01 1.309370000000000118e+02 2.241750000000000000e+03
1.380000000000000115e-01 1.973004999999999898e-01 1.559029999999999916e+01 1.315174999999999841e+02 2.241869999999999891e+03
1.390000000000000124e-01 1.973179999999999934e-01 1.575659999999999883e+01 1.320805000000000007e+02 2.241994999999999891e+03
1.400000000000000133e-01 1.973354999999999970e-01 1.591229999999999833e+01 1.325944999999999823e+02 2.242125000000000000e+03
1.410000000000000142e-01 1.973519999999999996e-01 1.604469999999999885e+01 1.330319999999999823e+02 2.242244999999999891e+03
1.420000000000000151e-01 1.973654999999999993e-01 1.614355000000000118e+01 1.333720000000000141e+02 2.242345000000000255e+03
1.430000000000000160e-01 1.973765000000000103e-01 1.620135000000000147e+01 1.336020000000000039e+02 2.242430000000000291e+03
1.440000000000000169e-01 1.973834999999999895e-01 1.621355000000000146e+01 1.337150000000000034e+02 2.242480000000000018e+03
1.450000000000000178e-01 1.973869999999999791e-01 1.617844999999999800e+01 1.337110000000000127e+02 2.242510000000000218e+03
1.459999999999999909e-01 1.973865000000000203e-01 1.609714999999999918e+01 1.335975000000000250e+02 2.242515000000000327e+03
1.469999999999999918e-01 1.973830000000000029e-01 1.597344999999999970e+01 1.333874999999999886e+02 2.242484999999999673e+03
1.479999999999999927e-01 1.973759999999999959e-01 1.581325000000000003e+01 1.330980000000000132e+02 2.242440000000000055e+03
1.489999999999999936e-01 1.973670000000000146e-01 1.562415000000000020e+01 1.327500000000000000e+02 2.242375000000000000e+03
1.499999999999999944e-01 1.973555000000000170e-01 1.541464999999999996e+01 1.323665000000000020e+02 2.242295000000000073e+03
1.509999999999999953e-01 1.973429999999999906e-01 1.519405000000000072e+01 1.319704999999999870e+02 2.242199999999999818e+03
1.519999999999999962e-01 1.973300000000000054e-01 1.497129999999999939e+01 1.315844999999999914e+02 2.242110000000000127e+03
1.529999999999999971e-01 1.973174999999999790e-01 1.475489999999999924e+01 1.312264999999999873e+02 2.242019999999999982e+03
1.539999999999999980e-01 1.973055000000000225e-01 1.455195000000000149e+01 1.309134999999999991e+02 2.241930000000000291e+03
1.549999999999999989e-01 1.972949999999999982e-01 1.436834999999999951e+01 1.306564999999999941e+02 2.241855000000000018e+03
1.559999999999999998e-01 1.972869999999999902e-01 1.420795000000000030e+01 1.304624999999999773e+02 2.241795000000000073e+03
1.570000000000000007e-01 1.972805000000000253e-01 1.407310000000000016e+01 1.303329999999999984e+02 2.241739999999999782e+03
1.580000000000000016e-01 1.972760000000000069e-01 1.396415000000000006e+01 1.302649999999999864e+02 2.241710000000000036e+03
1.590000000000000024e-01 1.972734999999999905e-01 1.387989999999999924e+01 1.302535000000000025e+02 2.241690000000000055e+03
