# t [s], A [cm^2], U [cm/s], P [cPa], c [cm/s]
1.000000000000000021e-03 1.725774999999999948e-01 1.237001999999999963e-01 9.732214999999999350e+01 2.190650000000000091e+03
2.000000000000000042e-03 1.725430000000000019e-01 1.372332500000000177e+00 9.456139999999999191e+01 2.190335000000000036e+03
3.000000000000000062e-03 1.724399999999999822e-01 3.018576499999999996e+00 9.050585000000000946e+01 2.189434999999999945e+03
4.000000000000000083e-03 1.722920000000000007e-01 4.915382000000000140e+00 8.574439999999999884e+01 2.188170000000000073e+03
5.000000000000000104e-03 1.721274999999999888e-01 6.999855000000000160e+00 8.113910000000001332e+01 2.186779999999999745e+03
6.000000000000000125e-03 1.719670000000000087e-01 9.141469999999999985e+00 7.717750000000000909e+01 2.185440000000000055e+03
7.000000000000000146e-03 1.718155000000000099e-01 1.112828000000000017e+01 7.380035000000000878e+01 2.184199999999999818e+03
8.000000000000000167e-03 1.716750000000000220e-01 1.281996499999999983e+01 7.076205000000000211e+01 2.183069999999999709e+03
9.000000000000001055e-03 1.715499999999999803e-01 1.421977000000000046e+01 6.805589999999999407e+01 2.182074999999999818e+03
1.000000000000000194e-02 1.714434999999999987e-01 1.536684999999999945e+01 6.578700000000000614e+01 2.181244999999999891e+03
1.099999999999999936e-02 1.713560000000000083e-01 1.628475000000000250e+01 6.398435000000000628e+01 2.180564999999999600e+03
1.200000000000000025e-02 1.712869999999999948e-01 1.699305000000000021e+01 6.261639999999999873e+01 2.180045000000000073e+03
1.300000000000000114e-02 1.712345000000000117e-01 1.749794999999999945e+01 6.159624999999999773e+01 2.179644999999999982e+03
1.400000000000000203e-02 1.711920000000000108e-01 1.779630000000000223e+01 6.077790000000000248e+01 2.179340000000000146e+03
1.499999999999999944e-02 1.711580000000000046e-01 1.792139999999999844e+01 6.007054999999999723e+01 2.179095000000000255e+03
1.600000000000000033e-02 1.711329999999999796e-01 1.797879999999999967e+01 5.958549999999999613e+01 2.178925000000000182e+03
1.700000000000000122e-02 1.711250000000000271e-01 1.811905000000000143e+01 5.963289999999999935e+01 2.178875000000000000e+03
1.800000000000000211e-02 1.711415000000000020e-01 1.846224999999999739e+01 6.053754999999999598e+01 2.179005000000000109e+03
1.900000000000000300e-02 1.711854999999999905e-01 1.903350000000000009e+01 6.241310000000000002e+01 2.179350000000000364e+03
2.000000000000000042e-02 1.712544999999999762e-01 1.974965000000000259e+01 6.505044999999999789e+01 2.179889999999999873e+03
2.100000000000000130e-02 1.713370000000000171e-01 2.045799999999999841e+01 6.797595000000001164e+01 2.180539999999999964e+03
2.200000000000000219e-02 1.714189999999999880e-01 2.100114999999999910e+01 7.062905000000000655e+01 2.181204999999999927e+03
2.299999999999999961e-02 1.714880000000000015e-01 2.127409999999999712e+01 7.256024999999999636e+01 2.181769999999999982e+03
2.400000000000000050e-02 1.715355000000000074e-01 2.125315000000000154e+01 7.356584999999999752e+01 2.182175000000000182e+03
2.500000000000000139e-02 1.715609999999999913e-01 2.099005000000000010e+01 7.371620000000000061e+01 2.182394999999999982e+03
2.600000000000000228e-02 1.715669999999999973e-01 2.058099999999999952e+01 7.328380000000001360e+01 2.182465000000000146e+03
2.700000000000000316e-02 1.715615000000000057e-01 2.012400000000000233e+01 7.261254999999999882e+01 2.182435000000000400e+03
2.800000000000000058e-02 1.715520000000000100e-01 1.968315000000000126e+01 7.198399999999999466e+01 2.182364999999999782e+03
2.900000000000000147e-02 1.715424999999999867e-01 1.927134999999999820e+01 7.152804999999999325e+01 2.182289999999999964e+03
3.000000000000000236e-02 1.715344999999999787e-01 1.885369999999999990e+01 7.120285000000001219e+01 2.182220000000000255e+03
3.099999999999999978e-02 1.715244999999999964e-01 1.836914999999999765e+01 7.083944999999999936e+01 2.182144999999999982e+03
3.200000000000000067e-02 1.715085000000000082e-01 1.775925000000000153e+01 7.022935000000001082e+01 2.182025000000000091e+03
3.300000000000000155e-02 1.714820000000000233e-01 1.699664999999999893e+01 6.922175000000000011e+01 2.181819999999999709e+03
3.400000000000000244e-02 1.714439999999999853e-01 1.610210000000000008e+01 6.779890000000000327e+01 2.181529999999999745e+03
3.500000000000000333e-02 1.713965000000000072e-01 1.514590000000000103e+01 6.610455000000000325e+01 2.181164999999999964e+03
3.600000000000000422e-02 1.713465000000000127e-01 1.423205000000000098e+01 6.441525000000000034e+01 2.180764999999999873e+03
3.700000000000000511e-02 1.713020000000000098e-01 1.347090000000000032e+01 6.306544999999999845e+01 2.180409999999999854e+03
3.799999999999999906e-02 1.712715000000000209e-01 1.294989999999999952e+01 6.235245000000000459e+01 2.180154999999999745e+03
3.899999999999999994e-02 1.712609999999999966e-01 1.271160000000000068e+01 6.245385000000000275e+01 2.180055000000000291e+03
4.000000000000000083e-02 1.712735000000000229e-01 1.274510000000000076e+01 6.338160000000000593e+01 2.180130000000000109e+03
4.100000000000000172e-02 1.713069999999999871e-01 1.299125000000000085e+01 6.498250000000000171e+01 2.180380000000000109e+03
4.200000000000000261e-02 1.713564999999999949e-01 1.335849999999999937e+01 6.697960000000000491e+01 2.180755000000000109e+03
4.300000000000000350e-02 1.714134999999999964e-01 1.374334999999999951e+01 6.903685000000000116e+01 2.181199999999999818e+03
4.400000000000000439e-02 1.714684999999999959e-01 1.405000000000000071e+01 7.082855000000000700e+01 2.181635000000000218e+03
4.499999999999999833e-02 1.715134999999999854e-01 1.420504999999999995e+01 7.209635000000000105e+01 2.182005000000000109e+03
4.599999999999999922e-02 1.715430000000000010e-01 1.416489999999999938e+01 7.268350000000000932e+01 2.182250000000000000e+03
4.700000000000000011e-02 1.715530000000000110e-01 1.391580000000000084e+01 7.254229999999999734e+01 2.182345000000000255e+03
4.800000000000000100e-02 1.715435000000000154e-01 1.346814999999999962e+01 7.171905000000000996e+01 2.182275000000000091e+03
4.900000000000000189e-02 1.715150000000000008e-01 1.284775000000000134e+01 7.032349999999999568e+01 2.182064999999999600e+03
5.000000000000000278e-02 1.714709999999999845e-01 1.208635500000000107e+01 6.849320000000000164e+01 2.181725000000000364e+03
5.100000000000000366e-02 1.714144999999999974e-01 1.121479000000000070e+01 6.636275000000000546e+01 2.181279999999999745e+03
5.200000000000000455e-02 1.713485000000000147e-01 1.025884999999999891e+01 6.404380000000000450e+01 2.180765000000000327e+03
5.300000000000000544e-02 1.712764999999999982e-01 9.238939999999999486e+00 6.161735000000000184e+01 2.180190000000000055e+03
5.399999999999999939e-02 1.712000000000000188e-01 8.172254999999999825e+00 5.913850000000000051e+01 2.179585000000000036e+03
5.500000000000000028e-02 1.711209999999999953e-01 7.076234999999999609e+00 5.664724999999999966e+01 2.178960000000000036e+03
5.600000000000000117e-02 1.710409999999999986e-01 5.971915000000000084e+00 5.418309999999999604e+01 2.178319999999999709e+03
5.700000000000000205e-02 1.709614999999999885e-01 4.886535000000000295e+00 5.179680000000000462e+01 2.177690000000000055e+03
5.800000000000000294e-02 1.708850000000000091e-01 3.854239999999999888e+00 4.955759999999999366e+01 2.177079999999999927e+03
5.900000000000000383e-02 1.708145000000000080e-01 2.915049000000000223e+00 4.755384999999999707e+01 2.176510000000000218e+03
6.000000000000000472e-02 1.707515000000000005e-01 2.112273499999999693e+00 4.588840000000000430e+01 2.176005000000000109e+03
6.099999999999999867e-02 1.707009999999999916e-01 1.488921200000000056e+00 4.466864999999999952e+01 2.175595000000000255e+03
6.199999999999999956e-02 1.706654999999999978e-01 1.083886499999999975e+00 4.399515000000000242e+01 2.175295000000000073e+03
6.300000000000000044e-02 1.706480000000000219e-01 9.284620000000000095e-01 4.395054999999999978e+01 2.175135000000000218e+03
6.400000000000000133e-02 1.706499999999999961e-01 1.043760999999999939e+00 4.459060000000000201e+01 2.175135000000000218e+03
6.500000000000000222e-02 1.706739999999999924e-01 1.439227000000000034e+00 4.593874999999999886e+01 2.175305000000000291e+03
6.600000000000000311e-02 1.707194999999999963e-01 2.112318000000000140e+00 4.798470000000000368e+01 2.175644999999999982e+03
6.700000000000000400e-02 1.707874999999999810e-01 3.049183499999999825e+00 5.068614999999999782e+01 2.176164999999999964e+03
6.800000000000000488e-02 1.708749999999999991e-01 4.226140000000000008e+00 5.397370000000000090e+01 2.176845000000000255e+03
6.900000000000000577e-02 1.709804999999999797e-01 5.611695000000000100e+00 5.775735000000000241e+01 2.177664999999999964e+03
7.000000000000000666e-02 1.711019999999999763e-01 7.168930000000000469e+00 6.193404999999999916e+01 2.178619999999999891e+03
7.100000000000000755e-02 1.712354999999999849e-01 8.858024999999999594e+00 6.639579999999999416e+01 2.179670000000000073e+03
7.200000000000000844e-02 1.713775000000000159e-01 1.063890500000000117e+01 7.103704999999999359e+01 2.180795000000000073e+03
7.300000000000000933e-02 1.715260000000000118e-01 1.247325500000000176e+01 7.576194999999999879e+01 2.181974999999999909e+03
7.399999999999999634e-02 1.716774999999999829e-01 1.432690000000000019e+01 8.048930000000000007e+01 2.183184999999999945e+03
7.499999999999999722e-02 1.718299999999999828e-01 1.617095000000000127e+01 8.515655000000000996e+01 2.184404999999999745e+03
7.599999999999999811e-02 1.719815000000000094e-01 1.798264999999999958e+01 8.972129999999999939e+01 2.185619999999999891e+03
7.699999999999999900e-02 1.721300000000000052e-01 1.974549999999999983e+01 9.416075000000000728e+01 2.186824999999999818e+03
7.799999999999999989e-02 1.722759999999999847e-01 2.144849999999999923e+01 9.846854999999999336e+01 2.188005000000000109e+03
7.900000000000000078e-02 1.724189999999999889e-01 2.308549999999999969e+01 1.026510000000000105e+02 2.189159999999999854e+03
8.000000000000000167e-02 1.725585000000000035e-01 2.465330000000000155e+01 1.067216499999999968e+02 2.190295000000000073e+03
8.100000000000000255e-02 1.726949999999999874e-01 2.615075000000000216e+01 1.106970000000000027e+02 2.191400000000000091e+03
8.200000000000000344e-02 1.728295000000000248e-01 2.757755000000000223e+01 1.145910000000000082e+02 2.192494999999999891e+03
8.300000000000000433e-02 1.729610000000000036e-01 2.893314999999999770e+01 1.184124999999999943e+02 2.193565000000000055e+03
8.400000000000000522e-02 1.730904999999999805e-01 3.021644999999999825e+01 1.221645000000000039e+02 2.194619999999999891e+03
8.500000000000000611e-02 1.732174999999999965e-01 3.142564999999999742e+01 1.258429999999999893e+02 2.195654999999999745e+03
8.600000000000000699e-02 1.733419999999999961e-01 3.255825000000000102e+01 1.294390000000000214e+02 2.196675000000000182e+03
8.700000000000000788e-02 1.734640000000000071e-01 3.361149999999999949e+01 1.329385000000000048e+02 2.197670000000000073e+03
8.800000000000000877e-02 1.735825000000000007e-01 3.458225000000000193e+01 1.363269999999999982e+02 2.198639999999999873e+03
8.899999999999999578e-02 1.736975000000000047e-01 3.546744999999999948e+01 1.395860000000000127e+02 2.199585000000000036e+03
8.999999999999999667e-02 1.738075000000000037e-01 3.626384999999999792e+01 1.427004999999999768e+02 2.200489999999999782e+03
9.099999999999999756e-02 1.739134999999999986e-01 3.696835000000000093e+01 1.456519999999999868e+02 2.201349999999999909e+03
9.199999999999999845e-02 1.740134999999999876e-01 3.757755000000000223e+01 1.484259999999999877e+02 2.202180000000000291e+03
9.299999999999999933e-02 1.741070000000000118e-01 3.808774999999999977e+01 1.510039999999999907e+02 2.202954999999999927e+03
9.400000000000000022e-02 1.741949999999999887e-01 3.849505000000000621e+01 1.533700000000000045e+02 2.203680000000000291e+03
9.500000000000000111e-02 1.742754999999999999e-01 3.879540000000000077e+01 1.555065000000000168e+02 2.204340000000000146e+03
9.600000000000000200e-02 1.743485000000000174e-01 3.898499999999999943e+01 1.573979999999999961e+02 2.204949999999999818e+03
9.700000000000000289e-02 1.744129999999999847e-01 3.906060000000000088e+01 1.590285000000000082e+02 2.205484999999999673e+03
9.800000000000000377e-02 1.744689999999999852e-01 3.902004999999999768e+01 1.603880000000000052e+02 2.205954999999999927e+03
9.900000000000000466e-02 1.745165000000000188e-01 3.886294999999999789e+01 1.614679999999999893e+02 2.206345000000000255e+03
1.000000000000000056e-01 1.745539999999999869e-01 3.859094999999999942e+01 1.622680000000000007e+02 2.206664999999999964e+03
1.010000000000000064e-01 1.745829999999999882e-01 3.820794999999999675e+01 1.627930000000000064e+02 2.206914999999999964e+03
1.020000000000000073e-01 1.746030000000000082e-01 3.772050000000000125e+01 1.630550000000000068e+02 2.207085000000000036e+03
1.030000000000000082e-01 1.746139999999999914e-01 3.713734999999999786e+01 1.630740000000000123e+02 2.207184999999999945e+03
1.040000000000000091e-01 1.746174999999999811e-01 3.646934999999999860e+01 1.628739999999999952e+02 2.207224999999999909e+03
1.050000000000000100e-01 1.746139999999999914e-01 3.572920000000000584e+01 1.624859999999999900e+02 2.207210000000000036e+03
1.059999999999999970e-01 1.746044999999999958e-01 3.493039999999999878e+01 1.619420000000000073e+02 2.207135000000000218e+03
1.069999999999999979e-01 1.745895000000000086e-01 3.408715000000000117e+01 1.612750000000000057e+02 2.207025000000000091e+03
1.079999999999999988e-01 1.745704999999999896e-01 3.321340000000000003e+01 1.605194999999999936e+02 2.206869999999999891e+03
1.089999999999999997e-01 1.745490000000000097e-01 3.232269999999999754e+01 1.597060000000000173e+02 2.206699999999999818e+03
1.100000000000000006e-01 1.745249999999999857e-01 3.142745000000000033e+01 1.588619999999999948e+02 2.206505000000000109e+03
1.110000000000000014e-01 1.744994999999999741e-01 3.053849999999999909e+01 1.580115000000000123e+02 2.206300000000000182e+03
1.120000000000000023e-01 1.744735000000000036e-01 2.966505000000000081e+01 1.571734999999999900e+02 2.206090000000000146e+03
1.130000000000000032e-01 1.744474999999999776e-01 2.881425000000000125e+01 1.563615000000000066e+02 2.205880000000000109e+03
1.140000000000000041e-01 1.744229999999999947e-01 2.799114999999999753e+01 1.555829999999999984e+02 2.205670000000000073e+03
1.150000000000000050e-01 1.743974999999999831e-01 2.719870000000000232e+01 1.548425000000000011e+02 2.205465000000000146e+03
1.160000000000000059e-01 1.743740000000000012e-01 2.643750000000000000e+01 1.541359999999999957e+02 2.205269999999999982e+03
1.170000000000000068e-01 1.743510000000000060e-01 2.570624999999999716e+01 1.534574999999999818e+02 2.205079999999999927e+03
1.180000000000000077e-01 1.743284999999999973e-01 2.500185000000000102e+01 1.527955000000000041e+02 2.204894999999999982e+03
1.190000000000000085e-01 1.743060000000000165e-01 2.431960000000000122e+01 1.521365000000000123e+02 2.204704999999999927e+03
1.200000000000000094e-01 1.742835000000000079e-01 2.365364999999999895e+01 1.514635000000000105e+02 2.204519999999999982e+03
1.209999999999999964e-01 1.742604999999999849e-01 2.299734999999999729e+01 1.507584999999999980e+02 2.204329999999999927e+03
1.219999999999999973e-01 1.742360000000000020e-01 2.234380000000000166e+01 1.500040000000000191e+02 2.204125000000000000e+03
1.229999999999999982e-01 1.742094999999999894e-01 2.168614999999999782e+01 1.491839999999999975e+02 2.203909999999999854e+03
1.239999999999999991e-01 1.741809999999999747e-01 2.101814999999999856e+01 1.482824999999999989e+02 2.203680000000000291e+03
1.250000000000000000e-01 1.741499999999999992e-01 2.033460000000000178e+01 1.472894999999999754e+02 2.203425000000000182e+03
1.260000000000000009e-01 1.741159999999999930e-01 1.963145000000000095e+01 1.461954999999999814e+02 2.203150000000000091e+03
1.270000000000000018e-01 1.740785000000000249e-01 1.890634999999999977e+01 1.449995000000000118e+02 2.202849999999999909e+03
1.280000000000000027e-01 1.740379999999999983e-01 1.815874999999999773e+01 1.437015000000000100e+02 2.202514999999999873e+03
1.290000000000000036e-01 1.739944999999999964e-01 1.738994999999999891e+01 1.423089999999999975e+02 2.202164999999999964e+03
1.300000000000000044e-01 1.739479999999999915e-01 1.660334999999999894e+01 1.408340000000000032e+02 2.201784999999999854e+03
1.310000000000000053e-01 1.738985000000000114e-01 1.580379999999999896e+01 1.392925000000000182e+02 2.201389999999999873e+03
1.320000000000000062e-01 1.738480000000000025e-01 1.499810000000000088e+01 1.377040000000000077e+02 2.200975000000000364e+03
1.330000000000000071e-01 1.737954999999999917e-01 1.419409999999999883e+01 1.360925000000000011e+02 2.200550000000000182e+03
1.340000000000000080e-01 1.737425000000000219e-01 1.340050000000000097e+01 1.344819999999999993e+02 2.200119999999999891e+03
1.350000000000000089e-01 1.736894999999999967e-01 1.262644999999999840e+01 1.328985000000000127e+02 2.199690000000000055e+03
1.360000000000000098e-01 1.736380000000000146e-01 1.188100999999999985e+01 1.313659999999999854e+02 2.199264999999999873e+03
1.370000000000000107e-01 1.735880000000000201e-01 1.117277500000000146e+01 1.299070000000000107e+02 2.198854999999999563e+03
1.380000000000000115e-01 1.735399999999999998e-01 1.050927500000000059e+01 1.285405000000000086e+02 2.198465000000000146e+03
1.390000000000000124e-01 1.734944999999999959e-01 9.896905000000000285e+00 1.272830000000000013e+02 2.198095000000000255e+03
1.400000000000000133e-01 1.734534999999999827e-01 9.340424999999999756e+00 1.261444999999999936e+02 2.197750000000000000e+03
1.410000000000000142e-01 1.734149999999999858e-01 8.843130000000000379e+00 1.251330000000000098e+02 2.197444999999999709e+03
1.420000000000000151e-01 1.733814999999999940e-01 8.406604999999998995e+00 1.242495000000000118e+02 2.197159999999999854e+03
1.430000000000000160e-01 1.733520000000000061e-01 8.030905000000000626e+00 1.234934999999999974e+02 2.196914999999999964e+03
1.440000000000000169e-01 1.733259999999999801e-01 7.714639999999999276e+00 1.228594999999999970e+02 2.196699999999999818e+03
1.450000000000000178e-01 1.733040000000000136e-01 7.455194999999999794e+00 1.223395000000000010e+02 2.196514999999999873e+03
1.459999999999999909e-01 1.732854999999999812e-01 7.248920000000000030e+00 1.219234999999999900e+02 2.196359999999999673e+03
1.469999999999999918e-01 1.732704999999999940e-01 7.091334999999999944e+00 1.215995000000000061e+02 2.196230000000000018e+03
1.479999999999999927e-01 1.732584999999999820e-01 6.977370000000000516e+00 1.213564999999999969e+02 2.196130000000000109e+03
1.489999999999999936e-01 1.732489999999999863e-01 6.901514999999999844e+00 1.211800000000000068e+02 2.196045000000000073e+03
1.499999999999999944e-01 1.732410000000000061e-01 6.858064999999999856e+00 1.210585000000000093e+02 2.195984999999999673e+03
1.509999999999999953e-01 1.732354999999999867e-01 6.841190000000000104e+00 1.209799999999999898e+02 2.195934999999999945e+03
1.519999999999999962e-01 1.732319999999999971e-01 6.845185000000000741e+00 1.209310000000000116e+02 2.195894999999999982e+03
1.529999999999999971e-01 1.732289999999999941e-01 6.864535000000000053e+00 1.209014999999999986e+02 2.195869999999999891e+03
1.539999999999999980e-01 1.732259999999999911e-01 6.894095000000000084e+00 1.208814999999999884e+02 2.195845000000000255e+03
1.549999999999999989e-01 1.732245000000000035e-01 6.929174999999999862e+00 1.208619999999999948e+02 2.195835000000000036e+03
1.559999999999999998e-01 1.732225000000000015e-01 6.965664999999999552e+00 1.208354999999999961e+02 2.195819999999999709e+03
1.570000000000000007e-01 1.732210000000000139e-01 7.000115000000000087e+00 1.207965000000000089e+02 2.195800000000000182e+03
1.580000000000000016e-01 1.732184999999999975e-01 7.029799999999999827e+00 1.207409999999999997e+02 2.195784999999999854e+03
1.590000000000000024e-01 1.732160000000000089e-01 7.052744999999999820e+00 1.206659999999999968e+02 2.195760000000000218e+03
