# t [s], A [cm^2], U [cm/s], P [cPa], c [cm/s]
1.000000000000000021e-03 7.418869999999999632e-01 5.309000000000001218e-03 1.082775000000000034e+02 1.633450000000000045e+03
2.000000000000000042e-03 7.418784999999999963e-01 5.883850000000000365e-03 1.082505000000000024e+02 1.633440000000000055e+03
3.000000000000000062e-03 7.419664999999999733e-01 1.442674500000000193e-01 1.084020000000000010e+02 1.633474999999999909e+03
4.000000000000000083e-03 7.420059999999999434e-01 2.251190000000000135e-01 1.084945000000000022e+02 1.633500000000000000e+03
5.000000000000000104e-03 7.419310000000000072e-01 1.387685000000000168e-01 1.083174999999999955e+02 1.633460000000000036e+03
6.000000000000000125e-03 7.418329999999999647e-01 5.840499999999970715e-03 1.079754999999999967e+02 1.633400000000000091e+03
7.000000000000000146e-03 7.417240000000000499e-01 -1.572900000000000409e-01 1.075175000000000125e+02 1.633304999999999836e+03
8.000000000000000167e-03 7.415260000000000185e-01 -4.761500000000000732e-01 1.067835000000000036e+02 1.633160000000000082e+03
9.000000000000001055e-03 7.412320000000000020e-01 -9.621949999999999115e-01 1.057025000000000006e+02 1.632945000000000164e+03
1.000000000000000194e-02 7.408349999999999103e-01 -1.609205000000000219e+00 1.042280000000000086e+02 1.632650000000000091e+03
1.099999999999999936e-02 7.403014999999999457e-01 -2.442379999999999995e+00 1.022738499999999959e+02 1.632244999999999891e+03
1.200000000000000025e-02 7.396469999999999434e-01 -3.409959999999999880e+00 9.984284999999999854e+01 1.631735000000000127e+03
1.300000000000000114e-02 7.389620000000000077e-01 -4.328310000000000102e+00 9.714055000000000462e+01 1.631150000000000091e+03
1.400000000000000203e-02 7.383634999999999504e-01 -4.966625000000000512e+00 9.450204999999999700e+01 1.630554999999999836e+03
1.499999999999999944e-02 7.379229999999999956e-01 -5.170471499999999665e+00 9.222140000000000271e+01 1.630005000000000109e+03
1.600000000000000033e-02 7.376359999999999584e-01 -4.921070000000000277e+00 9.042799999999999727e+01 1.629539999999999964e+03
1.700000000000000122e-02 7.374395000000000255e-01 -4.319454999999999600e+00 8.906030000000001223e+01 1.629150000000000091e+03
1.800000000000000211e-02 7.372454999999999981e-01 -3.529264999999999652e+00 8.791925000000000523e+01 1.628804999999999836e+03
1.900000000000000300e-02 7.369795000000000096e-01 -2.708419000000000132e+00 8.676279999999999859e+01 1.628465000000000146e+03
2.000000000000000042e-02 7.366040000000000365e-01 -1.953180000000000138e+00 8.540364999999999895e+01 1.628085000000000036e+03
2.100000000000000130e-02 7.361320000000000086e-01 -1.275550000000000184e+00 8.377259999999999707e+01 1.627664999999999964e+03
2.200000000000000219e-02 7.356065000000000520e-01 -6.232299999999999507e-01 8.192029999999999745e+01 1.627199999999999818e+03
2.299999999999999961e-02 7.350775000000000503e-01 7.229000000000018744e-02 7.996375000000000455e+01 1.626710000000000036e+03
2.400000000000000050e-02 7.345740000000000602e-01 8.475649999999999018e-01 7.801285000000000025e+01 1.626210000000000036e+03
2.500000000000000139e-02 7.340944999999999832e-01 1.679910000000000014e+00 7.611175000000000068e+01 1.625715000000000146e+03
2.600000000000000228e-02 7.336050000000000626e-01 2.486390000000000100e+00 7.421405000000000030e+01 1.625224999999999909e+03
2.700000000000000316e-02 7.330529999999999546e-01 3.143805000000000405e+00 7.219229999999998881e+01 1.624710000000000036e+03
2.800000000000000058e-02 7.323824999999999363e-01 3.521040000000000170e+00 6.987514999999999077e+01 1.624134999999999991e+03
2.900000000000000147e-02 7.315549999999999553e-01 3.514720000000000510e+00 6.710030000000000427e+01 1.623480000000000018e+03
3.000000000000000236e-02 7.305565000000000531e-01 3.078889999999999905e+00 6.376864999999999384e+01 1.622710000000000036e+03
3.099999999999999978e-02 7.294104999999999617e-01 2.239544999999999675e+00 5.988280000000000314e+01 1.621829999999999927e+03
3.200000000000000067e-02 7.281705000000000538e-01 1.089199999999999946e+00 5.555809999999999604e+01 1.620849999999999909e+03
3.300000000000000155e-02 7.269094999999999862e-01 -2.353000000000005087e-01 5.100365000000000038e+01 1.619819999999999936e+03
3.400000000000000244e-02 7.257035000000000569e-01 -1.582100000000000506e+00 4.648265000000000668e+01 1.618775000000000091e+03
3.500000000000000333e-02 7.246230000000000171e-01 -2.811239999999999739e+00 4.226675000000000182e+01 1.617775000000000091e+03
3.600000000000000422e-02 7.237190000000000012e-01 -3.812699999999999534e+00 3.859659999999999513e+01 1.616880000000000109e+03
3.700000000000000511e-02 7.230244999999999589e-01 -4.513914999999999900e+00 3.565474999999999994e+01 1.616130000000000109e+03
3.799999999999999906e-02 7.225539999999999186e-01 -4.878249850000000443e+00 3.355455000000000609e+01 1.615550000000000182e+03
3.899999999999999994e-02 7.223079999999999501e-01 -4.897520000000000095e+00 3.234175000000000466e+01 1.615159999999999854e+03
4.000000000000000083e-02 7.222750000000000004e-01 -4.581915000000000404e+00 3.200639999999999930e+01 1.614974999999999909e+03
4.100000000000000172e-02 7.224394999999999012e-01 -3.950099999999999945e+00 3.250030000000000285e+01 1.614980000000000018e+03
4.200000000000000261e-02 7.227840000000000931e-01 -3.022194999999999965e+00 3.375404999999999944e+01 1.615170000000000073e+03
4.300000000000000350e-02 7.232914999999999761e-01 -1.816924999999999901e+00 3.569010000000000105e+01 1.615519999999999982e+03
4.400000000000000439e-02 7.239459999999999784e-01 -3.527450000000000863e-01 3.822979999999999734e+01 1.616025000000000091e+03
4.499999999999999833e-02 7.247295000000000265e-01 1.348444999999999450e+00 4.129404999999999859e+01 1.616659999999999854e+03
4.599999999999999922e-02 7.256219999999999892e-01 3.257190000000000030e+00 4.480060000000000286e+01 1.617410000000000082e+03
4.700000000000000011e-02 7.266010000000000524e-01 5.333840000000000359e+00 4.866049999999999898e+01 1.618259999999999991e+03
4.800000000000000100e-02 7.276384999999999659e-01 7.528314999999999202e+00 5.277615000000000123e+01 1.619174999999999955e+03
4.900000000000000189e-02 7.287075000000000635e-01 9.782646499999998468e+00 5.704254999999999853e+01 1.620144999999999982e+03
5.000000000000000278e-02 7.297774999999999679e-01 1.203524999999999956e+01 6.135150000000000148e+01 1.621134999999999991e+03
5.100000000000000366e-02 7.308224999999999305e-01 1.422616499999999817e+01 6.559829999999999472e+01 1.622134999999999991e+03
5.200000000000000455e-02 7.318195000000000672e-01 1.630204499999999967e+01 6.968880000000000052e+01 1.623115000000000009e+03
5.300000000000000544e-02 7.327515000000000001e-01 1.822005000000000052e+01 7.354630000000000223e+01 1.624050000000000182e+03
5.399999999999999939e-02 7.336080000000000378e-01 1.995015000000000072e+01 7.711634999999999707e+01 1.624934999999999945e+03
5.500000000000000028e-02 7.343855000000000244e-01 2.147574999999999790e+01 8.036879999999999313e+01 1.625759999999999991e+03
5.600000000000000117e-02 7.350855000000000583e-01 2.279264999999999830e+01 8.329779999999999518e+01 1.626509999999999991e+03
5.700000000000000205e-02 7.357154999999999667e-01 2.390760000000000218e+01 8.591920000000000357e+01 1.627195000000000164e+03
5.800000000000000294e-02 7.362845000000000084e-01 2.483595000000000041e+01 8.826654999999999518e+01 1.627824999999999818e+03
5.900000000000000383e-02 7.368064999999999198e-01 2.559935000000000116e+01 9.038684999999999548e+01 1.628394999999999982e+03
6.000000000000000472e-02 7.372954999999999925e-01 2.622400000000000020e+01 9.233570000000000277e+01 1.628924999999999955e+03
6.099999999999999867e-02 7.377659999999999219e-01 2.673890000000000100e+01 9.417349999999999000e+01 1.629424999999999955e+03
6.199999999999999956e-02 7.382330000000000281e-01 2.717450000000000188e+01 9.596139999999999759e+01 1.629900000000000091e+03
6.300000000000000044e-02 7.387105000000000476e-01 2.756110000000000326e+01 9.775790000000000646e+01 1.630375000000000000e+03
6.400000000000000133e-02 7.392110000000000625e-01 2.792730000000000246e+01 9.961570000000000391e+01 1.630855000000000018e+03
6.500000000000000222e-02 7.397434999999999983e-01 2.829804999999999993e+01 1.015785000000000053e+02 1.631360000000000127e+03
6.600000000000000311e-02 7.403144999999999865e-01 2.869324999999999903e+01 1.036775000000000091e+02 1.631885000000000218e+03
6.700000000000000400e-02 7.409274999999999611e-01 2.912565000000000026e+01 1.059290000000000020e+02 1.632444999999999936e+03
6.800000000000000488e-02 7.415799999999999059e-01 2.960040000000000049e+01 1.083344999999999914e+02 1.633029999999999973e+03
6.900000000000000577e-02 7.422659999999999814e-01 3.011440000000000339e+01 1.108774999999999977e+02 1.633654999999999973e+03
7.000000000000000666e-02 7.429755000000000109e-01 3.065675000000000239e+01 1.135254999999999939e+02 1.634295000000000073e+03
7.100000000000000755e-02 7.436955000000000648e-01 3.121034999999999826e+01 1.162340000000000089e+02 1.634960000000000036e+03
7.200000000000000844e-02 7.444109999999999339e-01 3.175290000000000035e+01 1.189474999999999909e+02 1.635625000000000000e+03
7.300000000000000933e-02 7.451054999999999762e-01 3.225945000000000107e+01 1.216045000000000016e+02 1.636284999999999854e+03
7.399999999999999634e-02 7.457629999999999537e-01 3.270449999999999591e+01 1.241430000000000007e+02 1.636914999999999964e+03
7.499999999999999722e-02 7.463699999999999779e-01 3.306334999999999980e+01 1.265029999999999859e+02 1.637514999999999873e+03
7.599999999999999811e-02 7.469135000000000080e-01 3.331444999999999368e+01 1.286305000000000121e+02 1.638059999999999945e+03
7.699999999999999900e-02 7.473830000000000195e-01 3.344024999999999892e+01 1.304834999999999923e+02 1.638550000000000182e+03
7.799999999999999989e-02 7.477724999999999511e-01 3.342830000000000013e+01 1.320300000000000011e+02 1.638970000000000027e+03
7.900000000000000078e-02 7.480780000000000207e-01 3.327165000000000106e+01 1.332504999999999882e+02 1.639315000000000055e+03
8.000000000000000167e-02 7.482995000000000063e-01 3.296920000000000073e+01 1.341405000000000030e+02 1.639585000000000036e+03
8.100000000000000255e-02 7.484409999999999119e-01 3.252550000000000097e+01 1.347075000000000102e+02 1.639779999999999973e+03
8.200000000000000344e-02 7.485074999999999923e-01 3.195045000000000357e+01 1.349714999999999918e+02 1.639900000000000091e+03
8.300000000000000433e-02 7.485074999999999923e-01 3.125840000000000174e+01 1.349619999999999891e+02 1.639949999999999818e+03
8.400000000000000522e-02 7.484509999999999774e-01 3.046784999999999854e+01 1.347175000000000011e+02 1.639940000000000055e+03
8.500000000000000611e-02 7.483500000000000707e-01 2.959994999999999976e+01 1.342820000000000107e+02 1.639884999999999991e+03
8.600000000000000699e-02 7.482165000000000621e-01 2.867795000000000272e+01 1.337044999999999959e+02 1.639784999999999854e+03
8.700000000000000788e-02 7.480625000000000746e-01 2.772565000000000168e+01 1.330335000000000036e+02 1.639655000000000200e+03
8.800000000000000877e-02 7.479000000000000092e-01 2.676650000000000063e+01 1.323174999999999955e+02 1.639505000000000109e+03
8.899999999999999578e-02 7.477399999999999602e-01 2.582235000000000014e+01 1.316015000000000157e+02 1.639355000000000018e+03
8.999999999999999667e-02 7.475914999999999644e-01 2.491274999999999906e+01 1.309244999999999948e+02 1.639200000000000045e+03
9.099999999999999756e-02 7.474625000000000297e-01 2.405375000000000085e+01 1.303185000000000002e+02 1.639055000000000064e+03
9.199999999999999845e-02 7.473574999999998969e-01 2.325750000000000028e+01 1.298089999999999975e+02 1.638924999999999955e+03
9.299999999999999933e-02 7.472799999999999443e-01 2.253195000000000192e+01 1.294094999999999800e+02 1.638824999999999818e+03
9.400000000000000022e-02 7.472309999999999786e-01 2.188040000000000163e+01 1.291274999999999977e+02 1.638744999999999891e+03
9.500000000000000111e-02 7.472084999999999422e-01 2.130189999999999984e+01 1.289600000000000080e+02 1.638690000000000055e+03
9.600000000000000200e-02 7.472094999999999709e-01 2.079129999999999967e+01 1.288965000000000032e+02 1.638660000000000082e+03
9.700000000000000289e-02 7.472294999999999909e-01 2.034009999999999962e+01 1.289194999999999993e+02 1.638650000000000091e+03
9.800000000000000377e-02 7.472615000000000229e-01 1.993655000000000044e+01 1.290049999999999955e+02 1.638650000000000091e+03
9.900000000000000466e-02 7.472980000000000178e-01 1.956694999999999851e+01 1.291260000000000048e+02 1.638670000000000073e+03
1.000000000000000056e-01 7.473319999999999963e-01 1.921614999999999895e+01 1.292529999999999859e+02 1.638684999999999945e+03
1.010000000000000064e-01 7.473560000000000203e-01 1.886830000000000140e+01 1.293539999999999850e+02 1.638700000000000045e+03
1.020000000000000073e-01 7.473624999999999297e-01 1.850815000000000055e+01 1.294004999999999939e+02 1.638704999999999927e+03
1.030000000000000082e-01 7.473449999999999260e-01 1.812144999999999939e+01 1.293644999999999925e+02 1.638699999999999818e+03
1.040000000000000091e-01 7.472985000000000877e-01 1.769610000000000127e+01 1.292235000000000014e+02 1.638670000000000073e+03
1.050000000000000100e-01 7.472185000000000077e-01 1.722244999999999848e+01 1.289594999999999914e+02 1.638614999999999782e+03
1.059999999999999970e-01 7.471030000000000726e-01 1.669409999999999883e+01 1.285614999999999952e+02 1.638525000000000091e+03
1.069999999999999979e-01 7.469524999999999082e-01 1.610820000000000007e+01 1.280244999999999891e+02 1.638410000000000082e+03
1.079999999999999988e-01 7.467675000000000285e-01 1.546560000000000024e+01 1.273509999999999991e+02 1.638260000000000218e+03
1.089999999999999997e-01 7.465524999999999523e-01 1.477080000000000126e+01 1.265524999999999949e+02 1.638079999999999927e+03
1.100000000000000006e-01 7.463109999999999467e-01 1.403172499999999978e+01 1.256444999999999936e+02 1.637880000000000109e+03
1.110000000000000014e-01 7.460499999999999909e-01 1.325955499999999887e+01 1.246504999999999939e+02 1.637654999999999973e+03
1.120000000000000023e-01 7.457774999999999821e-01 1.246771500000000010e+01 1.235964999999999918e+02 1.637410000000000082e+03
1.130000000000000032e-01 7.455005000000000104e-01 1.167170000000000130e+01 1.225149999999999864e+02 1.637159999999999854e+03
1.140000000000000041e-01 7.452280000000000015e-01 1.088786999999999949e+01 1.214375000000000000e+02 1.636904999999999973e+03
1.150000000000000050e-01 7.449679999999999636e-01 1.013296500000000044e+01 1.203969999999999914e+02 1.636650000000000091e+03
1.160000000000000059e-01 7.447289999999999743e-01 9.423009999999999664e+00 1.194259999999999877e+02 1.636414999999999964e+03
1.170000000000000068e-01 7.445165000000000255e-01 8.772719999999999629e+00 1.185519999999999925e+02 1.636194999999999936e+03
1.180000000000000077e-01 7.443374999999999853e-01 8.194670000000000343e+00 1.177999999999999972e+02 1.636000000000000000e+03
1.190000000000000085e-01 7.441960000000000797e-01 7.698730000000000295e+00 1.171885000000000048e+02 1.635835000000000036e+03
1.200000000000000094e-01 7.440940000000000332e-01 7.291735000000000078e+00 1.167299999999999898e+02 1.635704999999999927e+03
1.209999999999999964e-01 7.440320000000000267e-01 6.977185000000000414e+00 1.164314999999999998e+02 1.635610000000000127e+03
1.219999999999999973e-01 7.440105000000000190e-01 6.755179999999999296e+00 1.162920000000000016e+02 1.635554999999999836e+03
1.229999999999999982e-01 7.440264999999999240e-01 6.622560000000000002e+00 1.163045000000000044e+02 1.635529999999999973e+03
1.239999999999999991e-01 7.440759999999999597e-01 6.573240000000000194e+00 1.164575000000000102e+02 1.635539999999999964e+03
1.250000000000000000e-01 7.441539999999999822e-01 6.598550000000000360e+00 1.167330000000000041e+02 1.635579999999999927e+03
1.260000000000000009e-01 7.442560000000000286e-01 6.687815000000000509e+00 1.171099999999999994e+02 1.635644999999999982e+03
1.270000000000000018e-01 7.443744999999999390e-01 6.828879999999999839e+00 1.175649999999999977e+02 1.635735000000000127e+03
1.280000000000000027e-01 7.445045000000000135e-01 7.008715000000000472e+00 1.180734999999999957e+02 1.635840000000000146e+03
1.290000000000000036e-01 7.446390000000000509e-01 7.214014999999999844e+00 1.186110000000000042e+02 1.635954999999999927e+03
1.300000000000000044e-01 7.447730000000000183e-01 7.431720000000000326e+00 1.191535000000000082e+02 1.636074999999999818e+03
1.310000000000000053e-01 7.449000000000000066e-01 7.649554999999999438e+00 1.196795000000000044e+02 1.636190000000000055e+03
1.320000000000000062e-01 7.450170000000000403e-01 7.856415000000000148e+00 1.201700000000000017e+02 1.636309999999999945e+03
1.330000000000000071e-01 7.451200000000000045e-01 8.042745000000000033e+00 1.206090000000000089e+02 1.636414999999999964e+03
1.340000000000000080e-01 7.452060000000000350e-01 8.200759999999998939e+00 1.209849999999999994e+02 1.636505000000000109e+03
1.350000000000000089e-01 7.452735000000000332e-01 8.324654999999999916e+00 1.212909999999999968e+02 1.636585000000000036e+03
1.360000000000000098e-01 7.453224999999999989e-01 8.410645000000000593e+00 1.215215000000000032e+02 1.636644999999999982e+03
1.370000000000000107e-01 7.453529999999999323e-01 8.456974999999999909e+00 1.216769999999999925e+02 1.636694999999999936e+03
1.380000000000000115e-01 7.453659999999999730e-01 8.463839999999999364e+00 1.217605000000000075e+02 1.636724999999999909e+03
1.390000000000000124e-01 7.453635000000000677e-01 8.433215000000000572e+00 1.217785000000000082e+02 1.636740000000000009e+03
1.400000000000000133e-01 7.453490000000000393e-01 8.368644999999999001e+00 1.217400000000000091e+02 1.636744999999999891e+03
1.410000000000000142e-01 7.453229999999999578e-01 8.274979999999999336e+00 1.216550000000000011e+02 1.636735000000000127e+03
1.420000000000000151e-01 7.452909999999999258e-01 8.158079999999999998e+00 1.215364999999999895e+02 1.636715000000000146e+03
1.430000000000000160e-01 7.452550000000000008e-01 8.024454999999999671e+00 1.213969999999999914e+02 1.636690000000000055e+03
1.440000000000000169e-01 7.452185000000000059e-01 7.880945000000000533e+00 1.212495000000000118e+02 1.636659999999999854e+03
1.450000000000000178e-01 7.451845000000000274e-01 7.734350000000000058e+00 1.211055000000000064e+02 1.636630000000000109e+03
1.459999999999999909e-01 7.451555000000000817e-01 7.591120000000000090e+00 1.209770000000000039e+02 1.636605000000000018e+03
1.469999999999999918e-01 7.451339999999999630e-01 7.457055000000000433e+00 1.208735000000000070e+02 1.636579999999999927e+03
1.479999999999999927e-01 7.451220000000000621e-01 7.337044999999999817e+00 1.208010000000000019e+02 1.636565000000000055e+03
1.489999999999999936e-01 7.451195000000000457e-01 7.234874999999999723e+00 1.207669999999999959e+02 1.636554999999999836e+03
1.499999999999999944e-01 7.451274999999999427e-01 7.153105000000000047e+00 1.207720000000000056e+02 1.636554999999999836e+03
1.509999999999999953e-01 7.451460000000000861e-01 7.093040000000000234e+00 1.208174999999999955e+02 1.636565000000000055e+03
1.519999999999999962e-01 7.451729999999999743e-01 7.054724999999999469e+00 1.209014999999999986e+02 1.636575000000000045e+03
1.529999999999999971e-01 7.452090000000000103e-01 7.037040000000000184e+00 1.210185000000000031e+02 1.636599999999999909e+03
1.539999999999999980e-01 7.452509999999999968e-01 7.037879999999999470e+00 1.211639999999999873e+02 1.636630000000000109e+03
1.549999999999999989e-01 7.452969999999999873e-01 7.054304999999999382e+00 1.213300000000000125e+02 1.636664999999999964e+03
1.559999999999999998e-01 7.453454999999999941e-01 7.082805000000000462e+00 1.215084999999999980e+02 1.636710000000000036e+03
1.570000000000000007e-01 7.453940000000000010e-01 7.119505000000000194e+00 1.216914999999999907e+02 1.636750000000000000e+03
1.580000000000000016e-01 7.454410000000000203e-01 7.160429999999999851e+00 1.218704999999999927e+02 1.636789999999999964e+03
1.590000000000000024e-01 7.454834999999999656e-01 7.201690000000000147e+00 1.220370000000000061e+02 1.636829999999999927e+03
