# t [s], A [cm^2], U [cm/s], P [cPa], c [cm/s]
1.000000000000000021e-03 1.993874999999999953e-01 1.849755000000000149e-01 9.631799999999999784e+01 2.222989999999999782e+03
2.000000000000000042e-03 1.993429999999999924e-01 1.497463999999999906e+00 9.334064999999999657e+01 2.222619999999999891e+03
3.000000000000000062e-03 1.992185000000000206e-01 3.186914500000000317e+00 8.902949999999999875e+01 2.221619999999999891e+03
4.000000000000000083e-03 1.990449999999999997e-01 5.119701644500000093e+00 8.413439999999999941e+01 2.220250000000000000e+03
5.000000000000000104e-03 1.988579999999999792e-01 7.228415000000000035e+00 7.958254999999999768e+01 2.218789999999999964e+03
6.000000000000000125e-03 1.986769999999999925e-01 9.350720000000000809e+00 7.578319999999999368e+01 2.217394999999999982e+03
7.000000000000000146e-03 1.985085000000000044e-01 1.125841499999999940e+01 7.254694999999999538e+01 2.216114999999999782e+03
8.000000000000000167e-03 1.983540000000000025e-01 1.284619000000000000e+01 6.963284999999999059e+01 2.214970000000000255e+03
9.000000000000001055e-03 1.982184999999999919e-01 1.414493999999999829e+01 6.709754999999999825e+01 2.213985000000000127e+03
1.000000000000000194e-02 1.981054999999999899e-01 1.519325000000000081e+01 6.504054999999999609e+01 2.213170000000000073e+03
1.099999999999999936e-02 1.980149999999999966e-01 1.601194999999999879e+01 6.345964999999999634e+01 2.212525000000000091e+03
1.200000000000000025e-02 1.979454999999999965e-01 1.661524999999999963e+01 6.229155000000000086e+01 2.212034999999999854e+03
1.300000000000000114e-02 1.978914999999999980e-01 1.700050000000000239e+01 6.140330000000000155e+01 2.211670000000000073e+03
1.400000000000000203e-02 1.978485000000000105e-01 1.717530000000000001e+01 6.064149999999999352e+01 2.211375000000000000e+03
1.499999999999999944e-02 1.978139999999999898e-01 1.721434999999999960e+01 6.000865000000000293e+01 2.211154999999999745e+03
1.600000000000000033e-02 1.977939999999999976e-01 1.726885000000000048e+01 5.977100000000000080e+01 2.211029999999999745e+03
1.700000000000000122e-02 1.977995000000000170e-01 1.749970000000000070e+01 6.033400000000000318e+01 2.211085000000000036e+03
1.800000000000000211e-02 1.978389999999999871e-01 1.798750000000000071e+01 6.196744999999999948e+01 2.211364999999999782e+03
1.900000000000000300e-02 1.979124999999999912e-01 1.868639999999999901e+01 6.459139999999999304e+01 2.211899999999999636e+03
2.000000000000000042e-02 1.980085000000000039e-01 1.944604999999999961e+01 6.775974999999999682e+01 2.212600000000000364e+03
2.100000000000000130e-02 1.981109999999999816e-01 2.007999999999999829e+01 7.082984999999999332e+01 2.213359999999999673e+03
2.200000000000000219e-02 1.982025000000000037e-01 2.044050000000000011e+01 7.320830000000000837e+01 2.214045000000000073e+03
2.299999999999999961e-02 1.982685000000000142e-01 2.046679999999999922e+01 7.455205000000000837e+01 2.214559999999999945e+03
2.400000000000000050e-02 1.983054999999999957e-01 2.019284999999999997e+01 7.484950000000000614e+01 2.214859999999999673e+03
2.500000000000000139e-02 1.983155000000000057e-01 1.971775000000000233e+01 7.436775000000000091e+01 2.214954999999999927e+03
2.600000000000000228e-02 1.983074999999999977e-01 1.915735000000000099e+01 7.350659999999999172e+01 2.214909999999999854e+03
2.700000000000000316e-02 1.982909999999999950e-01 1.859825000000000017e+01 7.262954999999999472e+01 2.214800000000000182e+03
2.800000000000000058e-02 1.982744999999999924e-01 1.807135000000000247e+01 7.193885000000000218e+01 2.214680000000000291e+03
2.900000000000000147e-02 1.982595000000000052e-01 1.755095000000000027e+01 7.143264999999999532e+01 2.214565000000000055e+03
3.000000000000000236e-02 1.982434999999999892e-01 1.697630000000000194e+01 7.094679999999999609e+01 2.214445000000000164e+03
3.099999999999999978e-02 1.982220000000000093e-01 1.628434999999999988e+01 7.025270000000000437e+01 2.214295000000000073e+03
3.200000000000000067e-02 1.981895000000000184e-01 1.544239999999999924e+01 6.917324999999999591e+01 2.214059999999999945e+03
3.300000000000000155e-02 1.981439999999999868e-01 1.446945000000000192e+01 6.767475000000000307e+01 2.213739999999999782e+03
3.400000000000000244e-02 1.980879999999999863e-01 1.343870000000000076e+01 6.590415000000000134e+01 2.213340000000000146e+03
3.500000000000000333e-02 1.980294999999999972e-01 1.246090000000000053e+01 6.415954999999999586e+01 2.212909999999999854e+03
3.600000000000000422e-02 1.979779999999999873e-01 1.165401499999999935e+01 6.280490000000000350e+01 2.212529999999999745e+03
3.700000000000000511e-02 1.979434999999999945e-01 1.111066999999999894e+01 6.216069999999999851e+01 2.212264999999999873e+03
3.799999999999999906e-02 1.979349999999999998e-01 1.087330000000000041e+01 6.240970000000000084e+01 2.212180000000000291e+03
3.899999999999999994e-02 1.979539999999999911e-01 1.092534999999999989e+01 6.354619999999999891e+01 2.212295000000000073e+03
4.000000000000000083e-02 1.979980000000000073e-01 1.119754999999999967e+01 6.537989999999999213e+01 2.212599999999999909e+03
4.100000000000000172e-02 1.980600000000000138e-01 1.158614999999999995e+01 6.758619999999999095e+01 2.213039999999999964e+03
4.200000000000000261e-02 1.981289999999999996e-01 1.197635000000000005e+01 6.978280000000000882e+01 2.213534999999999854e+03
4.300000000000000350e-02 1.981939999999999813e-01 1.226365000000000016e+01 7.160900000000000887e+01 2.214014999999999873e+03
4.400000000000000439e-02 1.982450000000000045e-01 1.237004999999999910e+01 7.278870000000000573e+01 2.214400000000000091e+03
4.499999999999999833e-02 1.982744999999999924e-01 1.225089999999999968e+01 7.316530000000000200e+01 2.214630000000000109e+03
4.599999999999999922e-02 1.982789999999999830e-01 1.189444999999999908e+01 7.270609999999999218e+01 2.214675000000000182e+03
4.700000000000000011e-02 1.982570000000000165e-01 1.131492000000000075e+01 7.148070000000001301e+01 2.214529999999999745e+03
4.800000000000000100e-02 1.982114999999999849e-01 1.054263999999999868e+01 6.962485000000000923e+01 2.214210000000000036e+03
4.900000000000000189e-02 1.981470000000000176e-01 9.614475000000000549e+00 6.730074999999999363e+01 2.213739999999999782e+03
5.000000000000000278e-02 1.980665000000000064e-01 8.566950000000000287e+00 6.466479999999999961e+01 2.213154999999999745e+03
5.100000000000000366e-02 1.979754999999999987e-01 7.432840000000000558e+00 6.184844999999999970e+01 2.212489999999999782e+03
5.200000000000000455e-02 1.978769999999999973e-01 6.241155000000000008e+00 5.895369999999999777e+01 2.211769999999999982e+03
5.300000000000000544e-02 1.977750000000000064e-01 5.019734999999999836e+00 5.605930000000000035e+01 2.211019999999999982e+03
5.399999999999999939e-02 1.976720000000000144e-01 3.798279499999999587e+00 5.323354999999999393e+01 2.210265000000000327e+03
5.500000000000000028e-02 1.975715000000000110e-01 2.611128499999999963e+00 5.054775000000000063e+01 2.209519999999999982e+03
5.600000000000000117e-02 1.974754999999999983e-01 1.498534999999999950e+00 4.808549999999999613e+01 2.208814999999999600e+03
5.700000000000000205e-02 1.973889999999999811e-01 5.060649999999999871e-01 4.594624999999999915e+01 2.208170000000000073e+03
5.800000000000000294e-02 1.973139999999999894e-01 -3.177849999999999842e-01 4.424210000000000065e+01 2.207605000000000018e+03
5.900000000000000383e-02 1.972559999999999869e-01 -9.251759999999999984e-01 4.308905000000000030e+01 2.207164999999999964e+03
6.000000000000000472e-02 1.972180000000000044e-01 -1.273061999999999916e+00 4.259505000000000052e+01 2.206875000000000000e+03
6.099999999999999867e-02 1.972045000000000048e-01 -1.327085000000000070e+00 4.284775000000000489e+01 2.206755000000000109e+03
6.199999999999999956e-02 1.972180000000000044e-01 -1.064642000000000088e+00 4.390455000000000041e+01 2.206829999999999927e+03
6.300000000000000044e-02 1.972590000000000177e-01 -4.766974999999999962e-01 4.578575000000000017e+01 2.207110000000000127e+03
6.400000000000000133e-02 1.973294999999999910e-01 4.316750000000000309e-01 4.847254999999999825e+01 2.207605000000000018e+03
6.500000000000000222e-02 1.974275000000000058e-01 1.642009999999999970e+00 5.190885000000000105e+01 2.208305000000000291e+03
6.600000000000000311e-02 1.975520000000000054e-01 3.124115999999999893e+00 5.600679999999999836e+01 2.209194999999999709e+03
6.700000000000000400e-02 1.976990000000000136e-01 4.838494999999999990e+00 6.065424999999999756e+01 2.210255000000000109e+03
6.800000000000000488e-02 1.978654999999999997e-01 6.739230000000000054e+00 6.572409999999999286e+01 2.211470000000000255e+03
6.900000000000000577e-02 1.980465000000000142e-01 8.776939999999999742e+00 7.108389999999999986e+01 2.212789999999999964e+03
7.000000000000000666e-02 1.982379999999999975e-01 1.090219000000000094e+01 7.660524999999999807e+01 2.214199999999999818e+03
7.100000000000000755e-02 1.984354999999999869e-01 1.306794999999999973e+01 8.217195000000000960e+01 2.215659999999999854e+03
7.200000000000000844e-02 1.986350000000000060e-01 1.523229999999999862e+01 8.768690000000000850e+01 2.217139999999999873e+03
7.300000000000000933e-02 1.988344999999999974e-01 1.736025000000000063e+01 9.307644999999999413e+01 2.218625000000000000e+03
7.399999999999999634e-02 1.990304999999999991e-01 1.942445000000000022e+01 9.829240000000000066e+01 2.220079999999999927e+03
7.499999999999999722e-02 1.992220000000000102e-01 2.140554999999999808e+01 1.033102999999999980e+02 2.221510000000000218e+03
7.599999999999999811e-02 1.994070000000000009e-01 2.329160000000000252e+01 1.081284500000000008e+02 2.222904999999999745e+03
7.699999999999999900e-02 1.995865000000000000e-01 2.507655000000000101e+01 1.127595000000000027e+02 2.224250000000000000e+03
7.799999999999999989e-02 1.997605000000000075e-01 2.675890000000000057e+01 1.172259999999999991e+02 2.225565000000000055e+03
7.900000000000000078e-02 1.999294999999999822e-01 2.834015000000000128e+01 1.215544999999999902e+02 2.226840000000000146e+03
8.000000000000000167e-02 2.000934999999999797e-01 2.982269999999999754e+01 1.257690000000000055e+02 2.228079999999999927e+03
8.100000000000000255e-02 2.002545000000000019e-01 3.120929999999999893e+01 1.298874999999999886e+02 2.229295000000000073e+03
8.200000000000000344e-02 2.004114999999999924e-01 3.250200000000000244e+01 1.339205000000000041e+02 2.230489999999999782e+03
8.300000000000000433e-02 2.005655000000000077e-01 3.370170000000000243e+01 1.378689999999999998e+02 2.231654999999999745e+03
8.400000000000000522e-02 2.007160000000000055e-01 3.480799999999999983e+01 1.417255000000000109e+02 2.232800000000000182e+03
8.500000000000000611e-02 2.008630000000000138e-01 3.581950000000000500e+01 1.454774999999999920e+02 2.233920000000000073e+03
8.600000000000000699e-02 2.010060000000000180e-01 3.673395000000000010e+01 1.491055000000000064e+02 2.235010000000000218e+03
8.700000000000000788e-02 2.011445000000000038e-01 3.754829999999999757e+01 1.525894999999999868e+02 2.236059999999999945e+03
8.800000000000000877e-02 2.012770000000000115e-01 3.825884999999999536e+01 1.559055000000000177e+02 2.237069999999999709e+03
8.899999999999999578e-02 2.014035000000000131e-01 3.886164999999999736e+01 1.590305000000000177e+02 2.238039999999999964e+03
8.999999999999999667e-02 2.015224999999999933e-01 3.935240000000000293e+01 1.619420000000000073e+02 2.238944999999999709e+03
9.099999999999999756e-02 2.016335000000000210e-01 3.972660000000000480e+01 1.646169999999999902e+02 2.239800000000000182e+03
9.199999999999999845e-02 2.017359999999999987e-01 3.997984999999999900e+01 1.670339999999999918e+02 2.240585000000000036e+03
9.299999999999999933e-02 2.018285000000000218e-01 4.010824999999999818e+01 1.691739999999999782e+02 2.241300000000000182e+03
9.400000000000000022e-02 2.019104999999999928e-01 4.010849999999999937e+01 1.710194999999999936e+02 2.241934999999999945e+03
9.500000000000000111e-02 2.019825000000000093e-01 3.997870000000000346e+01 1.725589999999999975e+02 2.242485000000000127e+03
9.600000000000000200e-02 2.020425000000000137e-01 3.971880000000000166e+01 1.737835000000000036e+02 2.242949999999999818e+03
9.700000000000000289e-02 2.020909999999999929e-01 3.933074999999999477e+01 1.746924999999999955e+02 2.243335000000000036e+03
9.800000000000000377e-02 2.021280000000000021e-01 3.881935000000000002e+01 1.752920000000000016e+02 2.243625000000000000e+03
9.900000000000000466e-02 2.021540000000000004e-01 3.819195000000000562e+01 1.755964999999999918e+02 2.243835000000000036e+03
1.000000000000000056e-01 2.021689999999999876e-01 3.745870000000000033e+01 1.756270000000000095e+02 2.243960000000000036e+03
1.010000000000000064e-01 2.021745000000000070e-01 3.663185000000000002e+01 1.754120000000000061e+02 2.244010000000000218e+03
1.020000000000000073e-01 2.021705000000000030e-01 3.572584999999999411e+01 1.749850000000000136e+02 2.243994999999999891e+03
1.030000000000000082e-01 2.021594999999999920e-01 3.475634999999999764e+01 1.743830000000000098e+02 2.243914999999999964e+03
1.040000000000000091e-01 2.021415000000000017e-01 3.373975000000000080e+01 1.736444999999999936e+02 2.243784999999999854e+03
1.050000000000000100e-01 2.021185000000000065e-01 3.269245000000000090e+01 1.728084999999999809e+02 2.243614999999999782e+03
1.059999999999999970e-01 2.020914999999999795e-01 3.163025000000000020e+01 1.719105000000000132e+02 2.243420000000000073e+03
1.069999999999999979e-01 2.020619999999999916e-01 3.056770000000000209e+01 1.709839999999999804e+02 2.243199999999999818e+03
1.079999999999999988e-01 2.020310000000000161e-01 2.951774999999999949e+01 1.700559999999999832e+02 2.242965000000000146e+03
1.089999999999999997e-01 2.019994999999999985e-01 2.849135000000000062e+01 1.691485000000000127e+02 2.242724999999999909e+03
1.100000000000000006e-01 2.019684999999999953e-01 2.749699999999999989e+01 1.682795000000000130e+02 2.242489999999999782e+03
1.110000000000000014e-01 2.019384999999999930e-01 2.654064999999999941e+01 1.674569999999999936e+02 2.242260000000000218e+03
1.120000000000000023e-01 2.019095000000000195e-01 2.562575000000000003e+01 1.666850000000000023e+02 2.242039999999999964e+03
1.130000000000000032e-01 2.018814999999999915e-01 2.475290000000000035e+01 1.659599999999999795e+02 2.241824999999999818e+03
1.140000000000000041e-01 2.018555000000000210e-01 2.392044999999999888e+01 1.652735000000000127e+02 2.241619999999999891e+03
1.150000000000000050e-01 2.018300000000000094e-01 2.312440000000000140e+01 1.646109999999999900e+02 2.241420000000000073e+03
1.160000000000000059e-01 2.018044999999999978e-01 2.235885000000000034e+01 1.639549999999999841e+02 2.241230000000000018e+03
1.170000000000000068e-01 2.017789999999999861e-01 2.161650000000000205e+01 1.632860000000000014e+02 2.241030000000000200e+03
1.180000000000000077e-01 2.017535000000000023e-01 2.088900000000000290e+01 1.625799999999999841e+02 2.240829999999999927e+03
1.190000000000000085e-01 2.017255000000000020e-01 2.016765000000000185e+01 1.618154999999999859e+02 2.240619999999999891e+03
1.200000000000000094e-01 2.016954999999999998e-01 1.944380000000000308e+01 1.609720000000000084e+02 2.240389999999999873e+03
1.209999999999999964e-01 2.016629999999999812e-01 1.870949999999999847e+01 1.600300000000000011e+02 2.240140000000000327e+03
1.219999999999999973e-01 2.016259999999999997e-01 1.795819999999999794e+01 1.589749999999999943e+02 2.239864999999999782e+03
1.229999999999999982e-01 2.015855000000000008e-01 1.718459999999999965e+01 1.577975000000000136e+02 2.239554999999999836e+03
1.239999999999999991e-01 2.015410000000000257e-01 1.638575000000000159e+01 1.564934999999999832e+02 2.239220000000000255e+03
1.250000000000000000e-01 2.014914999999999901e-01 1.556090000000000018e+01 1.550649999999999977e+02 2.238844999999999800e+03
1.260000000000000009e-01 2.014380000000000059e-01 1.471165000000000056e+01 1.535215000000000032e+02 2.238440000000000055e+03
1.270000000000000018e-01 2.013800000000000034e-01 1.384189999999999898e+01 1.518770000000000095e+02 2.238010000000000218e+03
1.280000000000000027e-01 2.013195000000000123e-01 1.295805000000000007e+01 1.501525000000000034e+02 2.237550000000000182e+03
1.290000000000000036e-01 2.012550000000000172e-01 1.206821000000000055e+01 1.483725000000000023e+02 2.237069999999999709e+03
1.300000000000000044e-01 2.011900000000000077e-01 1.118202499999999944e+01 1.465674999999999955e+02 2.236574999999999818e+03
1.310000000000000053e-01 2.011235000000000106e-01 1.031017500000000098e+01 1.447654999999999745e+02 2.236074999999999818e+03
1.320000000000000062e-01 2.010575000000000001e-01 9.463589999999999947e+00 1.429984999999999786e+02 2.235574999999999818e+03
1.330000000000000071e-01 2.009930000000000050e-01 8.653079999999999217e+00 1.412959999999999923e+02 2.235090000000000146e+03
1.340000000000000080e-01 2.009305000000000119e-01 7.888600000000000279e+00 1.396834999999999809e+02 2.234614999999999782e+03
1.350000000000000089e-01 2.008709999999999940e-01 7.178819999999999979e+00 1.381839999999999975e+02 2.234164999999999964e+03
1.360000000000000098e-01 2.008159999999999945e-01 6.530739999999999768e+00 1.368129999999999882e+02 2.233739999999999782e+03
1.370000000000000107e-01 2.007649999999999990e-01 5.949394999999999989e+00 1.355829999999999984e+02 2.233355000000000018e+03
1.380000000000000115e-01 2.007189999999999808e-01 5.437759999999999927e+00 1.344989999999999952e+02 2.233000000000000000e+03
1.390000000000000124e-01 2.006785000000000097e-01 4.996690000000000076e+00 1.335604999999999905e+02 2.232684999999999945e+03
1.400000000000000133e-01 2.006425000000000014e-01 4.625070000000000014e+00 1.327630000000000052e+02 2.232409999999999854e+03
1.410000000000000142e-01 2.006114999999999982e-01 4.319995000000000474e+00 1.320964999999999918e+02 2.232175000000000182e+03
1.420000000000000151e-01 2.005850000000000133e-01 4.077015000000000278e+00 1.315490000000000066e+02 2.231965000000000146e+03
1.430000000000000160e-01 2.005629999999999913e-01 3.890465000000000284e+00 1.311034999999999968e+02 2.231789999999999964e+03
1.440000000000000169e-01 2.005445000000000144e-01 3.753739999999999633e+00 1.307454999999999927e+02 2.231644999999999982e+03
1.450000000000000178e-01 2.005290000000000128e-01 3.659629999999999939e+00 1.304560000000000173e+02 2.231524999999999636e+03
1.459999999999999909e-01 2.005159999999999998e-01 3.600635000000000474e+00 1.302180000000000177e+02 2.231420000000000073e+03
1.469999999999999918e-01 2.005049999999999888e-01 3.569189999999999863e+00 1.300144999999999982e+02 2.231335000000000036e+03
1.479999999999999927e-01 2.004954999999999932e-01 3.557965000000000266e+00 1.298305000000000007e+02 2.231260000000000218e+03
1.489999999999999936e-01 2.004865000000000119e-01 3.560039999999999871e+00 1.296529999999999916e+02 2.231190000000000055e+03
1.499999999999999944e-01 2.004779999999999895e-01 3.569125000000000103e+00 1.294680000000000177e+02 2.231125000000000000e+03
1.509999999999999953e-01 2.004690000000000083e-01 3.579660000000000064e+00 1.292665000000000077e+02 2.231055000000000291e+03
1.519999999999999962e-01 2.004599999999999993e-01 3.586969999999999992e+00 1.290414999999999850e+02 2.230989999999999782e+03
1.529999999999999971e-01 2.004509999999999903e-01 3.587309999999999999e+00 1.287864999999999895e+02 2.230914999999999964e+03
1.539999999999999980e-01 2.004400000000000071e-01 3.577914999999999957e+00 1.284989999999999952e+02 2.230835000000000036e+03
1.549999999999999989e-01 2.004285000000000094e-01 3.556989999999999874e+00 1.281779999999999973e+02 2.230744999999999891e+03
1.559999999999999998e-01 2.004159999999999831e-01 3.523654999999999760e+00 1.278240000000000123e+02 2.230654999999999745e+03
1.570000000000000007e-01 2.004015000000000102e-01 3.477884999999999671e+00 1.274394999999999953e+02 2.230550000000000182e+03
1.580000000000000016e-01 2.003869999999999818e-01 3.420385000000000009e+00 1.270289999999999964e+02 2.230445000000000164e+03
1.590000000000000024e-01 2.003719999999999946e-01 3.352470000000000283e+00 1.265970000000000084e+02 2.230324999999999818e+03
