# t [s], A [cm^2], U [cm/s], P [cPa], c [cm/s]
1.000000000000000021e-03 7.506645000000000678e-01 7.058750000000002522e-03 1.000788500000000028e+02 1.765805000000000064e+03
2.000000000000000042e-03 7.506504999999999983e-01 -4.914250000000000215e-03 1.000434999999999945e+02 1.765795000000000073e+03
3.000000000000000062e-03 7.507085000000000008e-01 8.951930000000000998e-02 1.001556500000000085e+02 1.765819999999999936e+03
4.000000000000000083e-03 7.507630000000000692e-01 1.911870999999999987e-01 1.002910499999999985e+02 1.765849999999999909e+03
5.000000000000000104e-03 7.507274999999999920e-01 1.622499500000000039e-01 1.002162999999999897e+02 1.765839999999999918e+03
6.000000000000000125e-03 7.506509999999999572e-01 6.309249999999999581e-02 9.996819999999999595e+01 1.765785000000000082e+03
7.000000000000000146e-03 7.505919999999999259e-01 -1.585949999999997084e-02 9.968405000000001337e+01 1.765724999999999909e+03
8.000000000000000167e-03 7.504954999999999821e-01 -1.703025000000000233e-01 9.926075000000000159e+01 1.765630000000000109e+03
9.000000000000001055e-03 7.503324999999999578e-01 -4.539750000000000174e-01 9.860144999999999982e+01 1.765494999999999891e+03
1.000000000000000194e-02 7.500975000000000836e-01 -8.752299999999999525e-01 9.765514999999999191e+01 1.765295000000000073e+03
1.099999999999999936e-02 7.497629999999999573e-01 -1.467749999999999666e+00 9.633064999999999145e+01 1.765014999999999873e+03
1.200000000000000025e-02 7.493279999999999941e-01 -2.217140000000000111e+00 9.459174999999999045e+01 1.764634999999999991e+03
1.300000000000000114e-02 7.488535000000000608e-01 -2.999054999999999804e+00 9.256725000000000136e+01 1.764190000000000055e+03
1.400000000000000203e-02 7.484239999999999782e-01 -3.635571999999999804e+00 9.050579999999999359e+01 1.763714999999999918e+03
1.499999999999999944e-02 7.480944999999999956e-01 -3.996312450000000016e+00 8.863429999999999609e+01 1.763264999999999873e+03
1.600000000000000033e-02 7.478635000000000144e-01 -4.050144500000000036e+00 8.705584999999999241e+01 1.762855000000000018e+03
1.700000000000000122e-02 7.476884999999999781e-01 -3.853275000000000006e+00 8.573420000000000130e+01 1.762494999999999891e+03
1.800000000000000211e-02 7.475125000000000242e-01 -3.504145000000000287e+00 8.454179999999999495e+01 1.762154999999999973e+03
1.900000000000000300e-02 7.472909999999999275e-01 -3.095265500000000003e+00 8.333070000000000732e+01 1.761815000000000055e+03
2.000000000000000042e-02 7.470040000000000013e-01 -2.679837850000000188e+00 8.199540000000000362e+01 1.761449999999999818e+03
2.100000000000000130e-02 7.466625000000000068e-01 -2.260981999999999825e+00 8.050695000000000334e+01 1.761050000000000182e+03
2.200000000000000219e-02 7.462949999999999307e-01 -1.803845000000000143e+00 7.891070000000000562e+01 1.760625000000000000e+03
2.299999999999999961e-02 7.459350000000000147e-01 -1.262965000000000115e+00 7.729290000000000305e+01 1.760199999999999818e+03
2.400000000000000050e-02 7.456030000000000157e-01 -6.115050000000001873e-01 7.573460000000000036e+01 1.759775000000000091e+03
2.500000000000000139e-02 7.452995000000000037e-01 1.394800000000002704e-01 7.427224999999999966e+01 1.759369999999999891e+03
2.600000000000000228e-02 7.450045000000000694e-01 9.372100000000000986e-01 7.287864999999999327e+01 1.758980000000000018e+03
2.700000000000000316e-02 7.446844999999999715e-01 1.697499999999999787e+00 7.146705000000000041e+01 1.758585000000000036e+03
2.800000000000000058e-02 7.443010000000001014e-01 2.324939999999999785e+00 6.991485000000000127e+01 1.758174999999999955e+03
2.900000000000000147e-02 7.438244999999999996e-01 2.737199999999999633e+00 6.809999999999999432e+01 1.757704999999999927e+03
3.000000000000000236e-02 7.432440000000000158e-01 2.886924999999999741e+00 6.593980000000000530e+01 1.757174999999999955e+03
3.099999999999999978e-02 7.425705000000000222e-01 2.774289999999999701e+00 6.342029999999999745e+01 1.756565000000000055e+03
3.200000000000000067e-02 7.418365000000000098e-01 2.445460000000000189e+00 6.060585000000000377e+01 1.755889999999999873e+03
3.300000000000000155e-02 7.410864999999999814e-01 1.978470000000000173e+00 5.762630000000000052e+01 1.755175000000000182e+03
3.400000000000000244e-02 7.403679999999999151e-01 1.462759999999999838e+00 5.464855000000000018e+01 1.754454999999999927e+03
3.500000000000000333e-02 7.397205000000000030e-01 9.799699999999997857e-01 5.184360000000000213e+01 1.753764999999999873e+03
3.600000000000000422e-02 7.391719999999999402e-01 5.920099999999997031e-01 4.936039999999999850e+01 1.753134999999999991e+03
3.700000000000000511e-02 7.387394999999999934e-01 3.368750000000000355e-01 4.730920000000000414e+01 1.752595000000000027e+03
3.799999999999999906e-02 7.384264999999999857e-01 2.311950000000000394e-01 4.575724999999999909e+01 1.752170000000000073e+03
3.899999999999999994e-02 7.382314999999999294e-01 2.769399999999999640e-01 4.473335000000000150e+01 1.751865000000000009e+03
4.000000000000000083e-02 7.381499999999999728e-01 4.695495000000000640e-01 4.423839999999999861e+01 1.751684999999999945e+03
4.100000000000000172e-02 7.381750000000000256e-01 8.051710000000000811e-01 4.425829999999999842e+01 1.751625000000000000e+03
4.200000000000000261e-02 7.383049999999999891e-01 1.285239250000000055e+00 4.477490000000000236e+01 1.751690000000000055e+03
4.300000000000000350e-02 7.385390000000000565e-01 1.917446999999999901e+00 4.577344999999999686e+01 1.751880000000000109e+03
4.400000000000000439e-02 7.388780000000000348e-01 2.713330000000000020e+00 4.724354999999999905e+01 1.752184999999999945e+03
4.499999999999999833e-02 7.393229999999999524e-01 3.683759999999999923e+00 4.917669999999999675e+01 1.752610000000000127e+03
4.599999999999999922e-02 7.398715000000000153e-01 4.833920000000000883e+00 5.155989999999999895e+01 1.753140000000000100e+03
4.700000000000000011e-02 7.405165000000000219e-01 6.159622999999999848e+00 5.437015000000000242e+01 1.753779999999999973e+03
4.800000000000000100e-02 7.412484999999999769e-01 7.645357350000000274e+00 5.756985000000000241e+01 1.754525000000000091e+03
4.900000000000000189e-02 7.420515000000000860e-01 9.265150000000000219e+00 6.110584999999999667e+01 1.755355000000000018e+03
5.000000000000000278e-02 7.429079999999999018e-01 1.098476999999999926e+01 6.491165000000000873e+01 1.756259999999999991e+03
5.100000000000000366e-02 7.437985000000000291e-01 1.276530999999999949e+01 6.891150000000000375e+01 1.757219999999999800e+03
5.200000000000000455e-02 7.447049999999999503e-01 1.456714500000000001e+01 7.302660000000000196e+01 1.758215000000000146e+03
5.300000000000000544e-02 7.456110000000000237e-01 1.635359499999999855e+01 7.718119999999998981e+01 1.759235000000000127e+03
5.399999999999999939e-02 7.465034999999999865e-01 1.809325000000000117e+01 8.130850000000000932e+01 1.760264999999999873e+03
5.500000000000000028e-02 7.473719999999999253e-01 1.976170000000000115e+01 8.535410000000000252e+01 1.761280000000000200e+03
5.600000000000000117e-02 7.482115000000000293e-01 2.134179999999999922e+01 8.927854999999999563e+01 1.762275000000000091e+03
5.700000000000000205e-02 7.490185000000000315e-01 2.282319999999999993e+01 9.305639999999999645e+01 1.763250000000000000e+03
5.800000000000000294e-02 7.497929999999999318e-01 2.420125000000000171e+01 9.667810000000000059e+01 1.764190000000000055e+03
5.900000000000000383e-02 7.505379999999999274e-01 2.547554999999999836e+01 1.001424499999999966e+02 1.765090000000000146e+03
6.000000000000000472e-02 7.512544999999999362e-01 2.664894999999999925e+01 1.034594999999999914e+02 1.765960000000000036e+03
6.099999999999999867e-02 7.519469999999999210e-01 2.772579999999999956e+01 1.066430000000000007e+02 1.766800000000000182e+03
6.199999999999999956e-02 7.526199999999999557e-01 2.871150000000000091e+01 1.097104999999999961e+02 1.767610000000000127e+03
6.300000000000000044e-02 7.532750000000000279e-01 2.961110000000000042e+01 1.126779999999999973e+02 1.768400000000000091e+03
6.400000000000000133e-02 7.539154999999999607e-01 3.042865000000000109e+01 1.155589999999999975e+02 1.769159999999999854e+03
6.500000000000000222e-02 7.545420000000000460e-01 3.116679999999999851e+01 1.183634999999999877e+02 1.769904999999999973e+03
6.600000000000000311e-02 7.551544999999999508e-01 3.182639999999999958e+01 1.210954999999999870e+02 1.770634999999999991e+03
6.700000000000000400e-02 7.557510000000000616e-01 3.240644999999999953e+01 1.237520000000000095e+02 1.771340000000000146e+03
6.800000000000000488e-02 7.563284999999999592e-01 3.290435000000000088e+01 1.263245000000000005e+02 1.772019999999999982e+03
6.900000000000000577e-02 7.568835000000000424e-01 3.331669999999999732e+01 1.287994999999999948e+02 1.772684999999999945e+03
7.000000000000000666e-02 7.574125000000000441e-01 3.363954999999999984e+01 1.311614999999999895e+02 1.773319999999999936e+03
7.100000000000000755e-02 7.579104999999999315e-01 3.386929999999999552e+01 1.333915000000000077e+02 1.773924999999999955e+03
7.200000000000000844e-02 7.583739999999999926e-01 3.400315000000000509e+01 1.354725000000000250e+02 1.774490000000000009e+03
7.300000000000000933e-02 7.588004999999999889e-01 3.403969999999999629e+01 1.373885000000000218e+02 1.775015000000000100e+03
7.399999999999999634e-02 7.591859999999999165e-01 3.397874999999999801e+01 1.391254999999999882e+02 1.775494999999999891e+03
7.499999999999999722e-02 7.595304999999999973e-01 3.382150000000000034e+01 1.406734999999999900e+02 1.775934999999999945e+03
7.599999999999999811e-02 7.598325000000000218e-01 3.357039999999999935e+01 1.420269999999999868e+02 1.776320000000000164e+03
7.699999999999999900e-02 7.600905000000000022e-01 3.322910000000000252e+01 1.431814999999999998e+02 1.776654999999999973e+03
7.799999999999999989e-02 7.603059999999999263e-01 3.280214999999999748e+01 1.441384999999999934e+02 1.776940000000000055e+03
7.900000000000000078e-02 7.604794999999999749e-01 3.229500000000000171e+01 1.449010000000000105e+02 1.777180000000000064e+03
8.000000000000000167e-02 7.606125000000000247e-01 3.171399999999999864e+01 1.454755000000000109e+02 1.777365000000000009e+03
8.100000000000000255e-02 7.607064999999999522e-01 3.106674999999999898e+01 1.458709999999999809e+02 1.777500000000000000e+03
8.200000000000000344e-02 7.607649999999999135e-01 3.036165000000000092e+01 1.460999999999999943e+02 1.777599999999999909e+03
8.300000000000000433e-02 7.607915000000000649e-01 2.960835000000000150e+01 1.461775000000000091e+02 1.777650000000000091e+03
8.400000000000000522e-02 7.607899999999999663e-01 2.881739999999999924e+01 1.461214999999999975e+02 1.777670000000000073e+03
8.500000000000000611e-02 7.607645000000000657e-01 2.799994999999999834e+01 1.459510000000000218e+02 1.777655000000000200e+03
8.600000000000000699e-02 7.607194999999999929e-01 2.716740000000000066e+01 1.456864999999999952e+02 1.777615000000000009e+03
8.700000000000000788e-02 7.606604999999999617e-01 2.633129999999999882e+01 1.453509999999999991e+02 1.777545000000000073e+03
8.800000000000000877e-02 7.605914999999999759e-01 2.550225000000000009e+01 1.449644999999999868e+02 1.777465000000000146e+03
8.899999999999999578e-02 7.605169999999999986e-01 2.468959999999999866e+01 1.445464999999999804e+02 1.777369999999999891e+03
8.999999999999999667e-02 7.604400000000000048e-01 2.390109999999999957e+01 1.441159999999999854e+02 1.777269999999999982e+03
9.099999999999999756e-02 7.603630000000000111e-01 2.314249999999999829e+01 1.436860000000000070e+02 1.777159999999999854e+03
9.199999999999999845e-02 7.602880000000000749e-01 2.241709999999999781e+01 1.432669999999999959e+02 1.777054999999999836e+03
9.299999999999999933e-02 7.602154999999999330e-01 2.172609999999999886e+01 1.428645000000000209e+02 1.776954999999999927e+03
9.400000000000000022e-02 7.601459999999999884e-01 2.106855000000000189e+01 1.424814999999999827e+02 1.776849999999999909e+03
9.500000000000000111e-02 7.600774999999999615e-01 2.044134999999999991e+01 1.421159999999999854e+02 1.776755000000000109e+03
9.600000000000000200e-02 7.600095000000000045e-01 1.984015000000000128e+01 1.417624999999999886e+02 1.776659999999999854e+03
9.700000000000000289e-02 7.599394999999999900e-01 1.925915000000000177e+01 1.414139999999999873e+02 1.776559999999999945e+03
9.800000000000000377e-02 7.598654999999999715e-01 1.869184999999999874e+01 1.410604999999999905e+02 1.776470000000000027e+03
9.900000000000000466e-02 7.597849999999999326e-01 1.813145000000000095e+01 1.406914999999999907e+02 1.776369999999999891e+03
1.000000000000000056e-01 7.596959999999999269e-01 1.757104999999999961e+01 1.402959999999999923e+02 1.776259999999999991e+03
1.010000000000000064e-01 7.595970000000000777e-01 1.700404999999999944e+01 1.398645000000000209e+02 1.776150000000000091e+03
1.020000000000000073e-01 7.594855000000000356e-01 1.642464999999999975e+01 1.393880000000000052e+02 1.776030000000000200e+03
1.030000000000000082e-01 7.593604999999999938e-01 1.582809999999999917e+01 1.388600000000000136e+02 1.775900000000000091e+03
1.040000000000000091e-01 7.592219999999999525e-01 1.521079999999999899e+01 1.382744999999999891e+02 1.775755000000000109e+03
1.050000000000000100e-01 7.590695000000000636e-01 1.457075000000000031e+01 1.376314999999999884e+02 1.775589999999999918e+03
1.059999999999999970e-01 7.589040000000000230e-01 1.390749999999999886e+01 1.369300000000000068e+02 1.775414999999999964e+03
1.069999999999999979e-01 7.587269999999999293e-01 1.322236499999999992e+01 1.361759999999999877e+02 1.775235000000000127e+03
1.079999999999999988e-01 7.585410000000000208e-01 1.251839499999999994e+01 1.353760000000000048e+02 1.775034999999999854e+03
1.089999999999999997e-01 7.583480000000000221e-01 1.180011999999999972e+01 1.345414999999999850e+02 1.774824999999999818e+03
1.100000000000000006e-01 7.581519999999999371e-01 1.107347999999999999e+01 1.336850000000000023e+02 1.774615000000000009e+03
1.110000000000000014e-01 7.579559999999999631e-01 1.034551499999999891e+01 1.328209999999999980e+02 1.774400000000000091e+03
1.120000000000000023e-01 7.577639999999999931e-01 9.623940000000001049e+00 1.319660000000000082e+02 1.774184999999999945e+03
1.130000000000000032e-01 7.575799999999999201e-01 8.916990000000000194e+00 1.311370000000000005e+02 1.773970000000000027e+03
1.140000000000000041e-01 7.574075000000000113e-01 8.232694999999999652e+00 1.303489999999999895e+02 1.773764999999999873e+03
1.150000000000000050e-01 7.572499999999999787e-01 7.578775000000000261e+00 1.296195000000000164e+02 1.773574999999999818e+03
1.160000000000000059e-01 7.571099999999999497e-01 6.962155000000000982e+00 1.289594999999999914e+02 1.773400000000000091e+03
1.170000000000000068e-01 7.569894999999999818e-01 6.388545000000000584e+00 1.283815000000000168e+02 1.773244999999999891e+03
1.180000000000000077e-01 7.568900000000000627e-01 5.862330000000000041e+00 1.278934999999999889e+02 1.773110000000000127e+03
1.190000000000000085e-01 7.568114999999999704e-01 5.386309999999999931e+00 1.274994999999999976e+02 1.773000000000000000e+03
1.200000000000000094e-01 7.567550000000000665e-01 4.961640000000000050e+00 1.272000000000000028e+02 1.772909999999999854e+03
1.209999999999999964e-01 7.567185000000000716e-01 4.587855000000000238e+00 1.269934999999999974e+02 1.772845000000000027e+03
1.219999999999999973e-01 7.567004999999999981e-01 4.262964999999999449e+00 1.268730000000000047e+02 1.772795000000000073e+03
1.229999999999999982e-01 7.566990000000000105e-01 3.983670000000000044e+00 1.268305000000000007e+02 1.772769999999999982e+03
1.239999999999999991e-01 7.567105000000000636e-01 3.745610000000000106e+00 1.268550000000000040e+02 1.772759999999999991e+03
1.250000000000000000e-01 7.567330000000001000e-01 3.543630000000000280e+00 1.269335000000000093e+02 1.772764999999999873e+03
1.260000000000000009e-01 7.567635000000000334e-01 3.372149999999999981e+00 1.270534999999999997e+02 1.772784999999999854e+03
1.270000000000000018e-01 7.567980000000000818e-01 3.225400000000000045e+00 1.272015000000000100e+02 1.772809999999999945e+03
1.280000000000000027e-01 7.568354999999999944e-01 3.097694999999999865e+00 1.273640000000000043e+02 1.772845000000000027e+03
1.290000000000000036e-01 7.568715000000000304e-01 2.983674999999999855e+00 1.275294999999999987e+02 1.772880000000000109e+03
1.300000000000000044e-01 7.569049999999999390e-01 2.878429999999999822e+00 1.276875000000000000e+02 1.772914999999999964e+03
1.310000000000000053e-01 7.569339999999999957e-01 2.777630000000000265e+00 1.278280000000000030e+02 1.772949999999999818e+03
1.320000000000000062e-01 7.569580000000000197e-01 2.677589999999999915e+00 1.279445000000000050e+02 1.772974999999999909e+03
1.330000000000000071e-01 7.569740000000000357e-01 2.575305000000000177e+00 1.280320000000000107e+02 1.772994999999999891e+03
1.340000000000000080e-01 7.569835000000000313e-01 2.468455000000000066e+00 1.280865000000000009e+02 1.773015000000000100e+03
1.350000000000000089e-01 7.569844999999999491e-01 2.355380000000000251e+00 1.281064999999999827e+02 1.773019999999999982e+03
1.360000000000000098e-01 7.569790000000000685e-01 2.235050000000000203e+00 1.280904999999999916e+02 1.773019999999999982e+03
1.370000000000000107e-01 7.569649999999999990e-01 2.107044999999999835e+00 1.280399999999999920e+02 1.773009999999999991e+03
1.380000000000000115e-01 7.569449999999999790e-01 1.971470000000000056e+00 1.279569999999999936e+02 1.772990000000000009e+03
1.390000000000000124e-01 7.569185000000000496e-01 1.828905000000000003e+00 1.278425000000000011e+02 1.772965000000000146e+03
1.400000000000000133e-01 7.568865000000000176e-01 1.680334999999999912e+00 1.277019999999999982e+02 1.772934999999999945e+03
1.410000000000000142e-01 7.568500000000000227e-01 1.527035499999999990e+00 1.275370000000000061e+02 1.772894999999999982e+03
1.420000000000000151e-01 7.568099999999999827e-01 1.370528999999999886e+00 1.273534999999999968e+02 1.772855000000000018e+03
1.430000000000000160e-01 7.567660000000000498e-01 1.212422499999999959e+00 1.271544999999999987e+02 1.772805000000000064e+03
1.440000000000000169e-01 7.567209999999999770e-01 1.054349500000000051e+00 1.269425000000000097e+02 1.772755000000000109e+03
1.450000000000000178e-01 7.566739999999999577e-01 8.978694999999999871e-01 1.267224999999999966e+02 1.772700000000000045e+03
1.459999999999999909e-01 7.566260000000000208e-01 7.443718499999999461e-01 1.264954999999999927e+02 1.772644999999999982e+03
1.469999999999999918e-01 7.565775000000000139e-01 5.950288500000000536e-01 1.262659999999999911e+02 1.772590000000000146e+03
1.479999999999999927e-01 7.565279999999999783e-01 4.507375000000000687e-01 1.260335000000000036e+02 1.772525000000000091e+03
1.489999999999999936e-01 7.564790000000000125e-01 3.121159999999999490e-01 1.257990000000000066e+02 1.772470000000000027e+03
1.499999999999999944e-01 7.564294999999999769e-01 1.794850000000000056e-01 1.255635000000000048e+02 1.772410000000000082e+03
1.509999999999999953e-01 7.563785000000000647e-01 5.290800000000001058e-02 1.253255000000000052e+02 1.772349999999999909e+03
1.519999999999999962e-01 7.563280000000000003e-01 -6.777149999999998453e-02 1.250840000000000032e+02 1.772289999999999964e+03
1.529999999999999971e-01 7.562750000000000306e-01 -1.828810000000000158e-01 1.248379999999999939e+02 1.772224999999999909e+03
1.539999999999999980e-01 7.562210000000000321e-01 -2.928499999999999992e-01 1.245865000000000009e+02 1.772164999999999964e+03
1.549999999999999989e-01 7.561649999999999761e-01 -3.981480000000000019e-01 1.243259999999999934e+02 1.772095000000000027e+03
1.559999999999999998e-01 7.561059999999999448e-01 -4.992293999999999898e-01 1.240564999999999998e+02 1.772025000000000091e+03
1.570000000000000007e-01 7.560445000000000082e-01 -5.964737999999999429e-01 1.237760000000000105e+02 1.771954999999999927e+03
1.580000000000000016e-01 7.559804999999999442e-01 -6.901499999999999302e-01 1.234844999999999970e+02 1.771880000000000109e+03
1.590000000000000024e-01 7.559135000000000160e-01 -7.804009999999999003e-01 1.231804999999999950e+02 1.771805000000000064e+03
