# t [s], A [cm^2], U [cm/s], P [cPa], c [cm/s]
1.000000000000000021e-03 6.535284999999999567e-01 7.137499999999998013e-03 1.035630000000000024e+02 1.826684999999999945e+03
2.000000000000000042e-03 6.535185000000000022e-01 -5.208850000000000112e-04 1.035300000000000011e+02 1.826675000000000182e+03
3.000000000000000062e-03 6.535765000000000047e-01 1.124417500000000070e-01 1.036719999999999970e+02 1.826710000000000036e+03
4.000000000000000083e-03 6.536144999999999872e-01 2.033488999999999991e-01 1.037969999999999970e+02 1.826730000000000018e+03
5.000000000000000104e-03 6.535714999999999719e-01 1.470664999999999889e-01 1.036699999999999875e+02 1.826710000000000036e+03
6.000000000000000125e-03 6.535089999999998955e-01 4.718899999999998096e-02 1.033905000000000030e+02 1.826654999999999973e+03
7.000000000000000146e-03 6.534524999999999917e-01 -5.146549999999999736e-02 1.030480000000000018e+02 1.826585000000000036e+03
8.000000000000000167e-03 6.533484999999999987e-01 -2.588300000000000045e-01 1.025020000000000095e+02 1.826474999999999909e+03
9.000000000000001055e-03 6.531810000000000116e-01 -6.116150000000000198e-01 1.016605500000000006e+02 1.826309999999999945e+03
1.000000000000000194e-02 6.529350000000000431e-01 -1.132319999999999993e+00 1.004437000000000069e+02 1.826069999999999936e+03
1.099999999999999936e-02 6.525909999999999211e-01 -1.846494999999999997e+00 9.875685000000000002e+01 1.825724999999999909e+03
1.200000000000000025e-02 6.521730000000000027e-01 -2.683840000000000003e+00 9.663715000000000543e+01 1.825289999999999964e+03
1.300000000000000114e-02 6.517539999999999445e-01 -3.467789999999999928e+00 9.431255000000000166e+01 1.824795000000000073e+03
1.400000000000000203e-02 6.514029999999999543e-01 -4.018219499999999833e+00 9.207544999999998936e+01 1.824295000000000073e+03
1.499999999999999944e-02 6.511449999999999738e-01 -4.245575499999999280e+00 9.012465000000000259e+01 1.823829999999999927e+03
1.600000000000000033e-02 6.509584999999999955e-01 -4.169604999999999784e+00 8.849735000000001151e+01 1.823425000000000182e+03
1.700000000000000122e-02 6.507950000000000124e-01 -3.880904999999999827e+00 8.709409999999999741e+01 1.823049999999999955e+03
1.800000000000000211e-02 6.506089999999999929e-01 -3.485234500000000235e+00 8.575435000000000230e+01 1.822690000000000055e+03
1.900000000000000300e-02 6.503734999999999378e-01 -3.057824000000000098e+00 8.433639999999999759e+01 1.822309999999999945e+03
2.000000000000000042e-02 6.500889999999999169e-01 -2.621338999999999864e+00 8.277240000000000464e+01 1.821909999999999854e+03
2.100000000000000130e-02 6.497744999999999216e-01 -2.151250000000000107e+00 8.108100000000000307e+01 1.821480000000000018e+03
2.200000000000000219e-02 6.494579999999999798e-01 -1.602824999999999944e+00 7.933914999999998940e+01 1.821039999999999964e+03
2.299999999999999961e-02 6.491595000000000004e-01 -9.449699999999998656e-01 7.763030000000000541e+01 1.820599999999999909e+03
2.400000000000000050e-02 6.488810000000000411e-01 -1.849650000000000460e-01 7.599600000000000932e+01 1.820170000000000073e+03
2.500000000000000139e-02 6.486049999999999871e-01 6.243999999999998440e-01 7.440905000000000769e+01 1.819755000000000109e+03
2.600000000000000228e-02 6.483035000000000325e-01 1.395174999999999832e+00 7.277564999999999884e+01 1.819325000000000045e+03
2.700000000000000316e-02 6.479420000000000179e-01 2.026654999999999873e+00 7.096134999999999593e+01 1.818865000000000009e+03
2.800000000000000058e-02 6.474944999999999729e-01 2.432629999999999626e+00 6.883324999999999250e+01 1.818349999999999909e+03
2.900000000000000147e-02 6.469525000000000414e-01 2.565350000000000019e+00 6.630455000000000609e+01 1.817750000000000000e+03
3.000000000000000236e-02 6.463280000000000136e-01 2.428325000000000067e+00 6.336684999999999945e+01 1.817079999999999927e+03
3.099999999999999978e-02 6.456494999999999873e-01 2.073534999999999684e+00 6.009924999999999784e+01 1.816335000000000036e+03
3.200000000000000067e-02 6.449570000000000025e-01 1.585160000000000124e+00 5.665229999999999677e+01 1.815545000000000073e+03
3.300000000000000155e-02 6.442930000000000046e-01 1.056799999999999962e+00 5.321439999999999770e+01 1.814750000000000000e+03
3.400000000000000244e-02 6.436915000000000830e-01 5.719799999999999329e-01 4.997504999999999598e+01 1.813985000000000127e+03
3.500000000000000333e-02 6.431765000000000398e-01 1.918099999999998140e-01 4.709534999999999627e+01 1.813289999999999964e+03
3.600000000000000422e-02 6.427614999999999856e-01 -4.778499999999974435e-02 4.469169999999999732e+01 1.812690000000000055e+03
3.700000000000000511e-02 6.424499999999999655e-01 -1.321550000000000225e-01 4.283265000000000100e+01 1.812199999999999818e+03
3.799999999999999906e-02 6.422404999999999919e-01 -5.985499999999999154e-02 4.154579999999999984e+01 1.811840000000000146e+03
3.899999999999999994e-02 6.421289999999999498e-01 1.660900000000000709e-01 4.083095000000000141e+01 1.811605000000000018e+03
4.000000000000000083e-02 6.421124999999999750e-01 5.451064999999999383e-01 4.067449999999999477e+01 1.811505000000000109e+03
4.100000000000000172e-02 6.421909999999999563e-01 1.082459100000000118e+00 4.106015000000000015e+01 1.811525000000000091e+03
4.200000000000000261e-02 6.423624999999999474e-01 1.788571000000000133e+00 4.197450000000000614e+01 1.811675000000000182e+03
4.300000000000000350e-02 6.426294999999999646e-01 2.675231999999999832e+00 4.340675000000000239e+01 1.811944999999999936e+03
4.400000000000000439e-02 6.429905000000000204e-01 3.750362999999999669e+00 4.534385000000000332e+01 1.812339999999999918e+03
4.499999999999999833e-02 6.434400000000000119e-01 5.013327499999999937e+00 4.776375000000000171e+01 1.812849999999999909e+03
4.599999999999999922e-02 6.439705000000000013e-01 6.452162649999999999e+00 5.063020000000000209e+01 1.813460000000000036e+03
4.700000000000000011e-02 6.445699999999999763e-01 8.043433000000000277e+00 5.389039999999999964e+01 1.814175000000000182e+03
4.800000000000000100e-02 6.452240000000000197e-01 9.754049999999999443e+00 5.747614999999999696e+01 1.814970000000000027e+03
4.900000000000000189e-02 6.459155000000000868e-01 1.154503500000000038e+01 6.130799999999999983e+01 1.815829999999999927e+03
5.000000000000000278e-02 6.466290000000000093e-01 1.337586499999999923e+01 6.530205000000000837e+01 1.816740000000000009e+03
5.100000000000000366e-02 6.473500000000000920e-01 1.520821000000000112e+01 6.937709999999999866e+01 1.817679999999999836e+03
5.200000000000000455e-02 6.480654999999999610e-01 1.700944000000000145e+01 7.346105000000000018e+01 1.818639999999999873e+03
5.300000000000000544e-02 6.487689999999999291e-01 1.875424999999999898e+01 7.749599999999999511e+01 1.819595000000000027e+03
5.399999999999999939e-02 6.494539999999999758e-01 2.042530000000000001e+01 8.144100000000000250e+01 1.820539999999999964e+03
5.500000000000000028e-02 6.501194999999999613e-01 2.201290000000000191e+01 8.527240000000000464e+01 1.821464999999999918e+03
5.600000000000000117e-02 6.507659999999999556e-01 2.351355000000000217e+01 8.898199999999999932e+01 1.822375000000000000e+03
5.700000000000000205e-02 6.513949999999999463e-01 2.492855000000000132e+01 9.257564999999999600e+01 1.823259999999999991e+03
5.800000000000000294e-02 6.520105000000000484e-01 2.626229999999999976e+01 9.606810000000000116e+01 1.824125000000000000e+03
5.900000000000000383e-02 6.526175000000000725e-01 2.752089999999999748e+01 9.947899999999999920e+01 1.824970000000000027e+03
6.000000000000000472e-02 6.532180000000000764e-01 2.871054999999999779e+01 1.028304500000000132e+02 1.825799999999999955e+03
6.099999999999999867e-02 6.538159999999999528e-01 2.983664999999999878e+01 1.061420999999999992e+02 1.826625000000000000e+03
6.199999999999999956e-02 6.544130000000000225e-01 3.090285000000000082e+01 1.094304999999999950e+02 1.827440000000000055e+03
6.300000000000000044e-02 6.550099999999999811e-01 3.191055000000000064e+01 1.127034999999999911e+02 1.828255000000000109e+03
6.400000000000000133e-02 6.556045000000000345e-01 3.285829999999999984e+01 1.159610000000000127e+02 1.829059999999999945e+03
6.500000000000000222e-02 6.561960000000000015e-01 3.374240000000000350e+01 1.191954999999999956e+02 1.829869999999999891e+03
6.600000000000000311e-02 6.567795000000000716e-01 3.455705000000000382e+01 1.223919999999999959e+02 1.830659999999999854e+03
6.700000000000000400e-02 6.573510000000000186e-01 3.529524999999999579e+01 1.255270000000000152e+02 1.831445000000000164e+03
6.800000000000000488e-02 6.579055000000000319e-01 3.594955000000000211e+01 1.285774999999999864e+02 1.832210000000000036e+03
6.900000000000000577e-02 6.584375000000000089e-01 3.651274999999999693e+01 1.315149999999999864e+02 1.832949999999999818e+03
7.000000000000000666e-02 6.589439999999999742e-01 3.697860000000000014e+01 1.343145000000000095e+02 1.833664999999999964e+03
7.100000000000000755e-02 6.594200000000000061e-01 3.734230000000000160e+01 1.369509999999999934e+02 1.834340000000000146e+03
7.200000000000000844e-02 6.598625000000000185e-01 3.760049999999999670e+01 1.394044999999999845e+02 1.834970000000000027e+03
7.300000000000000933e-02 6.602695000000000647e-01 3.775154999999999461e+01 1.416589999999999918e+02 1.835555000000000064e+03
7.399999999999999634e-02 6.606380000000000585e-01 3.779495000000000005e+01 1.437009999999999934e+02 1.836095000000000027e+03
7.499999999999999722e-02 6.609684999999999588e-01 3.773205000000000098e+01 1.455255000000000223e+02 1.836585000000000036e+03
7.599999999999999811e-02 6.612595000000000001e-01 3.756550000000000011e+01 1.471274999999999977e+02 1.837019999999999982e+03
7.699999999999999900e-02 6.615115000000000300e-01 3.729950000000000188e+01 1.485084999999999980e+02 1.837394999999999982e+03
7.799999999999999989e-02 6.617254999999999665e-01 3.693994999999999607e+01 1.496754999999999995e+02 1.837724999999999909e+03
7.900000000000000078e-02 6.619045000000000067e-01 3.649450000000000216e+01 1.506374999999999886e+02 1.838005000000000109e+03
8.000000000000000167e-02 6.620500000000000274e-01 3.597249999999999659e+01 1.514089999999999918e+02 1.838235000000000127e+03
8.100000000000000255e-02 6.621664999999999912e-01 3.538479999999999848e+01 1.520074999999999932e+02 1.838420000000000073e+03
8.200000000000000344e-02 6.622565000000000257e-01 3.474374999999999858e+01 1.524540000000000077e+02 1.838565000000000055e+03
8.300000000000000433e-02 6.623255000000000114e-01 3.406220000000000425e+01 1.527725000000000080e+02 1.838679999999999836e+03
8.400000000000000522e-02 6.623775000000000635e-01 3.335354999999999848e+01 1.529869999999999948e+02 1.838759999999999991e+03
8.500000000000000611e-02 6.624170000000000336e-01 3.263054999999999950e+01 1.531204999999999927e+02 1.838819999999999936e+03
8.600000000000000699e-02 6.624464999999999382e-01 3.190455000000000041e+01 1.531979999999999791e+02 1.838859999999999900e+03
8.700000000000000788e-02 6.624710000000000321e-01 3.118549999999999756e+01 1.532375000000000114e+02 1.838884999999999991e+03
8.800000000000000877e-02 6.624919999999999698e-01 3.048090000000000188e+01 1.532560000000000002e+02 1.838904999999999973e+03
8.899999999999999578e-02 6.625105000000000022e-01 2.979589999999999961e+01 1.532635000000000218e+02 1.838920000000000073e+03
8.999999999999999667e-02 6.625274999999999359e-01 2.913295000000000101e+01 1.532669999999999959e+02 1.838925000000000182e+03
9.099999999999999756e-02 6.625425000000000342e-01 2.849224999999999852e+01 1.532669999999999959e+02 1.838925000000000182e+03
9.199999999999999845e-02 6.625550000000000050e-01 2.787174999999999869e+01 1.532595000000000027e+02 1.838929999999999836e+03
9.299999999999999933e-02 6.625624999999999432e-01 2.726774999999999949e+01 1.532384999999999877e+02 1.838929999999999836e+03
9.400000000000000022e-02 6.625634999999999719e-01 2.667530000000000001e+01 1.531930000000000121e+02 1.838914999999999964e+03
9.500000000000000111e-02 6.625550000000000050e-01 2.608854999999999791e+01 1.531114999999999782e+02 1.838900000000000091e+03
9.600000000000000200e-02 6.625364999999999727e-01 2.550130000000000052e+01 1.529809999999999945e+02 1.838869999999999891e+03
9.700000000000000289e-02 6.625045000000000517e-01 2.490755000000000052e+01 1.527900000000000205e+02 1.838825000000000045e+03
9.800000000000000377e-02 6.624570000000000736e-01 2.430170000000000030e+01 1.525260000000000105e+02 1.838769999999999982e+03
9.900000000000000466e-02 6.623939999999999273e-01 2.367895000000000039e+01 1.521814999999999998e+02 1.838690000000000055e+03
1.000000000000000056e-01 6.623134999999999994e-01 2.303584999999999994e+01 1.517489999999999952e+02 1.838590000000000146e+03
1.010000000000000064e-01 6.622164999999999857e-01 2.237024999999999864e+01 1.512255000000000109e+02 1.838474999999999909e+03
1.020000000000000073e-01 6.621019999999999683e-01 2.168169999999999931e+01 1.506114999999999782e+02 1.838335000000000036e+03
1.030000000000000082e-01 6.619720000000000049e-01 2.097165000000000035e+01 1.499120000000000061e+02 1.838175000000000182e+03
1.040000000000000091e-01 6.618284999999999307e-01 2.024320000000000164e+01 1.491345000000000027e+02 1.837994999999999891e+03
1.050000000000000100e-01 6.616739999999999844e-01 1.950114999999999910e+01 1.482920000000000016e+02 1.837799999999999955e+03
1.059999999999999970e-01 6.615115000000000300e-01 1.875179999999999936e+01 1.473985000000000127e+02 1.837595000000000027e+03
1.069999999999999979e-01 6.613445000000000018e-01 1.800290000000000035e+01 1.464719999999999800e+02 1.837375000000000000e+03
1.079999999999999988e-01 6.611759999999999859e-01 1.726275000000000048e+01 1.455324999999999989e+02 1.837154999999999973e+03
1.089999999999999997e-01 6.610104999999999453e-01 1.654040000000000177e+01 1.446000000000000227e+02 1.836929999999999836e+03
1.100000000000000006e-01 6.608515000000000361e-01 1.584469999999999956e+01 1.436940000000000168e+02 1.836710000000000036e+03
1.110000000000000014e-01 6.607020000000000115e-01 1.518425000000000047e+01 1.428355000000000246e+02 1.836500000000000000e+03
1.120000000000000023e-01 6.605659999999999865e-01 1.456664999999999921e+01 1.420414999999999850e+02 1.836305000000000064e+03
1.130000000000000032e-01 6.604445000000001009e-01 1.399840000000000018e+01 1.413265000000000100e+02 1.836119999999999891e+03
1.140000000000000041e-01 6.603404999999999969e-01 1.348449000000000098e+01 1.407019999999999982e+02 1.835954999999999927e+03
1.150000000000000050e-01 6.602544999999999664e-01 1.302805499999999839e+01 1.401750000000000114e+02 1.835815000000000055e+03
1.160000000000000059e-01 6.601865000000000094e-01 1.263054999999999950e+01 1.397500000000000000e+02 1.835694999999999936e+03
1.170000000000000068e-01 6.601360000000000561e-01 1.229157999999999973e+01 1.394259999999999877e+02 1.835599999999999909e+03
1.180000000000000077e-01 6.601025000000000365e-01 1.200909500000000030e+01 1.391984999999999957e+02 1.835525000000000091e+03
1.190000000000000085e-01 6.600840000000000041e-01 1.177955000000000041e+01 1.390604999999999905e+02 1.835480000000000018e+03
1.200000000000000094e-01 6.600779999999999426e-01 1.159830000000000005e+01 1.390020000000000095e+02 1.835450000000000045e+03
1.209999999999999964e-01 6.600835000000000452e-01 1.145979499999999973e+01 1.390099999999999909e+02 1.835430000000000064e+03
1.219999999999999973e-01 6.600969999999999338e-01 1.135793999999999926e+01 1.390734999999999957e+02 1.835429999999999836e+03
1.229999999999999982e-01 6.601170000000000648e-01 1.128656499999999951e+01 1.391779999999999973e+02 1.835445000000000164e+03
1.239999999999999991e-01 6.601410000000000888e-01 1.123947000000000074e+01 1.393109999999999786e+02 1.835465000000000146e+03
1.250000000000000000e-01 6.601664999999999894e-01 1.121087999999999951e+01 1.394610000000000127e+02 1.835494999999999891e+03
1.260000000000000009e-01 6.601930000000000298e-01 1.119545000000000101e+01 1.396184999999999832e+02 1.835519999999999982e+03
1.270000000000000018e-01 6.602185000000000414e-01 1.118841499999999911e+01 1.397740000000000009e+02 1.835555000000000064e+03
1.280000000000000027e-01 6.602419999999999956e-01 1.118584500000000048e+01 1.399219999999999970e+02 1.835585000000000036e+03
1.290000000000000036e-01 6.602630000000000443e-01 1.118435000000000024e+01 1.400575000000000045e+02 1.835610000000000127e+03
1.300000000000000044e-01 6.602814999999999657e-01 1.118136499999999955e+01 1.401770000000000209e+02 1.835634999999999991e+03
1.310000000000000053e-01 6.602965000000000639e-01 1.117506500000000003e+01 1.402789999999999964e+02 1.835664999999999964e+03
1.320000000000000062e-01 6.603090000000000348e-01 1.116422500000000007e+01 1.403650000000000091e+02 1.835684999999999945e+03
1.330000000000000071e-01 6.603189999999999893e-01 1.114833499999999944e+01 1.404354999999999905e+02 1.835700000000000045e+03
1.340000000000000080e-01 6.603274999999999562e-01 1.112733000000000061e+01 1.404925000000000068e+02 1.835720000000000027e+03
1.350000000000000089e-01 6.603339999999999765e-01 1.110177000000000014e+01 1.405405000000000086e+02 1.835730000000000018e+03
1.360000000000000098e-01 6.603404999999999969e-01 1.107251000000000118e+01 1.405815000000000055e+02 1.835740000000000009e+03
1.370000000000000107e-01 6.603459999999999885e-01 1.104082000000000008e+01 1.406214999999999975e+02 1.835750000000000000e+03
1.380000000000000115e-01 6.603529999999999678e-01 1.100802000000000014e+01 1.406624999999999943e+02 1.835759999999999991e+03
1.390000000000000124e-01 6.603615000000000457e-01 1.097559000000000040e+01 1.407085000000000150e+02 1.835775000000000091e+03
1.400000000000000133e-01 6.603719999999999590e-01 1.094478499999999954e+01 1.407640000000000100e+02 1.835784999999999854e+03
1.410000000000000142e-01 6.603849999999999998e-01 1.091679500000000047e+01 1.408310000000000173e+02 1.835804999999999836e+03
1.420000000000000151e-01 6.604004999999999459e-01 1.089245000000000019e+01 1.409110000000000014e+02 1.835825000000000045e+03
1.430000000000000160e-01 6.604185000000000194e-01 1.087229500000000115e+01 1.410049999999999955e+02 1.835845000000000027e+03
1.440000000000000169e-01 6.604394999999999571e-01 1.085644500000000079e+01 1.411125000000000114e+02 1.835869999999999891e+03
1.450000000000000178e-01 6.604624999999999524e-01 1.084480500000000092e+01 1.412334999999999923e+02 1.835900000000000091e+03
1.459999999999999909e-01 6.604875000000000052e-01 1.083674500000000052e+01 1.413650000000000091e+02 1.835930000000000064e+03
1.469999999999999918e-01 6.605134999999999756e-01 1.083159500000000008e+01 1.415049999999999955e+02 1.835965000000000146e+03
1.479999999999999927e-01 6.605404999999999749e-01 1.082845000000000013e+01 1.416510000000000105e+02 1.836000000000000000e+03
1.489999999999999936e-01 6.605680000000000440e-01 1.082643500000000003e+01 1.417989999999999782e+02 1.836034999999999854e+03
1.499999999999999944e-01 6.605950000000000433e-01 1.082467000000000112e+01 1.419470000000000027e+02 1.836065000000000055e+03
1.509999999999999953e-01 6.606210000000000138e-01 1.082244000000000028e+01 1.420920000000000130e+02 1.836105000000000018e+03
1.519999999999999962e-01 6.606464999999999144e-01 1.081927999999999912e+01 1.422330000000000041e+02 1.836140000000000100e+03
1.529999999999999971e-01 6.606710000000000083e-01 1.081501000000000090e+01 1.423679999999999950e+02 1.836170000000000073e+03
1.539999999999999980e-01 6.606939999999998925e-01 1.080963500000000010e+01 1.424975000000000023e+02 1.836204999999999927e+03
1.549999999999999989e-01 6.607164999999999289e-01 1.080348499999999845e+01 1.426204999999999927e+02 1.836235000000000127e+03
1.559999999999999998e-01 6.607380000000000475e-01 1.079724500000000020e+01 1.427395000000000209e+02 1.836264999999999873e+03
1.570000000000000007e-01 6.607594999999999441e-01 1.079162499999999980e+01 1.428564999999999827e+02 1.836295000000000073e+03
1.580000000000000016e-01 6.607810000000000628e-01 1.078758499999999998e+01 1.429735000000000014e+02 1.836324999999999818e+03
1.590000000000000024e-01 6.608030000000000292e-01 1.078629499999999908e+01 1.430924999999999727e+02 1.836349999999999909e+03
