# t [s], A [cm^2], U [cm/s], P [cPa], c [cm/s]
1.000000000000000021e-03 2.125249999999999917e-01 3.173485000000000333e-01 1.046630000000000109e+02 2.128204999999999927e+03
2.000000000000000042e-03 2.124594999999999956e-01 1.971417000000000197e+00 1.010494999999999948e+02 2.127765000000000327e+03
3.000000000000000062e-03 2.122870000000000035e-01 4.035688500000000012e+00 9.594450000000000500e+01 2.126644999999999982e+03
4.000000000000000083e-03 2.120544999999999791e-01 6.369828000000000046e+00 9.038630000000000564e+01 2.125159999999999854e+03
5.000000000000000104e-03 2.118090000000000250e-01 8.877890000000000725e+00 8.543704999999999927e+01 2.123605000000000018e+03
6.000000000000000125e-03 2.115754999999999997e-01 1.133300000000000018e+01 8.140304999999999325e+01 2.122154999999999745e+03
7.000000000000000146e-03 2.113595000000000057e-01 1.347818499999999986e+01 7.795555000000000234e+01 2.120829999999999927e+03
8.000000000000000167e-03 2.111645000000000050e-01 1.524075000000000024e+01 7.487030000000000030e+01 2.119654999999999745e+03
9.000000000000001055e-03 2.109965000000000035e-01 1.667709999999999937e+01 7.225524999999998954e+01 2.118664999999999964e+03
1.000000000000000194e-02 2.108590000000000186e-01 1.782679999999999865e+01 7.018469999999999231e+01 2.117860000000000127e+03
1.099999999999999936e-02 2.107494999999999785e-01 1.871480000000000032e+01 6.862100000000000932e+01 2.117234999999999673e+03
1.200000000000000025e-02 2.106669999999999932e-01 1.936469999999999914e+01 6.749060000000000059e+01 2.116764999999999873e+03
1.300000000000000114e-02 2.106045000000000000e-01 1.978215000000000146e+01 6.665739999999999554e+01 2.116420000000000073e+03
1.400000000000000203e-02 2.105560000000000209e-01 1.998910000000000053e+01 6.598120000000000118e+01 2.116159999999999854e+03
1.499999999999999944e-02 2.105210000000000137e-01 2.008725000000000094e+01 6.551659999999999684e+01 2.115975000000000364e+03
1.600000000000000033e-02 2.105075000000000141e-01 2.025459999999999994e+01 6.559929999999999950e+01 2.115920000000000073e+03
1.700000000000000122e-02 2.105290000000000217e-01 2.065749999999999886e+01 6.665889999999998849e+01 2.116055000000000291e+03
1.800000000000000211e-02 2.105945000000000178e-01 2.134929999999999950e+01 6.889865000000000350e+01 2.116434999999999945e+03
1.900000000000000300e-02 2.106999999999999984e-01 2.223199999999999932e+01 7.208944999999999936e+01 2.117055000000000291e+03
2.000000000000000042e-02 2.108275000000000010e-01 2.309844999999999970e+01 7.560859999999999559e+01 2.117819999999999709e+03
2.100000000000000130e-02 2.109544999999999892e-01 2.372144999999999726e+01 7.867825000000000557e+01 2.118579999999999927e+03
2.200000000000000219e-02 2.110555000000000070e-01 2.394385000000000119e+01 8.066344999999999743e+01 2.119210000000000036e+03
2.299999999999999961e-02 2.111164999999999847e-01 2.372984999999999900e+01 8.129155000000000086e+01 2.119605000000000018e+03
2.400000000000000050e-02 2.111335000000000017e-01 2.316274999999999906e+01 8.070994999999999209e+01 2.119735000000000127e+03
2.500000000000000139e-02 2.111164999999999847e-01 2.239699999999999847e+01 7.937584999999999980e+01 2.119654999999999745e+03
2.600000000000000228e-02 2.110805000000000042e-01 2.159019999999999939e+01 7.784335000000000093e+01 2.119449999999999818e+03
2.700000000000000316e-02 2.110409999999999786e-01 2.084584999999999866e+01 7.654779999999999518e+01 2.119215000000000146e+03
2.800000000000000058e-02 2.110070000000000001e-01 2.018679999999999808e+01 7.567214999999998781e+01 2.119014999999999873e+03
2.900000000000000147e-02 2.109810000000000019e-01 1.956515000000000271e+01 7.513210000000000832e+01 2.118855000000000018e+03
3.000000000000000236e-02 2.109584999999999932e-01 1.889634999999999820e+01 7.466325000000000500e+01 2.118720000000000255e+03
3.099999999999999978e-02 2.109314999999999940e-01 1.810435000000000016e+01 7.396360000000001378e+01 2.118559999999999945e+03
3.200000000000000067e-02 2.108909999999999951e-01 1.715979999999999706e+01 7.283670000000000755e+01 2.118329999999999927e+03
3.300000000000000155e-02 2.108364999999999823e-01 1.610065000000000168e+01 7.128669999999999618e+01 2.118010000000000218e+03
3.400000000000000244e-02 2.107720000000000149e-01 1.502809999999999846e+01 6.953749999999999432e+01 2.117630000000000109e+03
3.500000000000000333e-02 2.107074999999999920e-01 1.407924999999999827e+01 6.797005000000000052e+01 2.117250000000000000e+03
3.600000000000000422e-02 2.106580000000000119e-01 1.338724999999999987e+01 6.700294999999999845e+01 2.116944999999999709e+03
3.700000000000000511e-02 2.106359999999999899e-01 1.304185000000000016e+01 6.695910000000000650e+01 2.116795000000000073e+03
3.799999999999999906e-02 2.106484999999999885e-01 1.306425000000000125e+01 6.796469999999999345e+01 2.116855000000000018e+03
3.899999999999999994e-02 2.106979999999999964e-01 1.340150000000000041e+01 6.990964999999999918e+01 2.117125000000000000e+03
4.000000000000000083e-02 2.107769999999999921e-01 1.394040000000000035e+01 7.247435000000000116e+01 2.117579999999999927e+03
4.100000000000000172e-02 2.108725000000000183e-01 1.453359999999999985e+01 7.520759999999999934e+01 2.118135000000000218e+03
4.200000000000000261e-02 2.109689999999999899e-01 1.502990000000000137e+01 7.762624999999999886e+01 2.118710000000000036e+03
4.300000000000000350e-02 2.110489999999999866e-01 1.530039999999999978e+01 7.931005000000000393e+01 2.119195000000000164e+03
4.400000000000000439e-02 2.111000000000000099e-01 1.525619999999999976e+01 7.997010000000000218e+01 2.119510000000000218e+03
4.499999999999999833e-02 2.111125000000000085e-01 1.485565000000000069e+01 7.948009999999999309e+01 2.119600000000000364e+03
4.599999999999999922e-02 2.110834999999999795e-01 1.410109999999999886e+01 7.787020000000001119e+01 2.119439999999999600e+03
4.700000000000000011e-02 2.110135000000000205e-01 1.302909999999999968e+01 7.529314999999999714e+01 2.119045000000000073e+03
4.800000000000000100e-02 2.109084999999999988e-01 1.169740499999999983e+01 7.197480000000000189e+01 2.118430000000000291e+03
4.900000000000000189e-02 2.107765000000000055e-01 1.017276000000000025e+01 6.816479999999999961e+01 2.117654999999999745e+03
5.000000000000000278e-02 2.106250000000000067e-01 8.521944999999998771e+00 6.409870000000000800e+01 2.116760000000000218e+03
5.100000000000000366e-02 2.104630000000000112e-01 6.807140000000000413e+00 5.997624999999999318e+01 2.115795000000000073e+03
5.200000000000000455e-02 2.102974999999999983e-01 5.085259999999999891e+00 5.595754999999999768e+01 2.114804999999999836e+03
5.300000000000000544e-02 2.101339999999999875e-01 3.409828500000000151e+00 5.217005000000000337e+01 2.113829999999999927e+03
5.399999999999999939e-02 2.099789999999999990e-01 1.833424999999999638e+00 4.872234999999999872e+01 2.112900000000000091e+03
5.500000000000000028e-02 2.098375000000000101e-01 4.096049999999999969e-01 4.571710000000000207e+01 2.112045000000000073e+03
5.600000000000000117e-02 2.097134999999999971e-01 -8.068549999999999889e-01 4.325914999999999822e+01 2.111300000000000182e+03
5.700000000000000205e-02 2.096125000000000071e-01 -1.761584499999999887e+00 4.145659999999999457e+01 2.110679999999999836e+03
5.800000000000000294e-02 2.095390000000000030e-01 -2.403889999999999638e+00 4.041535000000000366e+01 2.110224999999999909e+03
5.900000000000000383e-02 2.094975000000000032e-01 -2.690825000000000244e+00 4.022865000000000180e+01 2.109960000000000036e+03
6.000000000000000472e-02 2.094909999999999828e-01 -2.591289999999999871e+00 4.096540000000000248e+01 2.109899999999999636e+03
6.099999999999999867e-02 2.095230000000000148e-01 -2.089262500000000244e+00 4.265955000000000297e+01 2.110065000000000055e+03
6.199999999999999956e-02 2.095945000000000169e-01 -1.185599499999999917e+00 4.530355000000000132e+01 2.110460000000000036e+03
6.300000000000000044e-02 2.097034999999999871e-01 1.018299999999998651e-01 4.884659999999999513e+01 2.111090000000000146e+03
6.400000000000000133e-02 2.098495000000000221e-01 1.739465000000000039e+00 5.319759999999999422e+01 2.111940000000000055e+03
6.500000000000000222e-02 2.100285000000000069e-01 3.680574000000000012e+00 5.823275000000000290e+01 2.112984999999999673e+03
6.600000000000000311e-02 2.102350000000000052e-01 5.868454999999999977e+00 6.380460000000000775e+01 2.114204999999999927e+03
6.700000000000000400e-02 2.104634999999999978e-01 8.239964999999999762e+00 6.975289999999999679e+01 2.115559999999999945e+03
6.800000000000000488e-02 2.107085000000000208e-01 1.072897000000000034e+01 7.591455000000000553e+01 2.117010000000000218e+03
6.900000000000000577e-02 2.109620000000000106e-01 1.326973500000000072e+01 8.213304999999999723e+01 2.118525000000000091e+03
7.000000000000000666e-02 2.112195000000000045e-01 1.580030000000000001e+01 8.826664999999999850e+01 2.120074999999999818e+03
7.100000000000000755e-02 2.114749999999999963e-01 1.826529999999999987e+01 9.419550000000000978e+01 2.121605000000000018e+03
7.200000000000000844e-02 2.117235000000000089e-01 2.061820000000000164e+01 9.982744999999999891e+01 2.123109999999999673e+03
7.300000000000000933e-02 2.119610000000000105e-01 2.282375000000000043e+01 1.051002000000000010e+02 2.124550000000000182e+03
7.399999999999999634e-02 2.121859999999999857e-01 2.485875000000000057e+01 1.099859999999999900e+02 2.125925000000000182e+03
7.499999999999999722e-02 2.123970000000000025e-01 2.671200000000000330e+01 1.144869999999999948e+02 2.127210000000000036e+03
7.599999999999999811e-02 2.125940000000000052e-01 2.838389999999999702e+01 1.186340000000000003e+02 2.128414999999999964e+03
7.699999999999999900e-02 2.127775000000000083e-01 2.988445000000000107e+01 1.224795000000000016e+02 2.129539999999999964e+03
7.799999999999999989e-02 2.129504999999999870e-01 3.123090000000000188e+01 1.260894999999999868e+02 2.130605000000000018e+03
7.900000000000000078e-02 2.131139999999999979e-01 3.244485000000000241e+01 1.295355000000000132e+02 2.131614999999999782e+03
8.000000000000000167e-02 2.132715000000000027e-01 3.354970000000000141e+01 1.328880000000000052e+02 2.132585000000000036e+03
8.100000000000000255e-02 2.134254999999999902e-01 3.456784999999999997e+01 1.362049999999999841e+02 2.133534999999999854e+03
8.200000000000000344e-02 2.135779999999999901e-01 3.551869999999999550e+01 1.395324999999999989e+02 2.134470000000000255e+03
8.300000000000000433e-02 2.137300000000000033e-01 3.641689999999999827e+01 1.428960000000000150e+02 2.135404999999999745e+03
8.400000000000000522e-02 2.138829999999999898e-01 3.727179999999999893e+01 1.463040000000000020e+02 2.136345000000000255e+03
8.500000000000000611e-02 2.140365000000000184e-01 3.808689999999999998e+01 1.497439999999999998e+02 2.137289999999999964e+03
8.600000000000000699e-02 2.141905000000000059e-01 3.885989999999999611e+01 1.531904999999999859e+02 2.138234999999999673e+03
8.700000000000000788e-02 2.143440000000000067e-01 3.958374999999999488e+01 1.566020000000000039e+02 2.139175000000000182e+03
8.800000000000000877e-02 2.144944999999999768e-01 4.024715000000000487e+01 1.599295000000000186e+02 2.140099999999999909e+03
8.899999999999999578e-02 2.146409999999999985e-01 4.083605000000000018e+01 1.631184999999999832e+02 2.141000000000000000e+03
8.999999999999999667e-02 2.147809999999999997e-01 4.133440000000000225e+01 1.661134999999999877e+02 2.141869999999999891e+03
9.099999999999999756e-02 2.149119999999999919e-01 4.172565000000000168e+01 1.688589999999999804e+02 2.142675000000000182e+03
9.199999999999999845e-02 2.150325000000000153e-01 4.199394999999999811e+01 1.713050000000000068e+02 2.143425000000000182e+03
9.299999999999999933e-02 2.151405000000000123e-01 4.212489999999999668e+01 1.734110000000000014e+02 2.144090000000000146e+03
9.400000000000000022e-02 2.152339999999999809e-01 4.210699999999999932e+01 1.751430000000000007e+02 2.144675000000000182e+03
9.500000000000000111e-02 2.153120000000000034e-01 4.193205000000000382e+01 1.764784999999999968e+02 2.145159999999999854e+03
9.600000000000000200e-02 2.153729999999999811e-01 4.159604999999999819e+01 1.774080000000000155e+02 2.145545000000000073e+03
9.700000000000000289e-02 2.154169999999999974e-01 4.109960000000000235e+01 1.779329999999999927e+02 2.145829999999999927e+03
9.800000000000000377e-02 2.154439999999999966e-01 4.044804999999999495e+01 1.780670000000000073e+02 2.146010000000000218e+03
9.900000000000000466e-02 2.154550000000000076e-01 3.965124999999999744e+01 1.778379999999999939e+02 2.146085000000000036e+03
1.000000000000000056e-01 2.154510000000000036e-01 3.872350000000000136e+01 1.772805000000000177e+02 2.146074999999999818e+03
1.010000000000000064e-01 2.154335000000000000e-01 3.768285000000000196e+01 1.764410000000000025e+02 2.145974999999999909e+03
1.020000000000000073e-01 2.154034999999999977e-01 3.654994999999999550e+01 1.753679999999999950e+02 2.145805000000000291e+03
1.030000000000000082e-01 2.153634999999999855e-01 3.534754999999999825e+01 1.741175000000000068e+02 2.145569999999999709e+03
1.040000000000000091e-01 2.153165000000000218e-01 3.409920000000000329e+01 1.727444999999999879e+02 2.145284999999999854e+03
1.050000000000000100e-01 2.152629999999999821e-01 3.282819999999999538e+01 1.713020000000000209e+02 2.144960000000000036e+03
1.059999999999999970e-01 2.152069999999999816e-01 3.155695000000000050e+01 1.698400000000000034e+02 2.144619999999999891e+03
1.069999999999999979e-01 2.151490000000000069e-01 3.030559999999999832e+01 1.684014999999999986e+02 2.144264999999999873e+03
1.079999999999999988e-01 2.150914999999999910e-01 2.909174999999999756e+01 1.670229999999999961e+02 2.143914999999999964e+03
1.089999999999999997e-01 2.150354999999999905e-01 2.792950000000000088e+01 1.657325000000000159e+02 2.143574999999999818e+03
1.100000000000000006e-01 2.149830000000000074e-01 2.682934999999999803e+01 1.645484999999999900e+02 2.143244999999999891e+03
1.110000000000000014e-01 2.149334999999999996e-01 2.579785000000000039e+01 1.634780000000000086e+02 2.142940000000000055e+03
1.120000000000000023e-01 2.148884999999999823e-01 2.483735000000000070e+01 1.625219999999999914e+02 2.142659999999999854e+03
1.130000000000000032e-01 2.148474999999999968e-01 2.394624999999999915e+01 1.616709999999999923e+02 2.142399999999999636e+03
1.140000000000000041e-01 2.148100000000000009e-01 2.311950000000000216e+01 1.609060000000000059e+02 2.142164999999999964e+03
1.150000000000000050e-01 2.147749999999999937e-01 2.234875000000000256e+01 1.602040000000000077e+02 2.141954999999999927e+03
1.160000000000000059e-01 2.147430000000000172e-01 2.162284999999999968e+01 1.595355000000000132e+02 2.141750000000000000e+03
1.170000000000000068e-01 2.147114999999999996e-01 2.092905000000000015e+01 1.588665000000000020e+02 2.141550000000000182e+03
1.180000000000000077e-01 2.146795000000000231e-01 2.025349999999999895e+01 1.581634999999999991e+02 2.141355000000000018e+03
1.190000000000000085e-01 2.146465000000000178e-01 1.958194999999999908e+01 1.573934999999999889e+02 2.141144999999999982e+03
1.200000000000000094e-01 2.146099999999999952e-01 1.890095000000000169e+01 1.565249999999999773e+02 2.140920000000000073e+03
1.209999999999999964e-01 2.145700000000000107e-01 1.819849999999999923e+01 1.555320000000000107e+02 2.140675000000000182e+03
1.219999999999999973e-01 2.145245000000000068e-01 1.746455000000000268e+01 1.543944999999999936e+02 2.140394999999999982e+03
1.229999999999999982e-01 2.144734999999999836e-01 1.669200000000000017e+01 1.531005000000000109e+02 2.140085000000000036e+03
1.239999999999999991e-01 2.144155000000000089e-01 1.587685000000000102e+01 1.516460000000000150e+02 2.139730000000000018e+03
1.250000000000000000e-01 2.143519999999999870e-01 1.501845000000000141e+01 1.500349999999999966e+02 2.139345000000000255e+03
1.260000000000000009e-01 2.142815000000000136e-01 1.411965000000000003e+01 1.482810000000000059e+02 2.138920000000000073e+03
1.270000000000000018e-01 2.142060000000000075e-01 1.318660000000000032e+01 1.464060000000000059e+02 2.138460000000000036e+03
1.280000000000000027e-01 2.141255000000000241e-01 1.222868000000000066e+01 1.444365000000000236e+02 2.137965000000000146e+03
1.290000000000000036e-01 2.140414999999999957e-01 1.125749000000000066e+01 1.424074999999999989e+02 2.137454999999999927e+03
1.300000000000000044e-01 2.139544999999999919e-01 1.028676499999999905e+01 1.403559999999999945e+02 2.136930000000000291e+03
1.310000000000000053e-01 2.138674999999999882e-01 9.331315000000000026e+00 1.383215000000000146e+02 2.136399999999999636e+03
1.320000000000000062e-01 2.137809999999999988e-01 8.406314999999999316e+00 1.363430000000000177e+02 2.135869999999999891e+03
1.330000000000000071e-01 2.136965000000000114e-01 7.526645000000000252e+00 1.344575000000000102e+02 2.135349999999999909e+03
1.340000000000000080e-01 2.136160000000000003e-01 6.706025000000000347e+00 1.326985000000000241e+02 2.134864999999999782e+03
1.350000000000000089e-01 2.135410000000000086e-01 5.956400000000000361e+00 1.310935000000000059e+02 2.134399999999999636e+03
1.360000000000000098e-01 2.134714999999999807e-01 5.287444999999999951e+00 1.296649999999999920e+02 2.133974999999999909e+03
1.370000000000000107e-01 2.134095000000000020e-01 4.706179999999999808e+00 1.284259999999999877e+02 2.133590000000000146e+03
1.380000000000000115e-01 2.133555000000000035e-01 4.216730000000000089e+00 1.273845000000000027e+02 2.133255000000000109e+03
1.390000000000000124e-01 2.133089999999999986e-01 3.820274999999999643e+00 1.265395000000000039e+02 2.132965000000000146e+03
1.400000000000000133e-01 2.132709999999999884e-01 3.515139999999999709e+00 1.258845000000000027e+02 2.132725000000000364e+03
1.410000000000000142e-01 2.132399999999999851e-01 3.296985000000000277e+00 1.254064999999999941e+02 2.132529999999999745e+03
1.420000000000000151e-01 2.132165000000000032e-01 3.159144999999999648e+00 1.250859999999999985e+02 2.132380000000000109e+03
1.430000000000000160e-01 2.131994999999999862e-01 3.093024999999999913e+00 1.249025000000000034e+02 2.132269999999999982e+03
1.440000000000000169e-01 2.131879999999999886e-01 3.088505000000000056e+00 1.248305000000000007e+02 2.132199999999999818e+03
1.450000000000000178e-01 2.131814999999999960e-01 3.134454999999999991e+00 1.248435000000000059e+02 2.132150000000000091e+03
1.459999999999999909e-01 2.131784999999999930e-01 3.219170000000000087e+00 1.249154999999999944e+02 2.132125000000000000e+03
1.469999999999999918e-01 2.131779999999999786e-01 3.330829999999999735e+00 1.250204999999999984e+02 2.132119999999999891e+03
1.479999999999999927e-01 2.131794999999999940e-01 3.457934999999999981e+00 1.251334999999999980e+02 2.132125000000000000e+03
1.489999999999999936e-01 2.131810000000000094e-01 3.589665000000000106e+00 1.252325000000000017e+02 2.132130000000000109e+03
1.499999999999999944e-01 2.131824999999999970e-01 3.716204999999999981e+00 1.252980000000000018e+02 2.132140000000000327e+03
1.509999999999999953e-01 2.131830000000000114e-01 3.829054999999999875e+00 1.253145000000000095e+02 2.132139999999999873e+03
1.519999999999999962e-01 2.131815000000000238e-01 3.921199999999999797e+00 1.252700000000000102e+02 2.132130000000000109e+03
1.529999999999999971e-01 2.131780000000000064e-01 3.987280000000000157e+00 1.251550000000000011e+02 2.132109999999999673e+03
1.539999999999999980e-01 2.131715000000000138e-01 4.023674999999999891e+00 1.249660000000000082e+02 2.132074999999999818e+03
1.549999999999999989e-01 2.131625000000000048e-01 4.028509999999999813e+00 1.247035000000000053e+02 2.132025000000000091e+03
1.559999999999999998e-01 2.131504999999999928e-01 4.001635000000000275e+00 1.243685000000000116e+02 2.131949999999999818e+03
1.570000000000000007e-01 2.131359999999999921e-01 3.944435000000000358e+00 1.239689999999999941e+02 2.131864999999999782e+03
1.580000000000000016e-01 2.131190000000000029e-01 3.859725000000000072e+00 1.235130000000000052e+02 2.131764999999999873e+03
1.590000000000000024e-01 2.131000000000000116e-01 3.751444999999999474e+00 1.230124999999999886e+02 2.131644999999999982e+03
