# t [s], A [cm^2], U [cm/s], P [cPa], c [cm/s]
1.000000000000000021e-03 1.432674999999999921e-01 2.319224999999999759e-01 9.787485000000000923e+01 1.906634999999999991e+03
2.000000000000000042e-03 1.432435000000000236e-01 1.645658000000000065e+00 9.507345000000000823e+01 1.906389999999999873e+03
3.000000000000000062e-03 1.431545000000000178e-01 3.411162000000000027e+00 9.130844999999999345e+01 1.905555000000000064e+03
4.000000000000000083e-03 1.430204999999999949e-01 5.383053299999999375e+00 8.701384999999999081e+01 1.904319999999999936e+03
5.000000000000000104e-03 1.428674999999999806e-01 7.509090000000000487e+00 8.289350000000000307e+01 1.902904999999999973e+03
6.000000000000000125e-03 1.427105000000000179e-01 9.688739999999999242e+00 7.934850000000000136e+01 1.901480000000000018e+03
7.000000000000000146e-03 1.425600000000000200e-01 1.176451499999999939e+01 7.637735000000000696e+01 1.900130000000000109e+03
8.000000000000000167e-03 1.424179999999999890e-01 1.360670999999999964e+01 7.377594999999999459e+01 1.898875000000000000e+03
9.000000000000001055e-03 1.422879999999999978e-01 1.518589000000000055e+01 7.144310000000000116e+01 1.897740000000000009e+03
1.000000000000000194e-02 1.421719999999999928e-01 1.653040000000000020e+01 6.942185000000000628e+01 1.896744999999999891e+03
1.099999999999999936e-02 1.420724999999999905e-01 1.766355000000000075e+01 6.775184999999999036e+01 1.895894999999999982e+03
1.200000000000000025e-02 1.419885000000000175e-01 1.859700000000000131e+01 6.641570000000000107e+01 1.895194999999999936e+03
1.300000000000000114e-02 1.419199999999999906e-01 1.934045000000000059e+01 6.536719999999999686e+01 1.894625000000000000e+03
1.400000000000000203e-02 1.418650000000000189e-01 1.989864999999999995e+01 6.453889999999999816e+01 1.894175000000000182e+03
1.499999999999999944e-02 1.418194999999999872e-01 2.027815000000000012e+01 6.385144999999999982e+01 1.893805000000000064e+03
1.600000000000000033e-02 1.417820000000000191e-01 2.050970000000000226e+01 6.326749999999999829e+01 1.893509999999999991e+03
1.700000000000000122e-02 1.417534999999999767e-01 2.066329999999999956e+01 6.285365000000000180e+01 1.893295000000000073e+03
1.800000000000000211e-02 1.417360000000000009e-01 2.083565000000000111e+01 6.278144999999999243e+01 1.893164999999999964e+03
1.900000000000000300e-02 1.417355000000000143e-01 2.111410000000000053e+01 6.324849999999999994e+01 1.893179999999999836e+03
2.000000000000000042e-02 1.417549999999999921e-01 2.153979999999999961e+01 6.436970000000000880e+01 1.893355000000000018e+03
2.100000000000000130e-02 1.417950000000000044e-01 2.209120000000000061e+01 6.610114999999998986e+01 1.893699999999999818e+03
2.200000000000000219e-02 1.418515000000000192e-01 2.269304999999999950e+01 6.823449999999999704e+01 1.894184999999999945e+03
2.299999999999999961e-02 1.419175000000000020e-01 2.324364999999999881e+01 7.045574999999999477e+01 1.894755000000000109e+03
2.400000000000000050e-02 1.419850000000000001e-01 2.364774999999999849e+01 7.243789999999999907e+01 1.895340000000000146e+03
2.500000000000000139e-02 1.420450000000000046e-01 2.384290000000000020e+01 7.392929999999999779e+01 1.895869999999999891e+03
2.600000000000000228e-02 1.420914999999999817e-01 2.381224999999999881e+01 7.481090000000000373e+01 1.896295000000000073e+03
2.700000000000000316e-02 1.421229999999999993e-01 2.358225000000000193e+01 7.510765000000000668e+01 1.896585000000000036e+03
2.800000000000000058e-02 1.421399999999999886e-01 2.320775000000000077e+01 7.495744999999999436e+01 1.896750000000000000e+03
2.900000000000000147e-02 1.421454999999999802e-01 2.275134999999999863e+01 7.455215000000001169e+01 1.896815000000000055e+03
3.000000000000000236e-02 1.421439999999999926e-01 2.226409999999999911e+01 7.407349999999999568e+01 1.896809999999999945e+03
3.099999999999999978e-02 1.421394999999999742e-01 2.177355000000000018e+01 7.364314999999999145e+01 1.896780000000000200e+03
3.200000000000000067e-02 1.421339999999999826e-01 2.128075000000000117e+01 7.330045000000001210e+01 1.896735000000000127e+03
3.300000000000000155e-02 1.421279999999999766e-01 2.076670000000000016e+01 7.300874999999999204e+01 1.896679999999999836e+03
3.400000000000000244e-02 1.421204999999999830e-01 2.020389999999999731e+01 7.268475000000000819e+01 1.896619999999999891e+03
3.500000000000000333e-02 1.421089999999999853e-01 1.956984999999999886e+01 7.223855000000000359e+01 1.896529999999999973e+03
3.600000000000000422e-02 1.420934999999999837e-01 1.885799999999999699e+01 7.161214999999999975e+01 1.896400000000000091e+03
3.700000000000000511e-02 1.420720000000000038e-01 1.808445000000000036e+01 7.080655000000000143e+01 1.896220000000000027e+03
3.799999999999999906e-02 1.420460000000000056e-01 1.728715000000000046e+01 6.989034999999999798e+01 1.896000000000000000e+03
3.899999999999999994e-02 1.420175000000000187e-01 1.652009999999999934e+01 6.898869999999999436e+01 1.895764999999999873e+03
4.000000000000000083e-02 1.419914999999999927e-01 1.584220000000000006e+01 6.825600000000000023e+01 1.895539999999999964e+03
4.100000000000000172e-02 1.419715000000000005e-01 1.530475000000000030e+01 6.784004999999999086e+01 1.895365000000000009e+03
4.200000000000000261e-02 1.419614999999999905e-01 1.494120000000000026e+01 6.784765000000000157e+01 1.895275000000000091e+03
4.300000000000000350e-02 1.419640000000000069e-01 1.476010000000000133e+01 6.831985000000000241e+01 1.895284999999999854e+03
4.400000000000000439e-02 1.419799999999999951e-01 1.474399999999999977e+01 6.922230000000000416e+01 1.895410000000000082e+03
4.499999999999999833e-02 1.420080000000000231e-01 1.485324999999999918e+01 7.045185000000000741e+01 1.895634999999999991e+03
4.599999999999999922e-02 1.420444999999999902e-01 1.503289999999999971e+01 7.185529999999999973e+01 1.895945000000000164e+03
4.700000000000000011e-02 1.420859999999999901e-01 1.522180000000000000e+01 7.325569999999999027e+01 1.896289999999999964e+03
4.800000000000000100e-02 1.421274999999999900e-01 1.536134999999999984e+01 7.448029999999999973e+01 1.896639999999999873e+03
4.900000000000000189e-02 1.421634999999999982e-01 1.540230000000000032e+01 7.538370000000000459e+01 1.896954999999999927e+03
5.000000000000000278e-02 1.421904999999999974e-01 1.530910000000000082e+01 7.586365000000000691e+01 1.897190000000000055e+03
5.100000000000000366e-02 1.422054999999999847e-01 1.506170000000000009e+01 7.586799999999999500e+01 1.897324999999999818e+03
5.200000000000000455e-02 1.422059999999999991e-01 1.465455000000000041e+01 7.539215000000000089e+01 1.897340000000000146e+03
5.300000000000000544e-02 1.421924999999999994e-01 1.409414999999999907e+01 7.447145000000000437e+01 1.897224999999999909e+03
5.399999999999999939e-02 1.421655000000000002e-01 1.339535000000000053e+01 7.316845000000000709e+01 1.897000000000000000e+03
5.500000000000000028e-02 1.421260000000000023e-01 1.257840000000000025e+01 7.156004999999998972e+01 1.896670000000000073e+03
5.600000000000000117e-02 1.420759999999999801e-01 1.166585500000000053e+01 6.972700000000000387e+01 1.896250000000000000e+03
5.700000000000000205e-02 1.420180000000000053e-01 1.068099499999999935e+01 6.774600000000000932e+01 1.895755000000000109e+03
5.800000000000000294e-02 1.419540000000000246e-01 9.647045000000000314e+00 6.568580000000000041e+01 1.895204999999999927e+03
5.900000000000000383e-02 1.418860000000000121e-01 8.587194999999999467e+00 6.360739999999999839e+01 1.894625000000000000e+03
6.000000000000000472e-02 1.418159999999999976e-01 7.525365000000000748e+00 6.156574999999999420e+01 1.894029999999999973e+03
6.099999999999999867e-02 1.417470000000000119e-01 6.486559999999999881e+00 5.961325000000000074e+01 1.893430000000000064e+03
6.199999999999999956e-02 1.416795000000000138e-01 5.497555000000000192e+00 5.780254999999999654e+01 1.892849999999999909e+03
6.300000000000000044e-02 1.416160000000000196e-01 4.586825000000000152e+00 5.618890000000000384e+01 1.892305000000000064e+03
6.400000000000000133e-02 1.415589999999999904e-01 3.784100000000000019e+00 5.483039999999999736e+01 1.891809999999999945e+03
6.500000000000000222e-02 1.415105000000000113e-01 3.119324999999999903e+00 5.378679999999999950e+01 1.891380000000000109e+03
6.600000000000000311e-02 1.414715000000000000e-01 2.621315000000000062e+00 5.311664999999999992e+01 1.891045000000000073e+03
6.700000000000000400e-02 1.414455000000000018e-01 2.316184999999999938e+00 5.287395000000000067e+01 1.890804999999999836e+03
6.800000000000000488e-02 1.414330000000000032e-01 2.225780000000000314e+00 5.310399999999999920e+01 1.890690000000000055e+03
6.900000000000000577e-02 1.414364999999999928e-01 2.366304999999999659e+00 5.383970000000000056e+01 1.890704999999999927e+03
7.000000000000000666e-02 1.414575000000000138e-01 2.747335000000000083e+00 5.509895000000000209e+01 1.890869999999999891e+03
7.100000000000000755e-02 1.414954999999999963e-01 3.371199999999999974e+00 5.688285000000000480e+01 1.891180000000000064e+03
7.200000000000000844e-02 1.415514999999999968e-01 4.232934999999999448e+00 5.917539999999999623e+01 1.891640000000000100e+03
7.300000000000000933e-02 1.416250000000000009e-01 5.320574999999999832e+00 6.194445000000000334e+01 1.892255000000000109e+03
7.399999999999999634e-02 1.417144999999999933e-01 6.615904999999999703e+00 6.514365000000000805e+01 1.893014999999999873e+03
7.499999999999999722e-02 1.418190000000000006e-01 8.095449999999999591e+00 6.871559999999999491e+01 1.893900000000000091e+03
7.599999999999999811e-02 1.419374999999999942e-01 9.731844999999999857e+00 7.259489999999999554e+01 1.894905000000000200e+03
7.699999999999999900e-02 1.420675000000000132e-01 1.149493000000000009e+01 7.671200000000000330e+01 1.896009999999999991e+03
7.799999999999999989e-02 1.422059999999999991e-01 1.335343499999999928e+01 8.099675000000000580e+01 1.897194999999999936e+03
7.900000000000000078e-02 1.423519999999999786e-01 1.527605000000000146e+01 8.538174999999999670e+01 1.898450000000000045e+03
8.000000000000000167e-02 1.425025000000000042e-01 1.723300000000000054e+01 8.980564999999999998e+01 1.899750000000000000e+03
8.100000000000000255e-02 1.426560000000000050e-01 1.919675000000000153e+01 9.421495000000000175e+01 1.901075000000000045e+03
8.200000000000000344e-02 1.428105000000000069e-01 2.114325000000000188e+01 9.856694999999999141e+01 1.902409999999999854e+03
8.300000000000000433e-02 1.429639999999999800e-01 2.305210000000000292e+01 1.028290999999999968e+02 1.903750000000000000e+03
8.400000000000000522e-02 1.431164999999999798e-01 2.490729999999999933e+01 1.069800999999999931e+02 1.905075000000000045e+03
8.500000000000000611e-02 1.432654999999999901e-01 2.669689999999999941e+01 1.110095000000000027e+02 1.906380000000000109e+03
8.600000000000000699e-02 1.434119999999999839e-01 2.841284999999999883e+01 1.149159999999999968e+02 1.907664999999999964e+03
8.700000000000000788e-02 1.435549999999999882e-01 3.005049999999999955e+01 1.187039999999999935e+02 1.908925000000000182e+03
8.800000000000000877e-02 1.436950000000000172e-01 3.160799999999999699e+01 1.223859999999999957e+02 1.910154999999999973e+03
8.899999999999999578e-02 1.438320000000000154e-01 3.308539999999999992e+01 1.259735000000000014e+02 1.911355000000000018e+03
8.999999999999999667e-02 1.439650000000000096e-01 3.448420000000000130e+01 1.294815000000000111e+02 1.912539999999999964e+03
9.099999999999999756e-02 1.440965000000000162e-01 3.580644999999999811e+01 1.329219999999999970e+02 1.913699999999999818e+03
9.199999999999999845e-02 1.442255000000000065e-01 3.705414999999999992e+01 1.363034999999999854e+02 1.914840000000000146e+03
9.299999999999999933e-02 1.443530000000000091e-01 3.822899999999999920e+01 1.396324999999999932e+02 1.915965000000000146e+03
9.400000000000000022e-02 1.444779999999999953e-01 3.933190000000000452e+01 1.429089999999999918e+02 1.917079999999999927e+03
9.500000000000000111e-02 1.446004999999999929e-01 4.036270000000000380e+01 1.461295000000000073e+02 1.918164999999999964e+03
9.600000000000000200e-02 1.447215000000000029e-01 4.132040000000000646e+01 1.492864999999999895e+02 1.919250000000000000e+03
9.700000000000000289e-02 1.448404999999999831e-01 4.220310000000000628e+01 1.523689999999999998e+02 1.920304999999999836e+03
9.800000000000000377e-02 1.449564999999999881e-01 4.300775000000000148e+01 1.553619999999999948e+02 1.921335000000000036e+03
9.900000000000000466e-02 1.450690000000000035e-01 4.373089999999999833e+01 1.582500000000000000e+02 1.922339999999999918e+03
1.000000000000000056e-01 1.451784999999999881e-01 4.436840000000000117e+01 1.610149999999999864e+02 1.923315000000000055e+03
1.010000000000000064e-01 1.452829999999999955e-01 4.491590000000000060e+01 1.636390000000000100e+02 1.924250000000000000e+03
1.020000000000000073e-01 1.453829999999999845e-01 4.536885000000000190e+01 1.661039999999999850e+02 1.925150000000000091e+03
1.030000000000000082e-01 1.454774999999999818e-01 4.572285000000000110e+01 1.683949999999999818e+02 1.925994999999999891e+03
1.040000000000000091e-01 1.455655000000000143e-01 4.597400000000000375e+01 1.704939999999999998e+02 1.926785000000000082e+03
1.050000000000000100e-01 1.456469999999999987e-01 4.611874999999999858e+01 1.723885000000000218e+02 1.927525000000000091e+03
1.059999999999999970e-01 1.457219999999999904e-01 4.615444999999999709e+01 1.740679999999999836e+02 1.928199999999999818e+03
1.069999999999999979e-01 1.457890000000000019e-01 4.607959999999999923e+01 1.755229999999999961e+02 1.928804999999999836e+03
1.079999999999999988e-01 1.458479999999999777e-01 4.589364999999999384e+01 1.767495000000000118e+02 1.929340000000000146e+03
1.089999999999999997e-01 1.458990000000000009e-01 4.559770000000000323e+01 1.777445000000000164e+02 1.929804999999999836e+03
1.100000000000000006e-01 1.459420000000000162e-01 4.519435000000000002e+01 1.785109999999999957e+02 1.930200000000000045e+03
1.110000000000000014e-01 1.459774999999999823e-01 4.468775000000000119e+01 1.790550000000000068e+02 1.930525000000000091e+03
1.120000000000000023e-01 1.460040000000000227e-01 4.408370000000000033e+01 1.793870000000000005e+02 1.930769999999999982e+03
1.130000000000000032e-01 1.460235000000000005e-01 4.338969999999999771e+01 1.795199999999999818e+02 1.930954999999999927e+03
1.140000000000000041e-01 1.460354999999999848e-01 4.261455000000000126e+01 1.794714999999999918e+02 1.931074999999999818e+03
1.150000000000000050e-01 1.460414999999999908e-01 4.176829999999999643e+01 1.792609999999999957e+02 1.931130000000000109e+03
1.160000000000000059e-01 1.460405000000000175e-01 4.086185000000000400e+01 1.789105000000000132e+02 1.931134999999999991e+03
1.170000000000000068e-01 1.460350000000000259e-01 3.990680000000000405e+01 1.784430000000000121e+02 1.931089999999999918e+03
1.180000000000000077e-01 1.460245000000000015e-01 3.891494999999999749e+01 1.778810000000000002e+02 1.931005000000000109e+03
1.190000000000000085e-01 1.460100000000000009e-01 3.789785000000000537e+01 1.772479999999999905e+02 1.930884999999999991e+03
1.200000000000000094e-01 1.459924999999999973e-01 3.686679999999999779e+01 1.765660000000000025e+02 1.930730000000000018e+03
1.209999999999999964e-01 1.459725000000000050e-01 3.583205000000000240e+01 1.758534999999999968e+02 1.930559999999999945e+03
1.219999999999999973e-01 1.459515000000000118e-01 3.480299999999999727e+01 1.751274999999999977e+02 1.930365000000000009e+03
1.229999999999999982e-01 1.459285000000000165e-01 3.378759999999999764e+01 1.744010000000000105e+02 1.930170000000000073e+03
1.239999999999999991e-01 1.459055000000000213e-01 3.279245000000000232e+01 1.736860000000000070e+02 1.929960000000000036e+03
1.250000000000000000e-01 1.458824999999999983e-01 3.182245000000000346e+01 1.729889999999999759e+02 1.929755000000000109e+03
1.260000000000000009e-01 1.458589999999999887e-01 3.088110000000000355e+01 1.723129999999999882e+02 1.929545000000000073e+03
1.270000000000000018e-01 1.458359999999999934e-01 2.997025000000000006e+01 1.716585000000000036e+02 1.929339999999999918e+03
1.280000000000000027e-01 1.458129999999999982e-01 2.909009999999999962e+01 1.710229999999999961e+02 1.929134999999999991e+03
1.290000000000000036e-01 1.457904999999999895e-01 2.823969999999999914e+01 1.704019999999999868e+02 1.928934999999999945e+03
1.300000000000000044e-01 1.457680000000000087e-01 2.741669999999999874e+01 1.697870000000000061e+02 1.928730000000000018e+03
1.310000000000000053e-01 1.457459999999999867e-01 2.661795000000000044e+01 1.691690000000000111e+02 1.928529999999999973e+03
1.320000000000000062e-01 1.457235000000000058e-01 2.583924999999999983e+01 1.685384999999999991e+02 1.928325000000000045e+03
1.330000000000000071e-01 1.456999999999999962e-01 2.507609999999999673e+01 1.678840000000000146e+02 1.928119999999999891e+03
1.340000000000000080e-01 1.456759999999999999e-01 2.432349999999999923e+01 1.671949999999999932e+02 1.927900000000000091e+03
1.350000000000000089e-01 1.456510000000000027e-01 2.357659999999999911e+01 1.664604999999999961e+02 1.927670000000000073e+03
1.360000000000000098e-01 1.456240000000000034e-01 2.283054999999999879e+01 1.656719999999999970e+02 1.927429999999999836e+03
1.370000000000000107e-01 1.455954999999999888e-01 2.208105000000000118e+01 1.648209999999999980e+02 1.927174999999999955e+03
1.380000000000000115e-01 1.455639999999999989e-01 2.132440000000000069e+01 1.639014999999999986e+02 1.926900000000000091e+03
1.390000000000000124e-01 1.455310000000000215e-01 2.055760000000000076e+01 1.629085000000000036e+02 1.926605000000000018e+03
1.400000000000000133e-01 1.454954999999999998e-01 1.977864999999999895e+01 1.618405000000000200e+02 1.926285000000000082e+03
1.410000000000000142e-01 1.454574999999999896e-01 1.898664999999999736e+01 1.606985000000000241e+02 1.925944999999999936e+03
1.420000000000000151e-01 1.454170000000000185e-01 1.818175000000000097e+01 1.594855000000000018e+02 1.925585000000000036e+03
1.430000000000000160e-01 1.453734999999999888e-01 1.736520000000000152e+01 1.582069999999999936e+02 1.925199999999999818e+03
1.440000000000000169e-01 1.453280000000000127e-01 1.653944999999999865e+01 1.568714999999999975e+02 1.924800000000000182e+03
1.450000000000000178e-01 1.452809999999999935e-01 1.570795000000000030e+01 1.554879999999999995e+02 1.924380000000000109e+03
1.459999999999999909e-01 1.452315000000000134e-01 1.487504999999999988e+01 1.540704999999999814e+02 1.923940000000000055e+03
1.469999999999999918e-01 1.451810000000000045e-01 1.404599999999999937e+01 1.526310000000000002e+02 1.923494999999999891e+03
1.479999999999999927e-01 1.451294999999999946e-01 1.322659999999999947e+01 1.511859999999999786e+02 1.923039999999999964e+03
1.489999999999999936e-01 1.450779999999999847e-01 1.242292000000000129e+01 1.497485000000000070e+02 1.922585000000000036e+03
1.499999999999999944e-01 1.450265000000000026e-01 1.164152499999999968e+01 1.483365000000000009e+02 1.922130000000000109e+03
1.509999999999999953e-01 1.449755000000000071e-01 1.088855999999999824e+01 1.469619999999999891e+02 1.921675000000000182e+03
1.519999999999999962e-01 1.449259999999999993e-01 1.017012500000000053e+01 1.456409999999999911e+02 1.921230000000000018e+03
1.529999999999999971e-01 1.448774999999999924e-01 9.491749999999999687e+00 1.443849999999999909e+02 1.920799999999999955e+03
1.539999999999999980e-01 1.448315000000000019e-01 8.858209999999999695e+00 1.432044999999999959e+02 1.920389999999999873e+03
1.549999999999999989e-01 1.447875000000000134e-01 8.273559999999999803e+00 1.421080000000000041e+02 1.920000000000000000e+03
1.559999999999999998e-01 1.447465000000000002e-01 7.740834999999999688e+00 1.411020000000000039e+02 1.919634999999999991e+03
1.570000000000000007e-01 1.447080000000000033e-01 7.262019999999999698e+00 1.401895000000000095e+02 1.919295000000000073e+03
1.580000000000000016e-01 1.446729999999999960e-01 6.838095000000000034e+00 1.393720000000000141e+02 1.918974999999999909e+03
1.590000000000000024e-01 1.446409999999999918e-01 6.468969999999999665e+00 1.386479999999999961e+02 1.918690000000000055e+03
