# t [s], A [cm^2], U [cm/s], P [cPa], c [cm/s]
1.000000000000000021e-03 5.393425000000000580e-01 4.343249999999999889e-03 1.023629999999999995e+02 1.514420000000000073e+03
2.000000000000000042e-03 5.393339999999999801e-01 -1.660314999999999881e-03 1.023429999999999893e+02 1.514414999999999964e+03
3.000000000000000062e-03 5.393650000000000944e-01 5.516415000000000207e-02 1.023990000000000009e+02 1.514429999999999836e+03
4.000000000000000083e-03 5.394120000000000026e-01 1.451807499999999973e-01 1.025090000000000003e+02 1.514454999999999927e+03
5.000000000000000104e-03 5.394164999999999655e-01 1.636319999999999997e-01 1.025295000000000130e+02 1.514470000000000027e+03
6.000000000000000125e-03 5.393775000000000652e-01 1.004519999999999857e-01 1.024145000000000039e+02 1.514444999999999936e+03
7.000000000000000146e-03 5.393350000000000088e-01 2.723550000000002358e-02 1.022330000000000041e+02 1.514404999999999973e+03
8.000000000000000167e-03 5.392915000000000347e-01 -5.364199999999996749e-02 1.020005000000000024e+02 1.514355000000000018e+03
9.000000000000001055e-03 5.392175000000000162e-01 -2.022835000000000605e-01 1.016514999999999986e+02 1.514275000000000091e+03
1.000000000000000194e-02 5.391015000000000112e-01 -4.431449999999999001e-01 1.011364999999999981e+02 1.514159999999999854e+03
1.099999999999999936e-02 5.389384999999999870e-01 -7.817300000000000360e-01 1.004218999999999937e+02 1.514005000000000109e+03
1.200000000000000025e-02 5.387159999999999727e-01 -1.232425000000000104e+00 9.946094999999999686e+01 1.513779999999999973e+03
1.300000000000000114e-02 5.384295000000000053e-01 -1.791134999999999700e+00 9.822530000000000427e+01 1.513500000000000000e+03
1.400000000000000203e-02 5.380970000000000475e-01 -2.403464999999999741e+00 9.674899999999999523e+01 1.513150000000000091e+03
1.499999999999999944e-02 5.377564999999999706e-01 -2.973145000000000149e+00 9.513460000000000605e+01 1.512755000000000109e+03
1.600000000000000033e-02 5.374444999999999917e-01 -3.401410000000000267e+00 9.351150000000001228e+01 1.512345000000000027e+03
1.700000000000000122e-02 5.371820000000000483e-01 -3.623615999999999726e+00 9.198924999999999841e+01 1.511944999999999936e+03
1.800000000000000211e-02 5.369690000000000296e-01 -3.623875500000000027e+00 9.062315000000000964e+01 1.511559999999999945e+03
1.900000000000000300e-02 5.367885000000000018e-01 -3.428872000000000142e+00 8.941075000000000728e+01 1.511199999999999818e+03
2.000000000000000042e-02 5.366174999999999695e-01 -3.090304400000000395e+00 8.830500000000000682e+01 1.510865000000000009e+03
2.100000000000000130e-02 5.364329999999999377e-01 -2.664899999999999824e+00 8.723799999999999955e+01 1.510529999999999973e+03
2.200000000000000219e-02 5.362199999999999189e-01 -2.197595000000000187e+00 8.614560000000000173e+01 1.510190000000000055e+03
2.299999999999999961e-02 5.359745000000000203e-01 -1.711640000000000050e+00 8.498659999999999570e+01 1.509835000000000036e+03
2.400000000000000050e-02 5.357020000000000115e-01 -1.207479999999999887e+00 8.375155000000000882e+01 1.509464999999999918e+03
2.500000000000000139e-02 5.354160000000000030e-01 -6.701000000000001400e-01 8.245964999999999634e+01 1.509079999999999927e+03
2.600000000000000228e-02 5.351274999999999782e-01 -8.131000000000021544e-02 8.114560000000000173e+01 1.508690000000000055e+03
2.700000000000000316e-02 5.348465000000000025e-01 5.679449999999999221e-01 7.984265000000000612e+01 1.508295000000000073e+03
2.800000000000000058e-02 5.345735000000000348e-01 1.269414999999999960e+00 7.856844999999999857e+01 1.507910000000000082e+03
2.900000000000000147e-02 5.343029999999999724e-01 1.995335000000000081e+00 7.731620000000000914e+01 1.507525000000000091e+03
3.000000000000000236e-02 5.340194999999999803e-01 2.701925000000000132e+00 7.605455000000000609e+01 1.507134999999999991e+03
3.099999999999999978e-02 5.337100000000000177e-01 3.337155000000000094e+00 7.473384999999998968e+01 1.506735000000000127e+03
3.200000000000000067e-02 5.333585000000000687e-01 3.850579999999999892e+00 7.329755000000000109e+01 1.506315000000000055e+03
3.300000000000000155e-02 5.329554999999999154e-01 4.203279999999999461e+00 7.169624999999999204e+01 1.505860000000000127e+03
3.400000000000000244e-02 5.324984999999999857e-01 4.375339999999999563e+00 6.990064999999999884e+01 1.505365000000000009e+03
3.500000000000000333e-02 5.319945000000000368e-01 4.369860000000000078e+00 6.791089999999999804e+01 1.504824999999999818e+03
3.600000000000000422e-02 5.314570000000000682e-01 4.211885000000000545e+00 6.575945000000000107e+01 1.504244999999999891e+03
3.700000000000000511e-02 5.309074999999999767e-01 3.942979999999999929e+00 6.350789999999999935e+01 1.503644999999999982e+03
3.799999999999999906e-02 5.303674999999999917e-01 3.613714999999999566e+00 6.123820000000000618e+01 1.503034999999999854e+03
3.899999999999999994e-02 5.298590000000000799e-01 3.275600000000000289e+00 5.904144999999999754e+01 1.502440000000000055e+03
4.000000000000000083e-02 5.294020000000000392e-01 2.974514999999999798e+00 5.700695000000000334e+01 1.501875000000000000e+03
4.100000000000000172e-02 5.290090000000000625e-01 2.746800000000000352e+00 5.521340000000000003e+01 1.501365000000000009e+03
4.200000000000000261e-02 5.286914999999999809e-01 2.617880000000000429e+00 5.372290000000000276e+01 1.500920000000000073e+03
4.300000000000000350e-02 5.284535000000000204e-01 2.603149999999999853e+00 5.257935000000000514e+01 1.500565000000000055e+03
4.400000000000000439e-02 5.282974999999999755e-01 2.710262000000000171e+00 5.180875000000000341e+01 1.500305000000000064e+03
4.499999999999999833e-02 5.282229999999999981e-01 2.942120999999999764e+00 5.142234999999999445e+01 1.500139999999999873e+03
4.599999999999999922e-02 5.282299999999999773e-01 3.299644999999999939e+00 5.142054999999999865e+01 1.500075000000000045e+03
4.700000000000000011e-02 5.283149999999999791e-01 3.783870000000000289e+00 5.179699999999999704e+01 1.500115000000000009e+03
4.800000000000000100e-02 5.284780000000000033e-01 4.396929999999999339e+00 5.254214999999999947e+01 1.500255000000000109e+03
4.900000000000000189e-02 5.287169999999999925e-01 5.141855000000000508e+00 5.364454999999999529e+01 1.500484999999999900e+03
5.000000000000000278e-02 5.290300000000000002e-01 6.021535000000000082e+00 5.509205000000000041e+01 1.500815000000000055e+03
5.100000000000000366e-02 5.294149999999999689e-01 7.037145000000000650e+00 5.687059999999999604e+01 1.501240000000000009e+03
5.200000000000000455e-02 5.298690000000000344e-01 8.186450000000000671e+00 5.896300000000000097e+01 1.501755000000000109e+03
5.300000000000000544e-02 5.303864999999999830e-01 9.462690000000000268e+00 6.134754999999999825e+01 1.502349999999999909e+03
5.399999999999999939e-02 5.309610000000000163e-01 1.085399000000000136e+01 6.399694999999999823e+01 1.503019999999999982e+03
5.500000000000000028e-02 5.315839999999999455e-01 1.234359500000000054e+01 6.687810000000000343e+01 1.503759999999999991e+03
5.600000000000000117e-02 5.322459999999999969e-01 1.391069500000000048e+01 6.995239999999999725e+01 1.504559999999999945e+03
5.700000000000000205e-02 5.329380000000000228e-01 1.553175500000000042e+01 7.317770000000000152e+01 1.505404999999999973e+03
5.800000000000000294e-02 5.336490000000000400e-01 1.718204500000000223e+01 7.650960000000000605e+01 1.506289999999999964e+03
5.900000000000000383e-02 5.343700000000000117e-01 1.883725000000000094e+01 7.990404999999999802e+01 1.507200000000000045e+03
6.000000000000000472e-02 5.350920000000000121e-01 2.047489999999999810e+01 8.331964999999999577e+01 1.508130000000000109e+03
6.099999999999999867e-02 5.358079999999999510e-01 2.207535000000000025e+01 8.671924999999998818e+01 1.509065000000000055e+03
6.199999999999999956e-02 5.365119999999999889e-01 2.362225000000000108e+01 9.007189999999999941e+01 1.509990000000000009e+03
6.300000000000000044e-02 5.372000000000000108e-01 2.510340000000000060e+01 9.335365000000000180e+01 1.510910000000000082e+03
6.400000000000000133e-02 5.378705000000000291e-01 2.650999999999999801e+01 9.654640000000000555e+01 1.511815000000000055e+03
6.500000000000000222e-02 5.385210000000000274e-01 2.783659999999999712e+01 9.964080000000001291e+01 1.512700000000000045e+03
6.600000000000000311e-02 5.391515000000000057e-01 2.908084999999999809e+01 1.026319499999999891e+02 1.513559999999999945e+03
6.700000000000000400e-02 5.397635000000000627e-01 3.024259999999999948e+01 1.055210999999999899e+02 1.514400000000000091e+03
6.800000000000000488e-02 5.403584999999999638e-01 3.132329999999999970e+01 1.083133499999999998e+02 1.515215000000000146e+03
6.900000000000000577e-02 5.409370000000000012e-01 3.232594999999999885e+01 1.110165000000000077e+02 1.516005000000000109e+03
7.000000000000000666e-02 5.415029999999999566e-01 3.325379999999999825e+01 1.136405000000000030e+02 1.516775000000000091e+03
7.100000000000000755e-02 5.420559999999999823e-01 3.411045000000000016e+01 1.161935000000000002e+02 1.517529999999999973e+03
7.200000000000000844e-02 5.425995000000000124e-01 3.489929999999999666e+01 1.186854999999999905e+02 1.518264999999999873e+03
7.300000000000000933e-02 5.431330000000000879e-01 3.562304999999999922e+01 1.211225000000000023e+02 1.518980000000000018e+03
7.399999999999999634e-02 5.436579999999999746e-01 3.628359999999999985e+01 1.235095000000000027e+02 1.519690000000000055e+03
7.499999999999999722e-02 5.441734999999999767e-01 3.688185000000000002e+01 1.258480000000000132e+02 1.520380000000000109e+03
7.599999999999999811e-02 5.446794999999999831e-01 3.741760000000000019e+01 1.281359999999999957e+02 1.521059999999999945e+03
7.699999999999999900e-02 5.451730000000000187e-01 3.788965000000000316e+01 1.303684999999999832e+02 1.521720000000000027e+03
7.799999999999999989e-02 5.456530000000000546e-01 3.829585000000000150e+01 1.325380000000000109e+02 1.522364999999999782e+03
7.900000000000000078e-02 5.461175000000000335e-01 3.863354999999999961e+01 1.346345000000000027e+02 1.522994999999999891e+03
8.000000000000000167e-02 5.465625000000000622e-01 3.889974999999999739e+01 1.366469999999999914e+02 1.523599999999999909e+03
8.100000000000000255e-02 5.469859999999999722e-01 3.909140000000000015e+01 1.385614999999999952e+02 1.524180000000000064e+03
8.200000000000000344e-02 5.473850000000000104e-01 3.920584999999999809e+01 1.403665000000000020e+02 1.524730000000000018e+03
8.300000000000000433e-02 5.477570000000000494e-01 3.924080000000000013e+01 1.420500000000000114e+02 1.525244999999999891e+03
8.400000000000000522e-02 5.481004999999999905e-01 3.919480000000000075e+01 1.435999999999999943e+02 1.525730000000000018e+03
8.500000000000000611e-02 5.484124999999999694e-01 3.906735000000000468e+01 1.450095000000000027e+02 1.526170000000000073e+03
8.600000000000000699e-02 5.486929999999999863e-01 3.885864999999999725e+01 1.462694999999999936e+02 1.526569999999999936e+03
8.700000000000000788e-02 5.489399999999999835e-01 3.857009999999999650e+01 1.473764999999999930e+02 1.526934999999999945e+03
8.800000000000000877e-02 5.491544999999999899e-01 3.820414999999999850e+01 1.483280000000000030e+02 1.527250000000000000e+03
8.899999999999999578e-02 5.493354999999999766e-01 3.776404999999999745e+01 1.491250000000000000e+02 1.527519999999999982e+03
8.999999999999999667e-02 5.494845000000000423e-01 3.725409999999999400e+01 1.497694999999999936e+02 1.527750000000000000e+03
9.099999999999999756e-02 5.496024999999999938e-01 3.667954999999999899e+01 1.502669999999999959e+02 1.527940000000000055e+03
9.199999999999999845e-02 5.496919999999999584e-01 3.604639999999999844e+01 1.506254999999999882e+02 1.528085000000000036e+03
9.299999999999999933e-02 5.497530000000000472e-01 3.536149999999999949e+01 1.508534999999999968e+02 1.528195000000000164e+03
9.400000000000000022e-02 5.497889999999999722e-01 3.463235000000000241e+01 1.509619999999999891e+02 1.528264999999999873e+03
9.500000000000000111e-02 5.498030000000000417e-01 3.386699999999999733e+01 1.509639999999999986e+02 1.528299999999999955e+03
9.600000000000000200e-02 5.497970000000000912e-01 3.307380000000000564e+01 1.508725000000000023e+02 1.528315000000000055e+03
9.700000000000000289e-02 5.497754999999999725e-01 3.226124999999999687e+01 1.507015000000000100e+02 1.528299999999999955e+03
9.800000000000000377e-02 5.497395000000000476e-01 3.143789999999999907e+01 1.504660000000000082e+02 1.528259999999999991e+03
9.900000000000000466e-02 5.496935000000000571e-01 3.061189999999999856e+01 1.501804999999999950e+02 1.528200000000000045e+03
1.000000000000000056e-01 5.496404999999999763e-01 2.979080000000000084e+01 1.498589999999999804e+02 1.528130000000000109e+03
1.010000000000000064e-01 5.495820000000000149e-01 2.898134999999999906e+01 1.495140000000000100e+02 1.528045000000000073e+03
1.020000000000000073e-01 5.495205000000000783e-01 2.818925000000000125e+01 1.491569999999999823e+02 1.527960000000000036e+03
1.030000000000000082e-01 5.494589999999999197e-01 2.741915000000000191e+01 1.487975000000000136e+02 1.527865000000000009e+03
1.040000000000000091e-01 5.493970000000000242e-01 2.667399999999999949e+01 1.484435000000000002e+02 1.527769999999999982e+03
1.050000000000000100e-01 5.493369999999999642e-01 2.595570000000000022e+01 1.480995000000000061e+02 1.527679999999999836e+03
1.059999999999999970e-01 5.492780000000000440e-01 2.526454999999999984e+01 1.477690000000000055e+02 1.527579999999999927e+03
1.069999999999999979e-01 5.492205000000000004e-01 2.459960000000000235e+01 1.474524999999999864e+02 1.527485000000000127e+03
1.079999999999999988e-01 5.491639999999999855e-01 2.395875000000000199e+01 1.471485000000000127e+02 1.527400000000000091e+03
1.089999999999999997e-01 5.491084999999999994e-01 2.333890000000000242e+01 1.468539999999999850e+02 1.527315000000000055e+03
1.100000000000000006e-01 5.490510000000000668e-01 2.273610000000000042e+01 1.465640000000000214e+02 1.527224999999999909e+03
1.110000000000000014e-01 5.489920000000000355e-01 2.214594999999999914e+01 1.462719999999999914e+02 1.527134999999999991e+03
1.120000000000000023e-01 5.489290000000000003e-01 2.156374999999999886e+01 1.459725000000000250e+02 1.527045000000000073e+03
1.130000000000000032e-01 5.488615000000000022e-01 2.098474999999999824e+01 1.456585000000000036e+02 1.526954999999999927e+03
1.140000000000000041e-01 5.487874999999999837e-01 2.040425000000000111e+01 1.453234999999999957e+02 1.526855000000000018e+03
1.150000000000000050e-01 5.487064999999999859e-01 1.981799999999999784e+01 1.449615000000000009e+02 1.526750000000000000e+03
1.160000000000000059e-01 5.486174999999999802e-01 1.922225000000000250e+01 1.445679999999999836e+02 1.526634999999999991e+03
1.170000000000000068e-01 5.485195000000000487e-01 1.861400000000000077e+01 1.441380000000000052e+02 1.526519999999999982e+03
1.180000000000000077e-01 5.484124999999999694e-01 1.799099999999999966e+01 1.436694999999999993e+02 1.526389999999999873e+03
1.190000000000000085e-01 5.482964999999999645e-01 1.735190000000000055e+01 1.431614999999999895e+02 1.526250000000000000e+03
1.200000000000000094e-01 5.481724999999999515e-01 1.669614999999999938e+01 1.426150000000000091e+02 1.526099999999999909e+03
1.209999999999999964e-01 5.480395000000000127e-01 1.602445000000000164e+01 1.420314999999999941e+02 1.525940000000000055e+03
1.219999999999999973e-01 5.479005000000000125e-01 1.533814999999999884e+01 1.414150000000000205e+02 1.525769999999999982e+03
1.229999999999999982e-01 5.477555000000000618e-01 1.463964999999999961e+01 1.407704999999999984e+02 1.525590000000000146e+03
1.239999999999999991e-01 5.476069999999999549e-01 1.393218500000000049e+01 1.401045000000000016e+02 1.525409999999999854e+03
1.250000000000000000e-01 5.474559999999999427e-01 1.321965000000000146e+01 1.394244999999999948e+02 1.525220000000000027e+03
1.260000000000000009e-01 5.473049999999999304e-01 1.250658499999999940e+01 1.387390000000000043e+02 1.525029999999999973e+03
1.270000000000000018e-01 5.471555000000000168e-01 1.179786000000000001e+01 1.380570000000000164e+02 1.524839999999999918e+03
1.280000000000000027e-01 5.470099999999999962e-01 1.109877000000000002e+01 1.373890000000000100e+02 1.524650000000000091e+03
1.290000000000000036e-01 5.468699999999999672e-01 1.041456999999999944e+01 1.367425000000000068e+02 1.524470000000000027e+03
1.300000000000000044e-01 5.467385000000000161e-01 9.750574999999999548e+00 1.361265000000000214e+02 1.524295000000000073e+03
1.310000000000000053e-01 5.466159999999999908e-01 9.111785000000001133e+00 1.355509999999999877e+02 1.524125000000000000e+03
1.320000000000000062e-01 5.465054999999999774e-01 8.502705000000000624e+00 1.350224999999999795e+02 1.523970000000000027e+03
1.330000000000000071e-01 5.464065000000000172e-01 7.927450000000000330e+00 1.345475000000000136e+02 1.523829999999999927e+03
1.340000000000000080e-01 5.463204999999999867e-01 7.389324999999999477e+00 1.341315000000000168e+02 1.523699999999999818e+03
1.350000000000000089e-01 5.462489999999999846e-01 6.890890000000000626e+00 1.337769999999999868e+02 1.523590000000000146e+03
1.360000000000000098e-01 5.461914999999999409e-01 6.433849999999999625e+00 1.334875000000000114e+02 1.523494999999999891e+03
1.370000000000000107e-01 5.461479999999999668e-01 6.019025000000000070e+00 1.332615000000000123e+02 1.523414999999999964e+03
1.380000000000000115e-01 5.461175000000000335e-01 5.646340000000000359e+00 1.330985000000000014e+02 1.523355000000000018e+03
1.390000000000000124e-01 5.461010000000000586e-01 5.314880000000000493e+00 1.329964999999999975e+02 1.523309999999999945e+03
1.400000000000000133e-01 5.460955000000000670e-01 5.022954999999999615e+00 1.329499999999999886e+02 1.523279999999999973e+03
1.410000000000000142e-01 5.461000000000000298e-01 4.768169999999999575e+00 1.329544999999999959e+02 1.523269999999999982e+03
1.420000000000000151e-01 5.461135000000000295e-01 4.547584999999999766e+00 1.330024999999999977e+02 1.523264999999999873e+03
1.430000000000000160e-01 5.461350000000000371e-01 4.357800000000000118e+00 1.330879999999999939e+02 1.523275000000000091e+03
1.440000000000000169e-01 5.461620000000000363e-01 4.195104999999999862e+00 1.332035000000000196e+02 1.523295000000000073e+03
1.450000000000000178e-01 5.461930000000000396e-01 4.055640000000000356e+00 1.333400000000000034e+02 1.523325000000000045e+03
1.459999999999999909e-01 5.462259999999999893e-01 3.935464999999999769e+00 1.334919999999999902e+02 1.523355000000000018e+03
1.469999999999999918e-01 5.462605000000000377e-01 3.830734999999999779e+00 1.336510000000000105e+02 1.523389999999999873e+03
1.479999999999999927e-01 5.462945000000000162e-01 3.737740000000000062e+00 1.338095000000000141e+02 1.523430000000000064e+03
1.489999999999999936e-01 5.463270000000000071e-01 3.653050000000000352e+00 1.339635000000000105e+02 1.523465000000000146e+03
1.499999999999999944e-01 5.463569999999999816e-01 3.573529999999999873e+00 1.341059999999999945e+02 1.523505000000000109e+03
1.509999999999999953e-01 5.463829999999999520e-01 3.496420000000000083e+00 1.342330000000000041e+02 1.523534999999999854e+03
1.519999999999999962e-01 5.464050000000000296e-01 3.419340000000000046e+00 1.343414999999999964e+02 1.523565000000000055e+03
1.529999999999999971e-01 5.464225000000000332e-01 3.340340000000000309e+00 1.344279999999999973e+02 1.523590000000000146e+03
1.539999999999999980e-01 5.464345000000000452e-01 3.257870000000000044e+00 1.344915000000000020e+02 1.523605000000000018e+03
1.549999999999999989e-01 5.464415000000000244e-01 3.170805000000000096e+00 1.345305000000000177e+02 1.523619999999999891e+03
1.559999999999999998e-01 5.464434999999999709e-01 3.078409999999999869e+00 1.345444999999999993e+02 1.523625000000000000e+03
1.570000000000000007e-01 5.464409999999999545e-01 2.980324999999999669e+00 1.345345000000000084e+02 1.523625000000000000e+03
1.580000000000000016e-01 5.464329999999999465e-01 2.876529999999999809e+00 1.345015000000000214e+02 1.523625000000000000e+03
1.590000000000000024e-01 5.464210000000000456e-01 2.767305000000000348e+00 1.344465000000000146e+02 1.523610000000000127e+03
