# t [s], A [cm^2], U [cm/s], P [cPa], c [cm/s]
1.000000000000000021e-03 6.624174999999999924e-01 2.750999999999996504e-03 9.442484999999999218e+01 1.653900000000000091e+03
2.000000000000000042e-03 6.624149999999999761e-01 1.368915000000000062e-02 9.440649999999999409e+01 1.653900000000000091e+03
3.000000000000000062e-03 6.624959999999999738e-01 1.614840000000000164e-01 9.456860000000000355e+01 1.653934999999999945e+03
4.000000000000000083e-03 6.625205000000000677e-01 2.258295000000000163e-01 9.464244999999999663e+01 1.653954999999999927e+03
5.000000000000000104e-03 6.624535000000000284e-01 1.294934999999999836e-01 9.444774999999999920e+01 1.653914999999999964e+03
6.000000000000000125e-03 6.623715000000000019e-01 -4.409999999999969500e-03 9.409759999999999991e+01 1.653835000000000036e+03
7.000000000000000146e-03 6.622654999999999514e-01 -1.949950000000000294e-01 9.359295000000000186e+01 1.653715000000000146e+03
8.000000000000000167e-03 6.620759999999999978e-01 -5.509849999999999470e-01 9.278005000000000280e+01 1.653529999999999973e+03
9.000000000000001055e-03 6.617969999999999686e-01 -1.079045000000000032e+00 9.159120000000000061e+01 1.653250000000000000e+03
1.000000000000000194e-02 6.614139999999999464e-01 -1.788099999999999801e+00 8.996370000000000289e+01 1.652860000000000127e+03
1.099999999999999936e-02 6.609054999999999236e-01 -2.694269999999999943e+00 8.782249999999999091e+01 1.652335000000000036e+03
1.200000000000000025e-02 6.603029999999999733e-01 -3.711164999999999825e+00 8.522719999999999629e+01 1.651690000000000055e+03
1.300000000000000114e-02 6.596999999999999531e-01 -4.630840000000000067e+00 8.244294999999999618e+01 1.650974999999999909e+03
1.400000000000000203e-02 6.591985000000000205e-01 -5.230769920000000184e+00 7.983000000000001251e+01 1.650269999999999982e+03
1.499999999999999944e-02 6.588460000000000427e-01 -5.388484999999999303e+00 7.766710000000000491e+01 1.649639999999999873e+03
1.600000000000000033e-02 6.586265000000000036e-01 -5.120379999999999932e+00 7.604540000000000077e+01 1.649119999999999891e+03
1.700000000000000122e-02 6.584775000000000489e-01 -4.550939999999999763e+00 7.486395000000000266e+01 1.648700000000000045e+03
1.800000000000000211e-02 6.583239999999999092e-01 -3.847864999999999647e+00 7.389934999999999832e+01 1.648329999999999927e+03
1.900000000000000300e-02 6.581080000000000263e-01 -3.154260000000000286e+00 7.290784999999999627e+01 1.647970000000000027e+03
2.000000000000000042e-02 6.578074999999999894e-01 -2.542106500000000047e+00 7.171864999999999668e+01 1.647575000000000045e+03
2.100000000000000130e-02 6.574370000000000491e-01 -2.004184999999999661e+00 7.028170000000000073e+01 1.647130000000000109e+03
2.200000000000000219e-02 6.570320000000000604e-01 -1.484099999999999753e+00 6.865260000000000673e+01 1.646639999999999873e+03
2.299999999999999961e-02 6.566285000000000593e-01 -9.242150000000000087e-01 6.693385000000000673e+01 1.646130000000000109e+03
2.400000000000000050e-02 6.562399999999999345e-01 -3.058250000000000135e-01 6.520660000000000878e+01 1.645605000000000018e+03
2.500000000000000139e-02 6.558559999999999945e-01 3.332649999999999224e-01 6.348359999999999559e+01 1.645079999999999927e+03
2.600000000000000228e-02 6.554450000000000554e-01 9.050050000000000594e-01 6.169620000000000459e+01 1.644529999999999973e+03
2.700000000000000316e-02 6.549635000000000318e-01 1.294704999999999995e+00 5.971170000000000044e+01 1.643940000000000055e+03
2.800000000000000058e-02 6.543714999999999948e-01 1.392939999999999845e+00 5.737460000000000093e+01 1.643269999999999982e+03
2.900000000000000147e-02 6.536450000000000315e-01 1.126844999999999875e+00 5.455750000000000455e+01 1.642490000000000009e+03
3.000000000000000236e-02 6.527849999999999486e-01 4.820199999999994489e-01 5.120669999999999789e+01 1.641585000000000036e+03
3.099999999999999978e-02 6.518189999999999262e-01 -4.913199999999999790e-01 4.736905000000000143e+01 1.640559999999999945e+03
3.200000000000000067e-02 6.507979999999999876e-01 -1.689099999999999824e+00 4.319254999999999711e+01 1.639440000000000055e+03
3.300000000000000155e-02 6.497819999999999707e-01 -2.975885000000000336e+00 3.890149999999999864e+01 1.638275000000000091e+03
3.400000000000000244e-02 6.488355000000000095e-01 -4.211054999999999993e+00 3.475789999999999935e+01 1.637134999999999991e+03
3.500000000000000333e-02 6.480124999999999913e-01 -5.270270000000000010e+00 3.102009999999999934e+01 1.636069999999999936e+03
3.600000000000000422e-02 6.473535000000000261e-01 -6.059484999999999566e+00 2.790905000000000058e+01 1.635144999999999982e+03
3.700000000000000511e-02 6.468829999999999858e-01 -6.519445000000000157e+00 2.558624999999999972e+01 1.634404999999999973e+03
3.799999999999999906e-02 6.466119999999999646e-01 -6.622859999999999303e+00 2.414605000000000246e+01 1.633889999999999873e+03
3.899999999999999994e-02 6.465389999999999748e-01 -6.367250000000000298e+00 2.361945000000000050e+01 1.633609999999999900e+03
4.000000000000000083e-02 6.466544999999999099e-01 -5.765634999999999621e+00 2.398620000000000019e+01 1.633565000000000055e+03
4.100000000000000172e-02 6.469450000000001033e-01 -4.838647500000000434e+00 2.519100000000000250e+01 1.633759999999999991e+03
4.200000000000000261e-02 6.473934999999999551e-01 -3.609454999999999636e+00 2.715830000000000055e+01 1.634164999999999964e+03
4.300000000000000350e-02 6.479840000000000044e-01 -2.102329999999999810e+00 2.980300000000000082e+01 1.634769999999999982e+03
4.400000000000000439e-02 6.486994999999999845e-01 -3.440950000000002618e-01 3.303594999999999970e+01 1.635554999999999836e+03
4.499999999999999833e-02 6.495204999999999451e-01 1.633024999999999949e+00 3.676435000000000031e+01 1.636489999999999782e+03
4.599999999999999922e-02 6.504259999999999486e-01 3.789135000000000364e+00 4.089104999999999990e+01 1.637555000000000064e+03
4.700000000000000011e-02 6.513925000000000409e-01 6.075600000000001444e+00 4.531279999999999575e+01 1.638710000000000036e+03
4.800000000000000100e-02 6.523950000000000582e-01 8.437025000000000219e+00 4.992140000000000555e+01 1.639944999999999936e+03
4.900000000000000189e-02 6.534090000000000176e-01 1.081393749999999976e+01 5.460670000000000357e+01 1.641220000000000027e+03
5.000000000000000278e-02 6.544095000000000883e-01 1.314761500000000005e+01 5.926194999999999879e+01 1.642505000000000109e+03
5.100000000000000366e-02 6.553765000000000285e-01 1.538447500000000012e+01 6.379034999999999656e+01 1.643784999999999854e+03
5.200000000000000455e-02 6.562945000000000029e-01 1.747997499999999960e+01 6.811104999999999166e+01 1.645025000000000091e+03
5.300000000000000544e-02 6.571514999999999995e-01 1.940109999999999957e+01 7.216460000000000719e+01 1.646204999999999927e+03
5.399999999999999939e-02 6.579435000000000144e-01 2.112795000000000201e+01 7.591540000000000532e+01 1.647319999999999936e+03
5.500000000000000028e-02 6.586699999999999777e-01 2.265285000000000082e+01 7.935245000000000459e+01 1.648360000000000127e+03
5.600000000000000117e-02 6.593364999999999920e-01 2.397960000000000136e+01 8.248744999999999550e+01 1.649329999999999927e+03
5.700000000000000205e-02 6.599509999999999543e-01 2.512124999999999986e+01 8.535110000000000241e+01 1.650224999999999909e+03
5.800000000000000294e-02 6.605244999999999589e-01 2.609779999999999944e+01 8.798900000000000432e+01 1.651054999999999836e+03
5.900000000000000383e-02 6.610685000000000588e-01 2.693410000000000082e+01 9.045635000000000048e+01 1.651840000000000146e+03
6.000000000000000472e-02 6.615969999999999906e-01 2.765775000000000006e+01 9.281324999999999648e+01 1.652585000000000036e+03
6.099999999999999867e-02 6.621219999999999883e-01 2.829755000000000109e+01 9.512004999999999200e+01 1.653309999999999945e+03
6.199999999999999956e-02 6.626555000000000639e-01 2.888159999999999883e+01 9.743395000000001005e+01 1.654034999999999854e+03
6.300000000000000044e-02 6.632069999999999910e-01 2.943574999999999875e+01 9.980405000000000371e+01 1.654764999999999873e+03
6.400000000000000133e-02 6.637840000000000407e-01 2.998215000000000074e+01 1.022703999999999951e+02 1.655510000000000218e+03
6.500000000000000222e-02 6.643904999999999950e-01 3.053759999999999764e+01 1.048594999999999970e+02 1.656285000000000082e+03
6.600000000000000311e-02 6.650285000000000224e-01 3.111240000000000094e+01 1.075819999999999936e+02 1.657095000000000027e+03
6.700000000000000400e-02 6.656954999999999956e-01 3.170955000000000013e+01 1.104334999999999951e+02 1.657934999999999945e+03
6.800000000000000488e-02 6.663839999999999764e-01 3.232469999999999999e+01 1.133930000000000007e+02 1.658800000000000182e+03
6.900000000000000577e-02 6.670859999999999568e-01 3.294639999999999702e+01 1.164254999999999995e+02 1.659690000000000055e+03
7.000000000000000666e-02 6.677899999999999947e-01 3.355724999999999625e+01 1.194814999999999969e+02 1.660589999999999918e+03
7.100000000000000755e-02 6.684814999999999507e-01 3.413560000000000372e+01 1.225035000000000025e+02 1.661485000000000127e+03
7.200000000000000844e-02 6.691469999999999363e-01 3.465709999999999980e+01 1.254279999999999973e+02 1.662355000000000018e+03
7.300000000000000933e-02 6.697729999999999517e-01 3.509709999999999752e+01 1.281924999999999955e+02 1.663190000000000055e+03
7.399999999999999634e-02 6.703455000000000386e-01 3.543234999999999957e+01 1.307355000000000018e+02 1.663970000000000027e+03
7.499999999999999722e-02 6.708545000000000202e-01 3.564235000000000042e+01 1.330049999999999955e+02 1.664675000000000182e+03
7.599999999999999811e-02 6.712909999999999711e-01 3.571139999999999759e+01 1.349585000000000150e+02 1.665304999999999836e+03
7.699999999999999900e-02 6.716499999999999693e-01 3.562879999999999825e+01 1.365665000000000191e+02 1.665835000000000036e+03
7.799999999999999989e-02 6.719284999999999286e-01 3.538980000000000103e+01 1.378125000000000000e+02 1.666275000000000091e+03
7.900000000000000078e-02 6.721280000000000587e-01 3.499564999999999770e+01 1.386955000000000098e+02 1.666605000000000018e+03
8.000000000000000167e-02 6.722515000000000018e-01 3.445329999999999870e+01 1.392280000000000086e+02 1.666845000000000027e+03
8.100000000000000255e-02 6.723049999999999304e-01 3.377515000000000356e+01 1.394339999999999975e+02 1.666980000000000018e+03
8.200000000000000344e-02 6.722960000000000047e-01 3.297789999999999822e+01 1.393495000000000061e+02 1.667034999999999854e+03
8.300000000000000433e-02 6.722354999999999858e-01 3.208205000000000240e+01 1.390180000000000007e+02 1.667009999999999991e+03
8.400000000000000522e-02 6.721340000000000092e-01 3.111064999999999969e+01 1.384875000000000114e+02 1.666920000000000073e+03
8.500000000000000611e-02 6.720030000000000170e-01 3.008835000000000193e+01 1.378120000000000118e+02 1.666780000000000200e+03
8.600000000000000699e-02 6.718524999999999636e-01 2.903985000000000127e+01 1.370439999999999827e+02 1.666599999999999909e+03
8.700000000000000788e-02 6.716955000000000009e-01 2.798930000000000007e+01 1.362330000000000041e+02 1.666405000000000200e+03
8.800000000000000877e-02 6.715394999999999559e-01 2.695874999999999844e+01 1.354275000000000091e+02 1.666195000000000164e+03
8.899999999999999578e-02 6.713949999999999640e-01 2.596754999999999924e+01 1.346674999999999898e+02 1.665990000000000009e+03
8.999999999999999667e-02 6.712670000000000581e-01 2.503150000000000119e+01 1.339859999999999900e+02 1.665799999999999955e+03
9.099999999999999756e-02 6.711610000000000076e-01 2.416199999999999903e+01 1.334055000000000177e+02 1.665630000000000109e+03
9.199999999999999845e-02 6.710795000000000510e-01 2.336615000000000109e+01 1.329430000000000121e+02 1.665485000000000127e+03
9.299999999999999933e-02 6.710229999999999251e-01 2.264645000000000152e+01 1.326014999999999873e+02 1.665369999999999891e+03
9.400000000000000022e-02 6.709895000000000165e-01 2.200079999999999814e+01 1.323784999999999741e+02 1.665284999999999854e+03
9.500000000000000111e-02 6.709764999999999757e-01 2.142324999999999946e+01 1.322620000000000005e+02 1.665224999999999909e+03
9.600000000000000200e-02 6.709789999999999921e-01 2.090420000000000300e+01 1.322319999999999993e+02 1.665195000000000164e+03
9.700000000000000289e-02 6.709929999999999506e-01 2.043135000000000190e+01 1.322644999999999982e+02 1.665184999999999945e+03
9.800000000000000377e-02 6.710099999999999953e-01 1.999049999999999727e+01 1.323315000000000055e+02 1.665180000000000064e+03
9.900000000000000466e-02 6.710249999999999826e-01 1.956615000000000038e+01 1.324014999999999986e+02 1.665184999999999945e+03
1.000000000000000056e-01 6.710309999999999331e-01 1.914285000000000281e+01 1.324455000000000098e+02 1.665190000000000055e+03
1.010000000000000064e-01 6.710224999999999662e-01 1.870570000000000022e+01 1.324339999999999975e+02 1.665174999999999955e+03
1.020000000000000073e-01 6.709929999999999506e-01 1.824135000000000062e+01 1.323414999999999964e+02 1.665150000000000091e+03
1.030000000000000082e-01 6.709400000000000919e-01 1.773869999999999791e+01 1.321479999999999961e+02 1.665095000000000027e+03
1.040000000000000091e-01 6.708600000000000119e-01 1.718949999999999889e+01 1.318375000000000057e+02 1.665014999999999873e+03
1.050000000000000100e-01 6.707520000000000149e-01 1.658865000000000123e+01 1.314025000000000034e+02 1.664904999999999973e+03
1.059999999999999970e-01 6.706170000000000186e-01 1.593459999999999965e+01 1.308410000000000082e+02 1.664759999999999991e+03
1.069999999999999979e-01 6.704555000000000931e-01 1.522930000000000028e+01 1.301585000000000036e+02 1.664575000000000045e+03
1.079999999999999988e-01 6.702710000000000612e-01 1.447820000000000107e+01 1.293684999999999832e+02 1.664365000000000009e+03
1.089999999999999997e-01 6.700694999999999846e-01 1.368975499999999990e+01 1.284879999999999995e+02 1.664130000000000109e+03
1.100000000000000006e-01 6.698545000000000194e-01 1.287516999999999889e+01 1.275415000000000134e+02 1.663875000000000000e+03
1.110000000000000014e-01 6.696340000000000625e-01 1.204775000000000063e+01 1.265559999999999974e+02 1.663599999999999909e+03
1.120000000000000023e-01 6.694134999999999946e-01 1.122201499999999896e+01 1.255609999999999928e+02 1.663325000000000045e+03
1.130000000000000032e-01 6.692004999999999759e-01 1.041328000000000031e+01 1.245875000000000057e+02 1.663045000000000073e+03
1.140000000000000041e-01 6.690000000000000391e-01 9.636570000000000746e+00 1.236640000000000015e+02 1.662779999999999973e+03
1.150000000000000050e-01 6.688199999999999701e-01 8.906005000000000393e+00 1.228199999999999932e+02 1.662534999999999854e+03
1.160000000000000059e-01 6.686640000000000361e-01 8.234114999999999185e+00 1.220784999999999911e+02 1.662304999999999836e+03
1.170000000000000068e-01 6.685360000000000191e-01 7.631065000000000431e+00 1.214579999999999984e+02 1.662110000000000127e+03
1.180000000000000077e-01 6.684384999999999355e-01 7.104430000000000689e+00 1.209729999999999990e+02 1.661954999999999927e+03
1.190000000000000085e-01 6.683729999999999949e-01 6.658735000000000070e+00 1.206299999999999955e+02 1.661829999999999927e+03
1.200000000000000094e-01 6.683384999999999465e-01 6.295424999999999827e+00 1.204300000000000068e+02 1.661744999999999891e+03
1.209999999999999964e-01 6.683339999999999836e-01 6.012904999999999944e+00 1.203689999999999998e+02 1.661699999999999818e+03
1.219999999999999973e-01 6.683555000000001023e-01 5.806745000000000267e+00 1.204344999999999999e+02 1.661684999999999945e+03
1.229999999999999982e-01 6.684014999999999818e-01 5.670045000000000002e+00 1.206125000000000114e+02 1.661710000000000036e+03
1.239999999999999991e-01 6.684654999999999347e-01 5.593885000000000218e+00 1.208824999999999932e+02 1.661764999999999873e+03
1.250000000000000000e-01 6.685434999999999572e-01 5.567800000000000082e+00 1.212235000000000014e+02 1.661835000000000036e+03
1.260000000000000009e-01 6.686305000000000165e-01 5.580350000000000144e+00 1.216115000000000066e+02 1.661924999999999955e+03
1.270000000000000018e-01 6.687205000000000510e-01 5.619674999999999976e+00 1.220229999999999961e+02 1.662025000000000091e+03
1.280000000000000027e-01 6.688089999999999868e-01 5.673989999999999867e+00 1.224344999999999999e+02 1.662130000000000109e+03
1.290000000000000036e-01 6.688914999999999722e-01 5.732034999999999769e+00 1.228259999999999934e+02 1.662230000000000018e+03
1.300000000000000044e-01 6.689644999999999619e-01 5.783554999999999779e+00 1.231775000000000091e+02 1.662329999999999927e+03
1.310000000000000053e-01 6.690245000000000219e-01 5.819539999999999935e+00 1.234739999999999895e+02 1.662414999999999964e+03
1.320000000000000062e-01 6.690689999999999138e-01 5.832544999999999646e+00 1.237034999999999911e+02 1.662485000000000127e+03
1.330000000000000071e-01 6.690970000000000528e-01 5.816835000000000200e+00 1.238580000000000041e+02 1.662530000000000200e+03
1.340000000000000080e-01 6.691074999999999662e-01 5.768469999999999764e+00 1.239314999999999998e+02 1.662565000000000055e+03
1.350000000000000089e-01 6.691000000000000281e-01 5.685315000000000119e+00 1.239230000000000018e+02 1.662574999999999818e+03
1.360000000000000098e-01 6.690760000000000041e-01 5.566974999999999341e+00 1.238360000000000127e+02 1.662559999999999945e+03
1.370000000000000107e-01 6.690359999999999641e-01 5.414704999999999657e+00 1.236744999999999948e+02 1.662525000000000091e+03
1.380000000000000115e-01 6.689825000000000355e-01 5.231180000000000163e+00 1.234449999999999932e+02 1.662474999999999909e+03
1.390000000000000124e-01 6.689169999999999838e-01 5.020330000000000403e+00 1.231589999999999918e+02 1.662400000000000091e+03
1.400000000000000133e-01 6.688419999999999366e-01 4.787024999999999864e+00 1.228255000000000052e+02 1.662325000000000045e+03
1.410000000000000142e-01 6.687609999999999388e-01 4.536855000000000082e+00 1.224569999999999936e+02 1.662224999999999909e+03
1.420000000000000151e-01 6.686754999999999782e-01 4.275795000000000456e+00 1.220649999999999977e+02 1.662125000000000000e+03
1.430000000000000160e-01 6.685879999999999601e-01 4.009920000000000151e+00 1.216604999999999990e+02 1.662014999999999873e+03
1.440000000000000169e-01 6.685014999999999707e-01 3.745115000000000194e+00 1.212549999999999955e+02 1.661904999999999973e+03
1.450000000000000178e-01 6.684170000000000389e-01 3.486809999999999743e+00 1.208574999999999875e+02 1.661795000000000073e+03
1.459999999999999909e-01 6.683365000000000000e-01 3.239759999999999973e+00 1.204745000000000061e+02 1.661684999999999945e+03
1.469999999999999918e-01 6.682609999999999939e-01 3.007859999999999978e+00 1.201135000000000019e+02 1.661579999999999927e+03
1.479999999999999927e-01 6.681915000000000493e-01 2.794019999999999726e+00 1.197775000000000034e+02 1.661485000000000127e+03
1.489999999999999936e-01 6.681274999999999853e-01 2.600109999999999921e+00 1.194675000000000011e+02 1.661389999999999873e+03
1.499999999999999944e-01 6.680690000000000239e-01 2.426950000000000163e+00 1.191845000000000141e+02 1.661305000000000064e+03
1.509999999999999953e-01 6.680154999999999843e-01 2.274364999999999970e+00 1.189254999999999995e+02 1.661224999999999909e+03
1.519999999999999962e-01 6.679660000000000597e-01 2.141340000000000021e+00 1.186869999999999976e+02 1.661150000000000091e+03
1.529999999999999971e-01 6.679190000000000405e-01 2.026100000000000012e+00 1.184634999999999962e+02 1.661075000000000045e+03
1.539999999999999980e-01 6.678735000000000088e-01 1.926359999999999850e+00 1.182500000000000000e+02 1.661009999999999991e+03
1.549999999999999989e-01 6.678285000000000471e-01 1.839464999999999906e+00 1.180409999999999968e+02 1.660940000000000055e+03
1.559999999999999998e-01 6.677824999999999456e-01 1.762629000000000001e+00 1.178294999999999959e+02 1.660875000000000000e+03
1.570000000000000007e-01 6.677340000000000497e-01 1.693090999999999902e+00 1.176115000000000066e+02 1.660804999999999836e+03
1.580000000000000016e-01 6.676815000000000389e-01 1.628310499999999994e+00 1.173815000000000026e+02 1.660740000000000009e+03
1.590000000000000024e-01 6.676254999999999828e-01 1.566090499999999830e+00 1.171365000000000123e+02 1.660664999999999964e+03
