# t [s], A [cm^2], U [cm/s], P [cPa], c [cm/s]
1.000000000000000021e-03 2.156714999999999882e-01 3.614843849999999637e-01 9.725674999999999670e+01 2.274315000000000055e+03
2.000000000000000042e-03 2.155930000000000069e-01 1.990204000000000084e+00 9.330699999999998795e+01 2.273704999999999927e+03
3.000000000000000062e-03 2.154130000000000211e-01 4.018054000000000237e+00 8.773529999999999518e+01 2.272364999999999782e+03
4.000000000000000083e-03 2.151870000000000172e-01 6.333834500000000034e+00 8.199190000000000111e+01 2.270699999999999818e+03
5.000000000000000104e-03 2.149625000000000008e-01 8.797909999999999897e+00 7.721324999999998795e+01 2.269065000000000055e+03
6.000000000000000125e-03 2.147565000000000168e-01 1.108242499999999886e+01 7.338779999999999859e+01 2.267595000000000255e+03
7.000000000000000146e-03 2.145680000000000087e-01 1.294397999999999982e+01 6.997794999999999277e+01 2.266279999999999745e+03
8.000000000000000167e-03 2.144050000000000122e-01 1.442085000000000150e+01 6.698569999999999425e+01 2.265155000000000200e+03
9.000000000000001055e-03 2.142709999999999892e-01 1.558425000000000082e+01 6.459780000000000655e+01 2.264250000000000000e+03
1.000000000000000194e-02 2.141659999999999953e-01 1.646405000000000030e+01 6.279439999999999600e+01 2.263550000000000182e+03
1.099999999999999936e-02 2.140880000000000005e-01 1.709904999999999831e+01 6.151189999999999714e+01 2.263034999999999854e+03
1.200000000000000025e-02 2.140305000000000124e-01 1.749605000000000032e+01 6.059700000000000131e+01 2.262670000000000073e+03
1.300000000000000114e-02 2.139854999999999952e-01 1.766199999999999903e+01 5.982200000000000273e+01 2.262389999999999873e+03
1.400000000000000203e-02 2.139520000000000033e-01 1.772605000000000075e+01 5.925270000000000437e+01 2.262190000000000055e+03
1.499999999999999944e-02 2.139444999999999819e-01 1.794934999999999903e+01 5.945244999999999891e+01 2.262144999999999982e+03
1.600000000000000033e-02 2.139820000000000055e-01 1.856145000000000067e+01 6.111289999999999623e+01 2.262409999999999854e+03
1.700000000000000122e-02 2.140745000000000009e-01 1.958115000000000094e+01 6.443115000000000236e+01 2.263029999999999745e+03
1.800000000000000211e-02 2.142094999999999971e-01 2.077554999999999907e+01 6.879400000000001114e+01 2.263949999999999818e+03
1.900000000000000300e-02 2.143555000000000044e-01 2.177389999999999759e+01 7.299179999999999779e+01 2.264954999999999927e+03
2.000000000000000042e-02 2.144739999999999980e-01 2.224824999999999875e+01 7.577899999999999636e+01 2.265800000000000182e+03
2.100000000000000130e-02 2.145360000000000045e-01 2.205960000000000321e+01 7.643619999999999948e+01 2.266269999999999982e+03
2.200000000000000219e-02 2.145340000000000025e-01 2.130095000000000027e+01 7.504699999999999704e+01 2.266295000000000073e+03
2.299999999999999961e-02 2.144804999999999906e-01 2.022955000000000325e+01 7.238075000000000614e+01 2.265960000000000036e+03
2.400000000000000050e-02 2.144030000000000102e-01 1.913410000000000011e+01 6.947950000000000159e+01 2.265440000000000055e+03
2.500000000000000139e-02 2.143280000000000185e-01 1.821075000000000088e+01 6.718479999999999563e+01 2.264920000000000073e+03
2.600000000000000228e-02 2.142715000000000036e-01 1.750140000000000029e+01 6.583029999999999404e+01 2.264514999999999873e+03
2.700000000000000316e-02 2.142350000000000088e-01 1.691004999999999825e+01 6.520544999999999902e+01 2.264250000000000000e+03
2.800000000000000058e-02 2.142080000000000095e-01 1.627374999999999972e+01 6.475215000000000032e+01 2.264059999999999945e+03
2.900000000000000147e-02 2.141744999999999899e-01 1.545210000000000150e+01 6.387539999999999907e+01 2.263829999999999927e+03
3.000000000000000236e-02 2.141215000000000201e-01 1.440105000000000146e+01 6.223805000000000121e+01 2.263480000000000018e+03
3.099999999999999978e-02 2.140480000000000160e-01 1.320400000000000063e+01 5.992985000000000184e+01 2.262984999999999673e+03
3.200000000000000067e-02 2.139630000000000143e-01 1.204981000000000080e+01 5.745425000000000182e+01 2.262404999999999745e+03
3.300000000000000155e-02 2.138875000000000082e-01 1.116675499999999843e+01 5.554064999999999941e+01 2.261875000000000000e+03
3.400000000000000244e-02 2.138430000000000053e-01 1.074009000000000036e+01 5.486534999999999940e+01 2.261545000000000073e+03
3.500000000000000333e-02 2.138455000000000217e-01 1.084704999999999941e+01 5.579800000000000182e+01 2.261529999999999745e+03
3.600000000000000422e-02 2.138990000000000058e-01 1.143175000000000097e+01 5.826715000000000089e+01 2.261869999999999891e+03
3.700000000000000511e-02 2.139945000000000042e-01 1.232240000000000002e+01 6.177965000000000373e+01 2.262505000000000109e+03
3.799999999999999906e-02 2.141135000000000121e-01 1.327929999999999922e+01 6.556544999999999845e+01 2.263309999999999945e+03
3.899999999999999994e-02 2.142299999999999760e-01 1.405320000000000036e+01 6.878239999999999554e+01 2.264109999999999673e+03
4.000000000000000083e-02 2.143180000000000085e-01 1.443754999999999988e+01 7.071344999999999459e+01 2.264730000000000018e+03
4.100000000000000172e-02 2.143585000000000074e-01 1.430219999999999914e+01 7.090500000000000114e+01 2.265029999999999745e+03
4.200000000000000261e-02 2.143400000000000027e-01 1.360395000000000110e+01 6.922140000000000271e+01 2.264934999999999945e+03
4.300000000000000350e-02 2.142609999999999792e-01 1.237791999999999959e+01 6.581839999999999691e+01 2.264414999999999964e+03
4.400000000000000439e-02 2.141275000000000261e-01 1.071400000000000041e+01 6.105719999999999459e+01 2.263519999999999982e+03
4.499999999999999833e-02 2.139519999999999755e-01 8.729939999999999145e+00 5.539565000000000339e+01 2.262329999999999927e+03
4.599999999999999922e-02 2.137479999999999936e-01 6.548210000000000086e+00 4.928909999999999769e+01 2.260930000000000291e+03
4.700000000000000011e-02 2.135299999999999976e-01 4.281026999999999916e+00 4.312565000000000026e+01 2.259430000000000291e+03
4.800000000000000100e-02 2.133085000000000120e-01 2.025839999999999641e+00 3.720194999999999652e+01 2.257909999999999854e+03
4.900000000000000189e-02 2.130954999999999933e-01 -1.328499999999999126e-01 3.173300000000000054e+01 2.256429999999999836e+03
5.000000000000000278e-02 2.128975000000000173e-01 -2.118129999999999846e+00 2.688000000000000256e+01 2.255060000000000400e+03
5.100000000000000366e-02 2.127215000000000078e-01 -3.855905499999999986e+00 2.278075000000000117e+01 2.253829999999999927e+03
5.200000000000000455e-02 2.125730000000000119e-01 -5.273254999999999804e+00 1.957034999999999769e+01 2.252789999999999964e+03
5.300000000000000544e-02 2.124584999999999946e-01 -6.300729999999999720e+00 1.738585000000000136e+01 2.251979999999999563e+03
5.399999999999999939e-02 2.123825000000000018e-01 -6.877929999999999211e+00 1.635555000000000092e+01 2.251429999999999836e+03
5.500000000000000028e-02 2.123504999999999976e-01 -6.960679999999999978e+00 1.657910000000000039e+01 2.251180000000000291e+03
5.600000000000000117e-02 2.123649999999999982e-01 -6.527544999999999931e+00 1.810490000000000066e+01 2.251244999999999891e+03
5.700000000000000205e-02 2.124269999999999770e-01 -5.583904999999999674e+00 2.091384999999999650e+01 2.251630000000000109e+03
5.800000000000000294e-02 2.125354999999999883e-01 -4.162469999999999892e+00 2.491329999999999956e+01 2.252344999999999800e+03
5.900000000000000383e-02 2.126854999999999996e-01 -2.320414999999999672e+00 2.994299999999999784e+01 2.253349999999999909e+03
6.000000000000000472e-02 2.128725000000000200e-01 -1.339600000000000790e-01 3.579075000000000273e+01 2.254609999999999673e+03
6.099999999999999867e-02 2.130879999999999996e-01 2.308244999999999880e+00 4.221294999999999931e+01 2.256079999999999927e+03
6.199999999999999956e-02 2.133234999999999992e-01 4.911712199999999306e+00 4.895579999999999643e+01 2.257690000000000055e+03
6.300000000000000044e-02 2.135704999999999965e-01 7.582000000000000739e+00 5.577360000000000184e+01 2.259390000000000327e+03
6.400000000000000133e-02 2.138200000000000101e-01 1.022967500000000030e+01 6.244330000000000069e+01 2.261114999999999782e+03
6.500000000000000222e-02 2.140650000000000053e-01 1.277452000000000076e+01 6.877490000000000236e+01 2.262815000000000055e+03
6.600000000000000311e-02 2.142974999999999741e-01 1.514954999999999963e+01 7.461984999999999957e+01 2.264444999999999709e+03
6.700000000000000400e-02 2.145140000000000102e-01 1.730405000000000015e+01 7.987774999999999181e+01 2.265965000000000146e+03
6.800000000000000488e-02 2.147104999999999986e-01 1.920645000000000024e+01 8.450114999999999554e+01 2.267349999999999909e+03
6.900000000000000577e-02 2.148855000000000071e-01 2.084554999999999936e+01 8.849675000000000580e+01 2.268590000000000146e+03
7.000000000000000666e-02 2.150394999999999945e-01 2.223035000000000139e+01 9.192350000000000421e+01 2.269684999999999945e+03
7.100000000000000755e-02 2.151744999999999908e-01 2.338774999999999693e+01 9.488485000000000014e+01 2.270649999999999636e+03
7.200000000000000844e-02 2.152950000000000141e-01 2.435889999999999844e+01 9.751744999999999663e+01 2.271515000000000327e+03
7.300000000000000933e-02 2.154050000000000131e-01 2.519409999999999883e+01 9.997415000000000873e+01 2.272305000000000291e+03
7.399999999999999634e-02 2.155100000000000071e-01 2.594679999999999964e+01 1.024086499999999944e+02 2.273055000000000291e+03
7.499999999999999722e-02 2.156150000000000011e-01 2.666835000000000022e+01 1.049595000000000056e+02 2.273800000000000182e+03
7.599999999999999811e-02 2.157244999999999857e-01 2.740279999999999916e+01 1.077340000000000089e+02 2.274579999999999927e+03
7.699999999999999900e-02 2.158419999999999783e-01 2.818329999999999913e+01 1.108040000000000020e+02 2.275409999999999854e+03
7.799999999999999989e-02 2.159694999999999809e-01 2.902949999999999875e+01 1.141970000000000027e+02 2.276305000000000291e+03
7.900000000000000078e-02 2.161069999999999935e-01 2.994709999999999894e+01 1.178965000000000032e+02 2.277269999999999982e+03
8.000000000000000167e-02 2.162545000000000162e-01 3.092800000000000082e+01 1.218495000000000061e+02 2.278309999999999945e+03
8.100000000000000255e-02 2.164095000000000046e-01 3.195210000000000150e+01 1.259694999999999965e+02 2.279400000000000091e+03
8.200000000000000344e-02 2.165690000000000115e-01 3.298984999999999701e+01 1.301490000000000009e+02 2.280515000000000327e+03
8.300000000000000433e-02 2.167284999999999906e-01 3.400499999999999545e+01 1.342685000000000173e+02 2.281644999999999982e+03
8.400000000000000522e-02 2.168849999999999945e-01 3.495819999999999794e+01 1.382044999999999959e+02 2.282750000000000000e+03
8.500000000000000611e-02 2.170330000000000037e-01 3.580975000000000108e+01 1.418405000000000200e+02 2.283800000000000182e+03
8.600000000000000699e-02 2.171695000000000153e-01 3.652289999999999992e+01 1.450749999999999886e+02 2.284775000000000091e+03
8.700000000000000788e-02 2.172910000000000119e-01 3.706605000000000416e+01 1.478249999999999886e+02 2.285640000000000327e+03
8.800000000000000877e-02 2.173940000000000039e-01 3.741514999999999702e+01 1.500330000000000155e+02 2.286380000000000109e+03
8.899999999999999578e-02 2.174769999999999759e-01 3.755469999999999686e+01 1.516675000000000182e+02 2.286980000000000018e+03
8.999999999999999667e-02 2.175389999999999824e-01 3.747894999999999754e+01 1.527230000000000132e+02 2.287434999999999945e+03
9.099999999999999756e-02 2.175809999999999966e-01 3.719169999999999732e+01 1.532230000000000132e+02 2.287744999999999891e+03
9.199999999999999845e-02 2.176020000000000176e-01 3.670604999999999762e+01 1.532100000000000080e+02 2.287904999999999745e+03
9.299999999999999933e-02 2.176044999999999785e-01 3.604300000000000637e+01 1.527504999999999882e+02 2.287944999999999709e+03
9.400000000000000022e-02 2.175910000000000066e-01 3.523010000000000019e+01 1.519220000000000255e+02 2.287864999999999782e+03
9.500000000000000111e-02 2.175644999999999940e-01 3.429950000000000188e+01 1.508115000000000236e+02 2.287684999999999945e+03
9.600000000000000200e-02 2.175274999999999848e-01 3.328614999999999924e+01 1.495099999999999909e+02 2.287439999999999600e+03
9.700000000000000289e-02 2.174840000000000106e-01 3.222565000000000168e+01 1.481075000000000159e+02 2.287135000000000218e+03
9.800000000000000377e-02 2.174359999999999904e-01 3.115279999999999916e+01 1.466879999999999882e+02 2.286804999999999836e+03
9.900000000000000466e-02 2.173879999999999979e-01 3.009964999999999691e+01 1.453269999999999982e+02 2.286465000000000146e+03
1.000000000000000056e-01 2.173410000000000064e-01 2.909424999999999883e+01 1.440865000000000009e+02 2.286135000000000218e+03
1.010000000000000064e-01 2.172985000000000055e-01 2.815944999999999965e+01 1.430154999999999745e+02 2.285829999999999927e+03
1.020000000000000073e-01 2.172614999999999963e-01 2.731195000000000306e+01 1.421469999999999914e+02 2.285564999999999600e+03
1.030000000000000082e-01 2.172310000000000074e-01 2.656179999999999808e+01 1.414954999999999927e+02 2.285345000000000255e+03
1.040000000000000091e-01 2.172084999999999988e-01 2.591169999999999973e+01 1.410600000000000023e+02 2.285175000000000182e+03
1.050000000000000100e-01 2.171925000000000106e-01 2.535754999999999981e+01 1.408199999999999932e+02 2.285059999999999945e+03
1.059999999999999970e-01 2.171830000000000149e-01 2.488850000000000051e+01 1.407404999999999973e+02 2.284984999999999673e+03
1.069999999999999979e-01 2.171784999999999966e-01 2.448799999999999955e+01 1.407730000000000246e+02 2.284944999999999709e+03
1.079999999999999988e-01 2.171775000000000233e-01 2.413499999999999801e+01 1.408589999999999804e+02 2.284930000000000291e+03
1.089999999999999997e-01 2.171774999999999956e-01 2.380534999999999712e+01 1.409329999999999927e+02 2.284930000000000291e+03
1.100000000000000006e-01 2.171764999999999946e-01 2.347364999999999924e+01 1.409279999999999973e+02 2.284914999999999964e+03
1.110000000000000014e-01 2.171724999999999905e-01 2.311509999999999820e+01 1.407800000000000011e+02 2.284885000000000218e+03
1.120000000000000023e-01 2.171624999999999805e-01 2.270700000000000074e+01 1.404345000000000141e+02 2.284815000000000055e+03
1.130000000000000032e-01 2.171449999999999769e-01 2.223069999999999879e+01 1.398475000000000250e+02 2.284689999999999600e+03
1.140000000000000041e-01 2.171190000000000064e-01 2.167275000000000063e+01 1.389900000000000091e+02 2.284510000000000218e+03
1.150000000000000050e-01 2.170829999999999982e-01 2.102579999999999671e+01 1.378519999999999754e+02 2.284265000000000327e+03
1.160000000000000059e-01 2.170374999999999943e-01 2.028940000000000055e+01 1.364399999999999977e+02 2.283945000000000164e+03
1.170000000000000068e-01 2.169825000000000226e-01 1.946979999999999933e+01 1.347794999999999845e+02 2.283560000000000400e+03
1.180000000000000077e-01 2.169179999999999997e-01 1.857955000000000112e+01 1.329130000000000109e+02 2.283110000000000127e+03
1.190000000000000085e-01 2.168474999999999986e-01 1.763664999999999949e+01 1.308949999999999818e+02 2.282614999999999782e+03
1.200000000000000094e-01 2.167709999999999915e-01 1.666349999999999909e+01 1.287914999999999850e+02 2.282090000000000146e+03
1.209999999999999964e-01 2.166929999999999967e-01 1.568495000000000061e+01 1.266710000000000065e+02 2.281534999999999854e+03
1.219999999999999973e-01 2.166140000000000010e-01 1.472714999999999819e+01 1.246059999999999945e+02 2.280980000000000018e+03
1.229999999999999982e-01 2.165380000000000082e-01 1.381569999999999965e+01 1.226634999999999991e+02 2.280439999999999600e+03
1.239999999999999991e-01 2.164659999999999918e-01 1.297405000000000008e+01 1.209029999999999916e+02 2.279934999999999945e+03
1.250000000000000000e-01 2.164014999999999966e-01 1.222250000000000014e+01 1.193739999999999952e+02 2.279475000000000364e+03
1.260000000000000009e-01 2.163450000000000095e-01 1.157688500000000076e+01 1.181144999999999925e+02 2.279074999999999818e+03
1.270000000000000018e-01 2.162985000000000047e-01 1.104806500000000113e+01 1.171450000000000102e+02 2.278734999999999673e+03
1.280000000000000027e-01 2.162620000000000098e-01 1.064159500000000058e+01 1.164749999999999943e+02 2.278474999999999909e+03
1.290000000000000036e-01 2.162370000000000125e-01 1.035770000000000124e+01 1.160979999999999990e+02 2.278289999999999964e+03
1.300000000000000044e-01 2.162220000000000253e-01 1.019152499999999861e+01 1.159959999999999951e+02 2.278170000000000073e+03
1.310000000000000053e-01 2.162169999999999925e-01 1.013380000000000081e+01 1.161400000000000006e+02 2.278125000000000000e+03
1.320000000000000062e-01 2.162204999999999822e-01 1.017155999999999949e+01 1.164945000000000022e+02 2.278140000000000327e+03
1.330000000000000071e-01 2.162319999999999798e-01 1.028899999999999970e+01 1.170159999999999911e+02 2.278215000000000146e+03
1.340000000000000080e-01 2.162489999999999968e-01 1.046845000000000070e+01 1.176585000000000036e+02 2.278329999999999927e+03
1.350000000000000089e-01 2.162705000000000044e-01 1.069120000000000026e+01 1.183754999999999882e+02 2.278480000000000018e+03
1.360000000000000098e-01 2.162950000000000150e-01 1.093849999999999945e+01 1.191225000000000023e+02 2.278644999999999982e+03
1.370000000000000107e-01 2.163209999999999855e-01 1.119229999999999947e+01 1.198565000000000111e+02 2.278820000000000164e+03
1.380000000000000115e-01 2.163460000000000105e-01 1.143619999999999948e+01 1.205409999999999968e+02 2.279000000000000000e+03
1.390000000000000124e-01 2.163694999999999924e-01 1.165569999999999951e+01 1.211444999999999936e+02 2.279164999999999964e+03
1.400000000000000133e-01 2.163904999999999856e-01 1.183900000000000041e+01 1.216430000000000007e+02 2.279305000000000291e+03
1.410000000000000142e-01 2.164074999999999749e-01 1.197714999999999996e+01 1.220190000000000055e+02 2.279430000000000291e+03
1.420000000000000151e-01 2.164205000000000156e-01 1.206455000000000055e+01 1.222650000000000006e+02 2.279525000000000091e+03
1.430000000000000160e-01 2.164289999999999825e-01 1.209870000000000090e+01 1.223789999999999907e+02 2.279585000000000036e+03
1.440000000000000169e-01 2.164324999999999999e-01 1.208040000000000092e+01 1.223679999999999950e+02 2.279614999999999782e+03
1.450000000000000178e-01 2.164320000000000133e-01 1.201324999999999932e+01 1.222450000000000045e+02 2.279614999999999782e+03
1.459999999999999909e-01 2.164280000000000093e-01 1.190344999999999942e+01 1.220294999999999987e+02 2.279595000000000255e+03
1.469999999999999918e-01 2.164200000000000013e-01 1.175925000000000153e+01 1.217435000000000116e+02 2.279539999999999964e+03
1.479999999999999927e-01 2.164105000000000056e-01 1.159019999999999939e+01 1.214140000000000015e+02 2.279480000000000018e+03
1.489999999999999936e-01 2.163994999999999946e-01 1.140654999999999930e+01 1.210660000000000025e+02 2.279400000000000091e+03
1.499999999999999944e-01 2.163875000000000104e-01 1.121849999999999881e+01 1.207254999999999967e+02 2.279319999999999709e+03
1.509999999999999953e-01 2.163760000000000128e-01 1.103550000000000075e+01 1.204149999999999920e+02 2.279239999999999782e+03
1.519999999999999962e-01 2.163654999999999884e-01 1.086570000000000036e+01 1.201525000000000034e+02 2.279170000000000073e+03
1.529999999999999971e-01 2.163569999999999938e-01 1.071552499999999952e+01 1.199505000000000052e+02 2.279104999999999563e+03
1.539999999999999980e-01 2.163499999999999868e-01 1.058939499999999967e+01 1.198164999999999907e+02 2.279059999999999945e+03
1.549999999999999989e-01 2.163459999999999828e-01 1.048963499999999982e+01 1.197535000000000025e+02 2.279025000000000091e+03
1.559999999999999998e-01 2.163439999999999808e-01 1.041656000000000049e+01 1.197554999999999978e+02 2.279010000000000218e+03
1.570000000000000007e-01 2.163444999999999951e-01 1.036872499999999953e+01 1.198164999999999907e+02 2.279010000000000218e+03
1.580000000000000016e-01 2.163470000000000115e-01 1.034318000000000026e+01 1.199254999999999995e+02 2.279024999999999636e+03
1.590000000000000024e-01 2.163505000000000011e-01 1.033587999999999951e+01 1.200690000000000026e+02 2.279050000000000182e+03
