# t [s], A [cm^2], U [cm/s], P [cPa], c [cm/s]
1.000000000000000021e-03 1.342749999999999777e-01 3.447959999999999914e-01 9.803955000000000553e+01 1.924160000000000082e+03
2.000000000000000042e-03 1.342415000000000136e-01 1.961810499999999902e+00 9.477549999999999386e+01 1.923740000000000009e+03
3.000000000000000062e-03 1.341394999999999949e-01 3.939297499999999896e+00 9.036775000000000091e+01 1.922535000000000082e+03
4.000000000000000083e-03 1.339950000000000030e-01 6.143963000000000285e+00 8.555429999999999779e+01 1.920865000000000009e+03
5.000000000000000104e-03 1.338354999999999961e-01 8.509669999999999845e+00 8.118039999999999168e+01 1.919025000000000091e+03
6.000000000000000125e-03 1.336789999999999923e-01 1.088110499999999981e+01 7.757094999999999629e+01 1.917240000000000009e+03
7.000000000000000146e-03 1.335304999999999964e-01 1.305273499999999842e+01 7.453924999999999557e+01 1.915579999999999927e+03
8.000000000000000167e-03 1.333929999999999838e-01 1.491614500000000021e+01 7.182019999999999982e+01 1.914070000000000164e+03
9.000000000000001055e-03 1.332689999999999986e-01 1.649295000000000044e+01 6.940215000000000600e+01 1.912724999999999909e+03
1.000000000000000194e-02 1.331610000000000016e-01 1.782495000000000118e+01 6.736785000000000423e+01 1.911569999999999936e+03
1.099999999999999936e-02 1.330705000000000082e-01 1.893029999999999902e+01 6.571739999999999782e+01 1.910605000000000018e+03
1.200000000000000025e-02 1.329965000000000175e-01 1.982584999999999908e+01 6.440625000000000000e+01 1.909825000000000045e+03
1.300000000000000114e-02 1.329359999999999986e-01 2.052564999999999884e+01 6.337769999999999726e+01 1.909200000000000045e+03
1.400000000000000203e-02 1.328874999999999917e-01 2.103389999999999915e+01 6.254030000000000200e+01 1.908704999999999927e+03
1.499999999999999944e-02 1.328475000000000072e-01 2.137154999999999916e+01 6.181489999999999441e+01 1.908305000000000064e+03
1.600000000000000033e-02 1.328145000000000020e-01 2.161390000000000100e+01 6.124934999999999974e+01 1.907985000000000127e+03
1.700000000000000122e-02 1.327944999999999820e-01 2.188779999999999859e+01 6.106579999999999586e+01 1.907795000000000073e+03
1.800000000000000211e-02 1.327919999999999934e-01 2.231864999999999810e+01 6.155904999999999916e+01 1.907789999999999964e+03
1.900000000000000300e-02 1.328135000000000010e-01 2.296529999999999916e+01 6.291114999999999924e+01 1.908019999999999982e+03
2.000000000000000042e-02 1.328590000000000049e-01 2.378634999999999877e+01 6.504904999999999404e+01 1.908509999999999991e+03
2.100000000000000130e-02 1.329230000000000134e-01 2.465324999999999989e+01 6.762924999999999898e+01 1.909195000000000164e+03
2.200000000000000219e-02 1.329950000000000021e-01 2.539884999999999948e+01 7.014499999999999602e+01 1.909974999999999909e+03
2.299999999999999961e-02 1.330620000000000136e-01 2.587659999999999982e+01 7.209620000000001028e+01 1.910710000000000036e+03
2.400000000000000050e-02 1.331124999999999947e-01 2.600630000000000308e+01 7.314644999999998731e+01 1.911280000000000200e+03
2.500000000000000139e-02 1.331410000000000093e-01 2.579250000000000043e+01 7.321305000000000973e+01 1.911615000000000009e+03
2.600000000000000228e-02 1.331459999999999866e-01 2.531279999999999930e+01 7.246314999999999884e+01 1.911700000000000045e+03
2.700000000000000316e-02 1.331335000000000157e-01 2.468415000000000248e+01 7.123054999999999382e+01 1.911590000000000146e+03
2.800000000000000058e-02 1.331094999999999917e-01 2.402175000000000082e+01 6.988970000000000482e+01 1.911345000000000027e+03
2.900000000000000147e-02 1.330824999999999925e-01 2.340545000000000186e+01 6.873669999999999902e+01 1.911065000000000055e+03
3.000000000000000236e-02 1.330589999999999828e-01 2.286359999999999815e+01 6.791585000000000605e+01 1.910809999999999945e+03
3.099999999999999978e-02 1.330405000000000060e-01 2.237650000000000006e+01 6.740659999999999741e+01 1.910609999999999900e+03
3.200000000000000067e-02 1.330254999999999910e-01 2.189390000000000214e+01 6.706430000000000291e+01 1.910450000000000045e+03
3.300000000000000155e-02 1.330125000000000057e-01 2.135989999999999966e+01 6.669280000000000541e+01 1.910299999999999955e+03
3.400000000000000244e-02 1.329954999999999887e-01 2.073635000000000161e+01 6.612349999999999284e+01 1.910130000000000109e+03
3.500000000000000333e-02 1.329730000000000079e-01 2.001989999999999981e+01 6.527774999999999750e+01 1.909894999999999982e+03
3.600000000000000422e-02 1.329444999999999932e-01 1.924674999999999869e+01 6.419780000000000086e+01 1.909595000000000027e+03
3.700000000000000511e-02 1.329115000000000157e-01 1.848649999999999949e+01 6.304010000000000247e+01 1.909244999999999891e+03
3.799999999999999906e-02 1.328794999999999837e-01 1.782515000000000072e+01 6.203374999999999773e+01 1.908900000000000091e+03
3.899999999999999994e-02 1.328529999999999989e-01 1.734365000000000023e+01 6.141790000000000305e+01 1.908610000000000127e+03
4.000000000000000083e-02 1.328394999999999992e-01 1.709744999999999848e+01 6.137700000000000244e+01 1.908454999999999927e+03
4.100000000000000172e-02 1.328415000000000012e-01 1.710294999999999987e+01 6.199105000000000132e+01 1.908460000000000036e+03
4.200000000000000261e-02 1.328610000000000069e-01 1.733335000000000292e+01 6.321384999999999366e+01 1.908644999999999982e+03
4.300000000000000350e-02 1.328960000000000141e-01 1.772379999999999711e+01 6.488100000000000023e+01 1.909005000000000109e+03
4.400000000000000439e-02 1.329414999999999902e-01 1.818375000000000341e+01 6.674279999999998836e+01 1.909484999999999900e+03
4.499999999999999833e-02 1.329914999999999847e-01 1.861285000000000167e+01 6.851170000000000471e+01 1.910014999999999873e+03
4.599999999999999922e-02 1.330385000000000040e-01 1.891639999999999944e+01 6.991134999999999877e+01 1.910515000000000100e+03
4.700000000000000011e-02 1.330749999999999988e-01 1.901770000000000138e+01 7.071875000000000000e+01 1.910909999999999854e+03
4.800000000000000100e-02 1.330950000000000188e-01 1.886614999999999753e+01 7.079104999999999848e+01 1.911134999999999991e+03
4.900000000000000189e-02 1.330945000000000045e-01 1.843950000000000244e+01 7.007554999999999268e+01 1.911154999999999973e+03
5.000000000000000278e-02 1.330735000000000112e-01 1.774194999999999922e+01 6.860374999999999091e+01 1.910934999999999945e+03
5.100000000000000366e-02 1.330310000000000104e-01 1.679905000000000115e+01 6.647329999999999472e+01 1.910494999999999891e+03
5.200000000000000455e-02 1.329695000000000182e-01 1.565070000000000050e+01 6.382450000000000045e+01 1.909845000000000027e+03
5.300000000000000544e-02 1.328920000000000101e-01 1.434479999999999933e+01 6.081529999999999347e+01 1.909025000000000091e+03
5.399999999999999939e-02 1.328030000000000044e-01 1.293154000000000181e+01 5.760210000000000008e+01 1.908075000000000045e+03
5.500000000000000028e-02 1.327070000000000194e-01 1.146019499999999880e+01 5.432625000000000171e+01 1.907045000000000073e+03
5.600000000000000117e-02 1.326070000000000026e-01 9.977344999999999686e+00 5.110895000000000010e+01 1.905969999999999800e+03
5.700000000000000205e-02 1.325070000000000137e-01 8.526820000000000732e+00 4.805120000000000147e+01 1.904900000000000091e+03
5.800000000000000294e-02 1.324105000000000143e-01 7.150235000000000340e+00 4.523884999999999934e+01 1.903860000000000127e+03
5.900000000000000383e-02 1.323195000000000066e-01 5.887754999999999406e+00 4.274755000000000393e+01 1.902880000000000109e+03
6.000000000000000472e-02 1.322379999999999944e-01 4.778554999999999886e+00 4.064759999999999707e+01 1.901994999999999891e+03
6.099999999999999867e-02 1.321674999999999933e-01 3.860345000000000137e+00 3.900659999999999883e+01 1.901235000000000127e+03
6.199999999999999956e-02 1.321114999999999928e-01 3.168299999999999894e+00 3.788870000000000005e+01 1.900615000000000009e+03
6.300000000000000044e-02 1.320709999999999940e-01 2.733324999999999783e+00 3.735144999999999982e+01 1.900164999999999964e+03
6.400000000000000133e-02 1.320479999999999987e-01 2.580004999999999882e+00 3.744150000000000489e+01 1.899904999999999973e+03
6.500000000000000222e-02 1.320449999999999957e-01 2.724644999999999762e+00 3.818900000000000006e+01 1.899849999999999909e+03
6.600000000000000311e-02 1.320629999999999860e-01 3.173740000000000006e+00 3.960304999999999609e+01 1.900014999999999873e+03
6.700000000000000400e-02 1.321009999999999962e-01 3.923169999999999824e+00 4.166920000000000357e+01 1.900405000000000200e+03
6.800000000000000488e-02 1.321594999999999853e-01 4.958235000000000170e+00 4.434850000000000136e+01 1.901009999999999991e+03
6.900000000000000577e-02 1.322379999999999944e-01 6.254489999999999661e+00 4.757949999999999591e+01 1.901829999999999927e+03
7.000000000000000666e-02 1.323344999999999938e-01 7.779325000000000045e+00 5.128220000000000312e+01 1.902835000000000036e+03
7.100000000000000755e-02 1.324460000000000082e-01 9.493850000000000122e+00 5.536325000000000074e+01 1.904019999999999982e+03
7.200000000000000844e-02 1.325705000000000078e-01 1.135527500000000067e+01 5.972175000000000011e+01 1.905345000000000027e+03
7.300000000000000933e-02 1.327050000000000174e-01 1.331888000000000005e+01 6.425509999999999877e+01 1.906785000000000082e+03
7.399999999999999634e-02 1.328469999999999929e-01 1.534014999999999951e+01 6.886464999999999748e+01 1.908300000000000182e+03
7.499999999999999722e-02 1.329919999999999991e-01 1.737684999999999746e+01 7.345965000000001055e+01 1.909865000000000009e+03
7.599999999999999811e-02 1.331384999999999930e-01 1.939025000000000176e+01 7.796135000000001014e+01 1.911454999999999927e+03
7.699999999999999900e-02 1.332840000000000136e-01 2.134684999999999988e+01 8.230545000000000755e+01 1.913030000000000200e+03
7.799999999999999989e-02 1.334255000000000024e-01 2.321930000000000049e+01 8.644419999999999504e+01 1.914579999999999927e+03
7.900000000000000078e-02 1.335625000000000007e-01 2.498724999999999952e+01 9.034725000000000250e+01 1.916075000000000045e+03
8.000000000000000167e-02 1.336934999999999929e-01 2.663765000000000072e+01 9.400209999999999866e+01 1.917509999999999991e+03
8.100000000000000255e-02 1.338175000000000059e-01 2.816509999999999891e+01 9.741329999999999245e+01 1.918875000000000000e+03
8.200000000000000344e-02 1.339350000000000263e-01 2.957099999999999795e+01 1.006013499999999965e+02 1.920174999999999955e+03
8.300000000000000433e-02 1.340459999999999985e-01 3.086309999999999576e+01 1.035975999999999999e+02 1.921409999999999854e+03
8.400000000000000522e-02 1.341519999999999935e-01 3.205405000000000371e+01 1.064449999999999932e+02 1.922579999999999927e+03
8.500000000000000611e-02 1.342535000000000256e-01 3.316015000000000157e+01 1.091905000000000001e+02 1.923704999999999927e+03
8.600000000000000699e-02 1.343509999999999982e-01 3.419944999999999879e+01 1.118829999999999956e+02 1.924795000000000073e+03
8.700000000000000788e-02 1.344474999999999976e-01 3.519044999999999845e+01 1.145674999999999955e+02 1.925869999999999891e+03
8.800000000000000877e-02 1.345435000000000103e-01 3.615024999999999977e+01 1.172839999999999918e+02 1.926934999999999945e+03
8.899999999999999578e-02 1.346394999999999953e-01 3.709340000000000259e+01 1.200625000000000000e+02 1.928000000000000000e+03
8.999999999999999667e-02 1.347375000000000100e-01 3.803095000000000425e+01 1.229215000000000089e+02 1.929089999999999918e+03
9.099999999999999756e-02 1.348364999999999980e-01 3.896949999999999648e+01 1.258660000000000139e+02 1.930190000000000055e+03
9.199999999999999845e-02 1.349385000000000168e-01 3.991094999999999970e+01 1.288905000000000030e+02 1.931325000000000045e+03
9.299999999999999933e-02 1.350419999999999954e-01 4.085280000000000200e+01 1.319764999999999873e+02 1.932474999999999909e+03
9.400000000000000022e-02 1.351469999999999894e-01 4.178810000000000002e+01 1.350955000000000155e+02 1.933644999999999982e+03
9.500000000000000111e-02 1.352524999999999977e-01 4.270635000000000048e+01 1.382110000000000127e+02 1.934819999999999936e+03
9.600000000000000200e-02 1.353584999999999927e-01 4.359414999999999907e+01 1.412814999999999941e+02 1.935990000000000009e+03
9.700000000000000289e-02 1.354620000000000268e-01 4.443605000000000160e+01 1.442599999999999909e+02 1.937154999999999973e+03
9.800000000000000377e-02 1.355625000000000024e-01 4.521569999999999823e+01 1.471030000000000086e+02 1.938280000000000200e+03
9.900000000000000466e-02 1.356590000000000018e-01 4.591655000000000086e+01 1.497655000000000030e+02 1.939360000000000127e+03
1.000000000000000056e-01 1.357504999999999962e-01 4.652294999999999447e+01 1.522085000000000150e+02 1.940385000000000218e+03
1.010000000000000064e-01 1.358344999999999969e-01 4.702094999999999914e+01 1.543965000000000032e+02 1.941329999999999927e+03
1.020000000000000073e-01 1.359114999999999907e-01 4.739860000000000184e+01 1.563034999999999854e+02 1.942195000000000164e+03
1.030000000000000082e-01 1.359785000000000021e-01 4.764709999999999468e+01 1.579094999999999800e+02 1.942960000000000036e+03
1.040000000000000091e-01 1.360374999999999779e-01 4.776069999999999993e+01 1.592035000000000196e+02 1.943625000000000000e+03
1.050000000000000100e-01 1.360859999999999848e-01 4.773714999999999975e+01 1.601829999999999927e+02 1.944179999999999836e+03
1.059999999999999970e-01 1.361239999999999950e-01 4.757779999999999632e+01 1.608540000000000134e+02 1.944625000000000000e+03
1.069999999999999979e-01 1.361529999999999963e-01 4.728759999999999764e+01 1.612300000000000182e+02 1.944965000000000146e+03
1.079999999999999988e-01 1.361725000000000019e-01 4.687470000000000425e+01 1.613319999999999936e+02 1.945194999999999936e+03
1.089999999999999997e-01 1.361824999999999841e-01 4.635014999999999930e+01 1.611884999999999764e+02 1.945324999999999818e+03
1.100000000000000006e-01 1.361850000000000005e-01 4.572750000000000625e+01 1.608294999999999959e+02 1.945360000000000127e+03
1.110000000000000014e-01 1.361804999999999821e-01 4.502235000000000298e+01 1.602920000000000016e+02 1.945320000000000164e+03
1.120000000000000023e-01 1.361694999999999989e-01 4.425124999999999886e+01 1.596114999999999782e+02 1.945204999999999927e+03
1.130000000000000032e-01 1.361529999999999963e-01 4.343155000000000143e+01 1.588274999999999864e+02 1.945034999999999854e+03
1.140000000000000041e-01 1.361324999999999896e-01 4.258044999999999902e+01 1.579755000000000109e+02 1.944815000000000055e+03
1.150000000000000050e-01 1.361100000000000088e-01 4.171444999999999936e+01 1.570894999999999868e+02 1.944559999999999945e+03
1.160000000000000059e-01 1.360854999999999981e-01 4.084874999999999545e+01 1.562004999999999768e+02 1.944289999999999964e+03
1.170000000000000068e-01 1.360600000000000143e-01 3.999684999999999491e+01 1.553349999999999795e+02 1.944005000000000109e+03
1.180000000000000077e-01 1.360339999999999883e-01 3.917005000000000337e+01 1.545124999999999886e+02 1.943720000000000027e+03
1.190000000000000085e-01 1.360089999999999910e-01 3.837709999999999866e+01 1.537489999999999952e+02 1.943440000000000055e+03
1.200000000000000094e-01 1.359849999999999948e-01 3.762429999999999808e+01 1.530540000000000020e+02 1.943175000000000182e+03
1.209999999999999964e-01 1.359630000000000005e-01 3.691499999999999915e+01 1.524300000000000068e+02 1.942920000000000073e+03
1.219999999999999973e-01 1.359430000000000083e-01 3.625000000000000000e+01 1.518745000000000118e+02 1.942690000000000055e+03
1.229999999999999982e-01 1.359239999999999893e-01 3.562744999999999607e+01 1.513804999999999836e+02 1.942480000000000018e+03
1.239999999999999991e-01 1.359070000000000000e-01 3.504314999999999714e+01 1.509339999999999975e+02 1.942285000000000082e+03
1.250000000000000000e-01 1.358914999999999984e-01 3.449094999999999800e+01 1.505200000000000102e+02 1.942099999999999909e+03
1.260000000000000009e-01 1.358759999999999968e-01 3.396300000000000097e+01 1.501184999999999832e+02 1.941925000000000182e+03
1.270000000000000018e-01 1.358610000000000095e-01 3.345024999999999693e+01 1.497079999999999984e+02 1.941755000000000109e+03
1.280000000000000027e-01 1.358465000000000089e-01 3.294299999999999784e+01 1.492660000000000196e+02 1.941585000000000036e+03
1.290000000000000036e-01 1.358300000000000063e-01 3.243115000000000236e+01 1.487710000000000150e+02 1.941409999999999854e+03
1.300000000000000044e-01 1.358125000000000027e-01 3.190520000000000067e+01 1.482024999999999864e+02 1.941204999999999927e+03
1.310000000000000053e-01 1.357929999999999970e-01 3.135620000000000118e+01 1.475414999999999850e+02 1.940985000000000127e+03
1.320000000000000062e-01 1.357705000000000162e-01 3.077644999999999698e+01 1.467744999999999891e+02 1.940730000000000018e+03
1.330000000000000071e-01 1.357444999999999902e-01 3.015990000000000038e+01 1.458894999999999982e+02 1.940444999999999936e+03
1.340000000000000080e-01 1.357150000000000023e-01 2.950244999999999962e+01 1.448804999999999836e+02 1.940115000000000009e+03
1.350000000000000089e-01 1.356819999999999971e-01 2.880215000000000103e+01 1.437470000000000141e+02 1.939750000000000000e+03
1.360000000000000098e-01 1.356449999999999878e-01 2.805934999999999846e+01 1.424934999999999832e+02 1.939340000000000146e+03
1.370000000000000107e-01 1.356045000000000167e-01 2.727655000000000030e+01 1.411284999999999741e+02 1.938889999999999873e+03
1.380000000000000115e-01 1.355605000000000004e-01 2.645884999999999820e+01 1.396680000000000064e+02 1.938405000000000200e+03
1.390000000000000124e-01 1.355129999999999946e-01 2.561310000000000286e+01 1.381295000000000073e+02 1.937880000000000109e+03
1.400000000000000133e-01 1.354635000000000145e-01 2.474800000000000111e+01 1.365364999999999895e+02 1.937325000000000045e+03
1.410000000000000142e-01 1.354120000000000046e-01 2.387369999999999948e+01 1.349134999999999991e+02 1.936759999999999991e+03
1.420000000000000151e-01 1.353594999999999937e-01 2.300135000000000218e+01 1.332880000000000109e+02 1.936170000000000073e+03
1.430000000000000160e-01 1.353064999999999962e-01 2.214254999999999995e+01 1.316870000000000118e+02 1.935585000000000036e+03
1.440000000000000169e-01 1.352534999999999987e-01 2.130890000000000128e+01 1.301374999999999886e+02 1.935005000000000109e+03
1.450000000000000178e-01 1.352029999999999899e-01 2.051180000000000092e+01 1.286649999999999920e+02 1.934434999999999945e+03
1.459999999999999909e-01 1.351539999999999964e-01 1.976154999999999973e+01 1.272920000000000016e+02 1.933889999999999873e+03
1.469999999999999918e-01 1.351080000000000059e-01 1.906714999999999804e+01 1.260379999999999967e+02 1.933380000000000109e+03
1.479999999999999927e-01 1.350655000000000050e-01 1.843609999999999971e+01 1.249180000000000064e+02 1.932900000000000091e+03
1.489999999999999936e-01 1.350264999999999938e-01 1.787420000000000186e+01 1.239424999999999955e+02 1.932465000000000146e+03
1.499999999999999944e-01 1.349925000000000153e-01 1.738499999999999801e+01 1.231179999999999950e+02 1.932079999999999927e+03
1.509999999999999953e-01 1.349624999999999853e-01 1.697019999999999840e+01 1.224465000000000003e+02 1.931744999999999891e+03
1.519999999999999962e-01 1.349380000000000024e-01 1.662944999999999851e+01 1.219240000000000066e+02 1.931460000000000036e+03
1.529999999999999971e-01 1.349175000000000235e-01 1.636059999999999803e+01 1.215444999999999993e+02 1.931230000000000018e+03
1.539999999999999980e-01 1.349015000000000075e-01 1.615964999999999918e+01 1.212974999999999994e+02 1.931045000000000073e+03
1.549999999999999989e-01 1.348900000000000099e-01 1.602130000000000010e+01 1.211690000000000111e+02 1.930909999999999854e+03
1.559999999999999998e-01 1.348820000000000019e-01 1.593900000000000006e+01 1.211440000000000055e+02 1.930820000000000164e+03
1.570000000000000007e-01 1.348779999999999979e-01 1.590540000000000020e+01 1.212060000000000031e+02 1.930764999999999873e+03
1.580000000000000016e-01 1.348769999999999969e-01 1.591254999999999953e+01 1.213379999999999939e+02 1.930740000000000009e+03
1.590000000000000024e-01 1.348779999999999979e-01 1.595225000000000115e+01 1.215215000000000032e+02 1.930750000000000000e+03
