# t [s], A [cm^2], U [cm/s], P [cPa], c [cm/s]
1.000000000000000021e-03 1.277729999999999977e-01 1.179687499999999833e-01 8.834250000000000114e+01 1.842065000000000055e+03
2.000000000000000042e-03 1.277629999999999877e-01 1.223616999999999955e+00 8.615264999999999418e+01 1.841945000000000164e+03
3.000000000000000062e-03 1.277065000000000006e-01 2.646506999999999721e+00 8.330629999999999313e+01 1.841335000000000036e+03
4.000000000000000083e-03 1.276154999999999928e-01 4.247644000000000197e+00 7.992525000000000546e+01 1.840360000000000127e+03
5.000000000000000104e-03 1.275025000000000186e-01 5.986478500000000480e+00 7.647714999999999463e+01 1.839174999999999955e+03
6.000000000000000125e-03 1.273825000000000096e-01 7.812454999999999927e+00 7.332280000000000086e+01 1.837920000000000073e+03
7.000000000000000146e-03 1.272625000000000006e-01 9.634185000000000443e+00 7.059065000000001078e+01 1.836680000000000064e+03
8.000000000000000167e-03 1.271464999999999956e-01 1.134471999999999881e+01 6.820680000000000121e+01 1.835494999999999891e+03
9.000000000000001055e-03 1.270364999999999966e-01 1.287787999999999933e+01 6.605245000000000744e+01 1.834389999999999873e+03
1.000000000000000194e-02 1.269339999999999913e-01 1.422645999999999944e+01 6.409515000000000384e+01 1.833369999999999891e+03
1.099999999999999936e-02 1.268414999999999959e-01 1.540784999999999982e+01 6.236764999999999759e+01 1.832460000000000036e+03
1.200000000000000025e-02 1.267599999999999838e-01 1.643475000000000108e+01 6.089249999999999829e+01 1.831659999999999854e+03
1.300000000000000114e-02 1.266889999999999961e-01 1.731340000000000146e+01 5.965919999999999845e+01 1.830980000000000018e+03
1.400000000000000203e-02 1.266285000000000049e-01 1.804630000000000223e+01 5.863445000000000107e+01 1.830405000000000200e+03
1.499999999999999944e-02 1.265775000000000095e-01 1.863289999999999935e+01 5.776805000000000234e+01 1.829920000000000073e+03
1.600000000000000033e-02 1.265330000000000066e-01 1.907545000000000002e+01 5.700359999999999872e+01 1.829505000000000109e+03
1.700000000000000122e-02 1.264945000000000097e-01 1.939144999999999897e+01 5.631000000000000227e+01 1.829154999999999973e+03
1.800000000000000211e-02 1.264620000000000188e-01 1.962270000000000181e+01 5.571529999999999916e+01 1.828859999999999900e+03
1.900000000000000300e-02 1.264365000000000072e-01 1.983035000000000281e+01 5.531340000000000146e+01 1.828630000000000109e+03
2.000000000000000042e-02 1.264204999999999912e-01 2.007739999999999725e+01 5.523140000000000072e+01 1.828494999999999891e+03
2.100000000000000130e-02 1.264175000000000160e-01 2.040784999999999982e+01 5.557410000000000139e+01 1.828469999999999800e+03
2.200000000000000219e-02 1.264284999999999992e-01 2.083279999999999887e+01 5.637525000000000119e+01 1.828579999999999927e+03
2.299999999999999961e-02 1.264520000000000088e-01 2.132884999999999920e+01 5.757594999999999885e+01 1.828819999999999936e+03
2.400000000000000050e-02 1.264865000000000017e-01 2.184744999999999848e+01 5.903625000000000256e+01 1.829160000000000082e+03
2.500000000000000139e-02 1.265284999999999882e-01 2.232970000000000255e+01 6.057120000000000459e+01 1.829569999999999936e+03
2.600000000000000228e-02 1.265715000000000034e-01 2.272265000000000157e+01 6.199604999999999677e+01 1.830005000000000109e+03
2.700000000000000316e-02 1.266130000000000033e-01 2.299074999999999847e+01 6.316594999999999516e+01 1.830414999999999964e+03
2.800000000000000058e-02 1.266479999999999828e-01 2.312134999999999962e+01 6.400109999999999388e+01 1.830779999999999973e+03
2.900000000000000147e-02 1.266760000000000108e-01 2.312320000000000064e+01 6.449219999999999686e+01 1.831069999999999936e+03
3.000000000000000236e-02 1.266960000000000031e-01 2.302055000000000007e+01 6.468834999999999980e+01 1.831280000000000200e+03
3.099999999999999978e-02 1.267085000000000017e-01 2.284365000000000023e+01 6.467304999999998927e+01 1.831414999999999964e+03
3.200000000000000067e-02 1.267159999999999953e-01 2.262010000000000076e+01 6.453579999999999472e+01 1.831500000000000000e+03
3.300000000000000155e-02 1.267194999999999849e-01 2.236809999999999832e+01 6.434805000000000064e+01 1.831539999999999964e+03
3.400000000000000244e-02 1.267204999999999859e-01 2.209384999999999977e+01 6.414865000000000350e+01 1.831559999999999945e+03
3.500000000000000333e-02 1.267199999999999993e-01 2.179294999999999760e+01 6.394059999999999633e+01 1.831555000000000064e+03
3.600000000000000422e-02 1.267165000000000097e-01 2.145434999999999803e+01 6.369939999999999714e+01 1.831529999999999973e+03
3.700000000000000511e-02 1.267114999999999769e-01 2.106634999999999991e+01 6.338745000000000118e+01 1.831480000000000018e+03
3.799999999999999906e-02 1.267024999999999957e-01 2.062229999999999919e+01 6.297129999999999939e+01 1.831400000000000091e+03
3.899999999999999994e-02 1.266905000000000114e-01 2.012465000000000259e+01 6.243699999999999761e+01 1.831284999999999854e+03
4.000000000000000083e-02 1.266740000000000088e-01 1.958695000000000164e+01 6.179905000000000115e+01 1.831135000000000218e+03
4.100000000000000172e-02 1.266555000000000042e-01 1.903300000000000125e+01 6.110249999999999915e+01 1.830954999999999927e+03
4.200000000000000261e-02 1.266355000000000119e-01 1.849344999999999928e+01 6.041655000000000086e+01 1.830764999999999873e+03
4.300000000000000350e-02 1.266160000000000063e-01 1.800055000000000049e+01 5.982260000000000133e+01 1.830575000000000045e+03
4.400000000000000439e-02 1.265999999999999903e-01 1.758320000000000149e+01 5.939874999999999972e+01 1.830414999999999964e+03
4.499999999999999833e-02 1.265880000000000061e-01 1.726154999999999973e+01 5.920499999999999829e+01 1.830295000000000073e+03
4.599999999999999922e-02 1.265830000000000011e-01 1.704429999999999978e+01 5.927240000000000464e+01 1.830235000000000127e+03
4.700000000000000011e-02 1.265844999999999887e-01 1.692755000000000010e+01 5.959720000000000084e+01 1.830250000000000000e+03
4.800000000000000100e-02 1.265934999999999977e-01 1.689600000000000080e+01 6.014244999999999663e+01 1.830325000000000045e+03
4.900000000000000189e-02 1.266084999999999849e-01 1.692589999999999861e+01 6.084409999999999741e+01 1.830460000000000036e+03
5.000000000000000278e-02 1.266269999999999896e-01 1.698839999999999861e+01 6.162154999999999916e+01 1.830639999999999873e+03
5.100000000000000366e-02 1.266479999999999828e-01 1.705395000000000039e+01 6.238909999999999911e+01 1.830840000000000146e+03
5.200000000000000455e-02 1.266690000000000038e-01 1.709540000000000148e+01 6.306739999999999924e+01 1.831049999999999955e+03
5.300000000000000544e-02 1.266879999999999951e-01 1.709060000000000201e+01 6.359140000000000015e+01 1.831235000000000127e+03
5.399999999999999939e-02 1.267040000000000111e-01 1.702360000000000184e+01 6.391570000000000107e+01 1.831384999999999991e+03
5.500000000000000028e-02 1.267135000000000067e-01 1.688494999999999990e+01 6.401604999999999279e+01 1.831480000000000018e+03
5.600000000000000117e-02 1.267175000000000107e-01 1.667099999999999937e+01 6.388739999999999952e+01 1.831525000000000091e+03
5.700000000000000205e-02 1.267155000000000087e-01 1.638260000000000005e+01 6.354050000000000153e+01 1.831505000000000109e+03
5.800000000000000294e-02 1.267064999999999997e-01 1.602384999999999948e+01 6.299639999999999418e+01 1.831430000000000064e+03
5.900000000000000383e-02 1.266915000000000124e-01 1.560055000000000014e+01 6.228194999999999482e+01 1.831284999999999854e+03
6.000000000000000472e-02 1.266714999999999924e-01 1.511950000000000038e+01 6.142534999999999457e+01 1.831090000000000146e+03
6.099999999999999867e-02 1.266464999999999952e-01 1.458765000000000001e+01 6.045395000000000607e+01 1.830849999999999909e+03
6.199999999999999956e-02 1.266174999999999939e-01 1.401254999999999917e+01 5.939260000000000161e+01 1.830565000000000055e+03
6.300000000000000044e-02 1.265844999999999887e-01 1.340194999999999936e+01 5.826454999999999984e+01 1.830250000000000000e+03
6.400000000000000133e-02 1.265495000000000092e-01 1.276494999999999891e+01 5.709194999999999709e+01 1.829904999999999973e+03
6.500000000000000222e-02 1.265120000000000133e-01 1.211186499999999988e+01 5.589815000000000111e+01 1.829539999999999964e+03
6.600000000000000311e-02 1.264734999999999887e-01 1.145512499999999889e+01 5.470905000000000484e+01 1.829164999999999964e+03
6.700000000000000400e-02 1.264345000000000052e-01 1.080915500000000051e+01 5.355420000000000158e+01 1.828784999999999854e+03
6.800000000000000488e-02 1.263964999999999950e-01 1.019048500000000068e+01 5.246764999999999901e+01 1.828410000000000082e+03
6.900000000000000577e-02 1.263604999999999867e-01 9.617205000000000226e+00 5.148740000000000094e+01 1.828054999999999836e+03
7.000000000000000666e-02 1.263269999999999949e-01 9.108470000000000510e+00 5.065434999999999377e+01 1.827724999999999909e+03
7.100000000000000755e-02 1.262979999999999936e-01 8.683775000000000688e+00 5.001050000000000040e+01 1.827440000000000055e+03
7.200000000000000844e-02 1.262754999999999850e-01 8.361964999999999648e+00 4.959709999999999752e+01 1.827210000000000036e+03
7.300000000000000933e-02 1.262594999999999967e-01 8.160305000000001030e+00 4.945194999999999652e+01 1.827050000000000182e+03
7.399999999999999634e-02 1.262520000000000031e-01 8.093754999999999811e+00 4.960759999999999792e+01 1.826965000000000146e+03
7.499999999999999722e-02 1.262530000000000041e-01 8.174234999999999474e+00 5.008939999999999770e+01 1.826969999999999800e+03
7.599999999999999811e-02 1.262655000000000027e-01 8.410119999999999152e+00 5.091424999999999557e+01 1.827074999999999818e+03
7.699999999999999900e-02 1.262880000000000114e-01 8.806004999999998972e+00 5.208984999999999843e+01 1.827289999999999964e+03
7.799999999999999989e-02 1.263215000000000032e-01 9.362574999999999648e+00 5.361480000000000246e+01 1.827605000000000018e+03
7.900000000000000078e-02 1.263670000000000071e-01 1.007692000000000121e+01 5.547865000000000180e+01 1.828039999999999964e+03
8.000000000000000167e-02 1.264230000000000076e-01 1.094245499999999893e+01 5.766340000000000288e+01 1.828579999999999927e+03
8.100000000000000255e-02 1.264899999999999913e-01 1.194998499999999986e+01 6.014440000000000452e+01 1.829224999999999909e+03
8.200000000000000344e-02 1.265674999999999994e-01 1.308769999999999989e+01 6.289215000000000089e+01 1.829964999999999918e+03
8.300000000000000433e-02 1.266539999999999888e-01 1.434215000000000018e+01 6.587399999999999523e+01 1.830809999999999945e+03
8.400000000000000522e-02 1.267479999999999996e-01 1.569865000000000066e+01 6.905570000000000164e+01 1.831724999999999909e+03
8.500000000000000611e-02 1.268505000000000049e-01 1.714219999999999899e+01 7.240335000000000321e+01 1.832720000000000027e+03
8.600000000000000699e-02 1.269585000000000019e-01 1.865784999999999982e+01 7.588464999999999350e+01 1.833784999999999854e+03
8.700000000000000788e-02 1.270719999999999905e-01 2.023114999999999952e+01 7.946999999999999886e+01 1.834900000000000091e+03
8.800000000000000877e-02 1.271904999999999841e-01 2.184870000000000090e+01 8.313360000000000127e+01 1.836059999999999945e+03
8.899999999999999578e-02 1.273119999999999807e-01 2.349824999999999875e+01 8.685345000000000937e+01 1.837264999999999873e+03
8.999999999999999667e-02 1.274365000000000081e-01 2.516895000000000238e+01 9.061195000000000732e+01 1.838494999999999891e+03
9.099999999999999756e-02 1.275634999999999963e-01 2.685110000000000241e+01 9.439555000000000007e+01 1.839744999999999891e+03
9.199999999999999845e-02 1.276919999999999999e-01 2.853645000000000209e+01 9.819325000000000614e+01 1.841025000000000091e+03
9.299999999999999933e-02 1.278215000000000046e-01 3.021775000000000233e+01 1.019977499999999964e+02 1.842315000000000055e+03
9.400000000000000022e-02 1.279520000000000102e-01 3.188850000000000051e+01 1.058025000000000091e+02 1.843619999999999891e+03
9.500000000000000111e-02 1.280834999999999890e-01 3.354299999999999926e+01 1.096034999999999968e+02 1.844929999999999836e+03
9.600000000000000200e-02 1.282149999999999956e-01 3.517580000000000240e+01 1.133944999999999936e+02 1.846250000000000000e+03
9.700000000000000289e-02 1.283465000000000023e-01 3.678180000000000405e+01 1.171714999999999947e+02 1.847565000000000055e+03
9.800000000000000377e-02 1.284784999999999955e-01 3.835599999999999454e+01 1.209275000000000091e+02 1.848884999999999991e+03
9.900000000000000466e-02 1.286094999999999877e-01 3.989334999999999809e+01 1.246555000000000035e+02 1.850210000000000036e+03
1.000000000000000056e-01 1.287405000000000077e-01 4.138904999999999745e+01 1.283470000000000084e+02 1.851529999999999973e+03
1.010000000000000064e-01 1.288704999999999989e-01 4.283809999999999718e+01 1.319929999999999950e+02 1.852840000000000146e+03
1.020000000000000073e-01 1.289985000000000159e-01 4.423579999999999757e+01 1.355840000000000032e+02 1.854134999999999991e+03
1.030000000000000082e-01 1.291259999999999908e-01 4.557750000000000057e+01 1.391084999999999923e+02 1.855420000000000073e+03
1.040000000000000091e-01 1.292504999999999904e-01 4.685869999999999891e+01 1.425559999999999832e+02 1.856684999999999945e+03
1.050000000000000100e-01 1.293729999999999880e-01 4.807515000000000072e+01 1.459170000000000016e+02 1.857934999999999945e+03
1.059999999999999970e-01 1.294929999999999970e-01 4.922294999999999732e+01 1.491804999999999950e+02 1.859155000000000200e+03
1.069999999999999979e-01 1.296100000000000030e-01 5.029829999999999757e+01 1.523354999999999961e+02 1.860345000000000027e+03
1.079999999999999988e-01 1.297234999999999916e-01 5.129770000000000607e+01 1.553745000000000118e+02 1.861500000000000000e+03
1.089999999999999997e-01 1.298330000000000040e-01 5.221800000000000352e+01 1.582864999999999895e+02 1.862625000000000000e+03
1.100000000000000006e-01 1.299385000000000123e-01 5.305620000000000402e+01 1.610634999999999764e+02 1.863704999999999927e+03
1.110000000000000014e-01 1.300399999999999889e-01 5.380960000000000321e+01 1.636970000000000027e+02 1.864750000000000000e+03
1.120000000000000023e-01 1.301364999999999883e-01 5.447584999999999411e+01 1.661790000000000020e+02 1.865740000000000009e+03
1.130000000000000032e-01 1.302280000000000104e-01 5.505279999999999774e+01 1.685024999999999977e+02 1.866679999999999836e+03
1.140000000000000041e-01 1.303144999999999998e-01 5.553900000000000148e+01 1.706614999999999895e+02 1.867569999999999936e+03
1.150000000000000050e-01 1.303954999999999975e-01 5.593340000000000600e+01 1.726505000000000223e+02 1.868404999999999973e+03
1.160000000000000059e-01 1.304704999999999893e-01 5.623564999999999969e+01 1.744655000000000200e+02 1.869184999999999945e+03
1.170000000000000068e-01 1.305399999999999894e-01 5.644599999999999795e+01 1.761045000000000016e+02 1.869904999999999973e+03
1.180000000000000077e-01 1.306034999999999835e-01 5.656569999999999965e+01 1.775665000000000191e+02 1.870565000000000055e+03
1.190000000000000085e-01 1.306609999999999994e-01 5.659700000000000131e+01 1.788544999999999732e+02 1.871159999999999854e+03
1.200000000000000094e-01 1.307129999999999959e-01 5.654274999999999807e+01 1.799710000000000036e+02 1.871700000000000045e+03
1.209999999999999964e-01 1.307584999999999997e-01 5.640704999999999814e+01 1.809230000000000018e+02 1.872180000000000064e+03
1.219999999999999973e-01 1.307989999999999986e-01 5.619464999999999577e+01 1.817180000000000177e+02 1.872599999999999909e+03
1.229999999999999982e-01 1.308330000000000048e-01 5.591120000000000090e+01 1.823654999999999973e+02 1.872965000000000146e+03
1.239999999999999991e-01 1.308624999999999927e-01 5.556270000000000664e+01 1.828779999999999859e+02 1.873275000000000091e+03
1.250000000000000000e-01 1.308870000000000033e-01 5.515590000000000259e+01 1.832674999999999841e+02 1.873534999999999854e+03
1.260000000000000009e-01 1.309075000000000100e-01 5.469769999999999754e+01 1.835459999999999923e+02 1.873750000000000000e+03
1.270000000000000018e-01 1.309234999999999982e-01 5.419525000000000148e+01 1.837284999999999968e+02 1.873920000000000073e+03
1.280000000000000027e-01 1.309354999999999825e-01 5.365540000000000020e+01 1.838265000000000100e+02 1.874054999999999836e+03
1.290000000000000036e-01 1.309450000000000058e-01 5.308494999999999919e+01 1.838530000000000086e+02 1.874154999999999973e+03
1.300000000000000044e-01 1.309509999999999841e-01 5.249004999999999654e+01 1.838195000000000050e+02 1.874219999999999800e+03
1.310000000000000053e-01 1.309549999999999881e-01 5.187659999999999627e+01 1.837355000000000018e+02 1.874264999999999873e+03
1.320000000000000062e-01 1.309565000000000035e-01 5.124970000000000425e+01 1.836109999999999900e+02 1.874284999999999854e+03
1.330000000000000071e-01 1.309560000000000168e-01 5.061379999999999768e+01 1.834515000000000100e+02 1.874284999999999854e+03
1.340000000000000080e-01 1.309540000000000148e-01 4.997254999999999825e+01 1.832634999999999934e+02 1.874269999999999982e+03
1.350000000000000089e-01 1.309504999999999975e-01 4.932880000000000109e+01 1.830500000000000114e+02 1.874235000000000127e+03
1.360000000000000098e-01 1.309460000000000068e-01 4.868475000000000108e+01 1.828135000000000048e+02 1.874190000000000055e+03
1.370000000000000107e-01 1.309404999999999875e-01 4.804175000000000040e+01 1.825554999999999950e+02 1.874130000000000109e+03
1.380000000000000115e-01 1.309335000000000082e-01 4.740044999999999931e+01 1.822744999999999891e+02 1.874065000000000055e+03
1.390000000000000124e-01 1.309259999999999868e-01 4.676104999999999734e+01 1.819699999999999989e+02 1.873985000000000127e+03
1.400000000000000133e-01 1.309164999999999912e-01 4.612299999999999756e+01 1.816384999999999934e+02 1.873894999999999982e+03
1.410000000000000142e-01 1.309069999999999956e-01 4.548539999999999850e+01 1.812769999999999868e+02 1.873789999999999964e+03
1.420000000000000151e-01 1.308960000000000123e-01 4.484700000000000131e+01 1.808829999999999814e+02 1.873674999999999955e+03
1.430000000000000160e-01 1.308835000000000137e-01 4.420635000000000048e+01 1.804510000000000218e+02 1.873545000000000073e+03
1.440000000000000169e-01 1.308699999999999863e-01 4.356175000000000352e+01 1.799784999999999968e+02 1.873400000000000091e+03
1.450000000000000178e-01 1.308545000000000125e-01 4.291159999999999997e+01 1.794615000000000009e+02 1.873244999999999891e+03
1.459999999999999909e-01 1.308374999999999955e-01 4.225435000000000230e+01 1.788969999999999914e+02 1.873074999999999818e+03
1.469999999999999918e-01 1.308189999999999908e-01 4.158849999999999625e+01 1.782820000000000107e+02 1.872884999999999991e+03
1.479999999999999927e-01 1.307985000000000120e-01 4.091290000000000049e+01 1.776150000000000091e+02 1.872675000000000182e+03
1.489999999999999936e-01 1.307770000000000044e-01 4.022684999999999889e+01 1.768950000000000102e+02 1.872454999999999927e+03
1.499999999999999944e-01 1.307530000000000081e-01 3.952979999999999450e+01 1.761229999999999905e+02 1.872215000000000146e+03
1.509999999999999953e-01 1.307274999999999965e-01 3.882189999999999941e+01 1.752990000000000066e+02 1.871950000000000045e+03
1.519999999999999962e-01 1.307004999999999972e-01 3.810360000000000014e+01 1.744259999999999877e+02 1.871670000000000073e+03
1.529999999999999971e-01 1.306710000000000094e-01 3.737595000000000312e+01 1.735070000000000050e+02 1.871375000000000000e+03
1.539999999999999980e-01 1.306410000000000071e-01 3.664039999999999964e+01 1.725470000000000255e+02 1.871059999999999945e+03
1.549999999999999989e-01 1.306090000000000029e-01 3.589910000000000423e+01 1.715509999999999877e+02 1.870735000000000127e+03
1.559999999999999998e-01 1.305755000000000110e-01 3.515444999999999709e+01 1.705264999999999986e+02 1.870394999999999982e+03
1.570000000000000007e-01 1.305415000000000048e-01 3.440919999999999845e+01 1.694805000000000064e+02 1.870045000000000073e+03
1.580000000000000016e-01 1.305060000000000109e-01 3.366664999999999708e+01 1.684200000000000159e+02 1.869684999999999945e+03
1.590000000000000024e-01 1.304700000000000026e-01 3.293005000000000138e+01 1.673545000000000016e+02 1.869319999999999936e+03
