# t [s], A [cm^2], U [cm/s], P [cPa], c [cm/s]
1.000000000000000021e-03 4.810185000000000155e-01 3.017699999999998162e-03 9.215155000000000030e+01 1.463139999999999873e+03
2.000000000000000042e-03 4.810130000000000239e-01 4.141050000000001154e-04 9.213915000000000077e+01 1.463134999999999991e+03
3.000000000000000062e-03 4.810269999999999824e-01 2.703624999999999778e-02 9.216169999999999618e+01 1.463144999999999982e+03
4.000000000000000083e-03 4.810639999999999916e-01 1.006229000000000151e-01 9.224854999999999450e+01 1.463164999999999964e+03
5.000000000000000104e-03 4.810834999999999972e-01 1.427487999999999813e-01 9.230429999999999779e+01 1.463184999999999945e+03
6.000000000000000125e-03 4.810689999999999689e-01 1.201403000000000054e-01 9.226935000000000286e+01 1.463180000000000064e+03
7.000000000000000146e-03 4.810394999999999532e-01 6.517749999999999932e-02 9.216259999999999764e+01 1.463154999999999973e+03
8.000000000000000167e-03 4.810139999999999416e-01 1.642550000000000954e-02 9.202779999999999916e+01 1.463119999999999891e+03
9.000000000000001055e-03 4.809824999999999795e-01 -4.792449999999998100e-02 9.185030000000000427e+01 1.463079999999999927e+03
1.000000000000000194e-02 4.809295000000000098e-01 -1.642379999999999951e-01 9.158719999999999573e+01 1.463019999999999982e+03
1.099999999999999936e-02 4.808480000000000532e-01 -3.473304999999999865e-01 9.120785000000000764e+01 1.462929999999999836e+03
1.200000000000000025e-02 4.807329999999999659e-01 -6.067199999999999260e-01 9.068375000000000341e+01 1.462804999999999836e+03
1.300000000000000114e-02 4.805760000000000032e-01 -9.531200000000000783e-01 8.998234999999999673e+01 1.462639999999999873e+03
1.400000000000000203e-02 4.803760000000000252e-01 -1.380179999999999962e+00 8.908809999999999718e+01 1.462420000000000073e+03
1.499999999999999944e-02 4.801449999999999885e-01 -1.850285000000000180e+00 8.802365000000000350e+01 1.462150000000000091e+03
1.600000000000000033e-02 4.799054999999999849e-01 -2.302125000000000199e+00 8.684919999999999618e+01 1.461849999999999909e+03
1.700000000000000122e-02 4.796785000000000077e-01 -2.672714999999999730e+00 8.564074999999999704e+01 1.461525000000000091e+03
1.800000000000000211e-02 4.794775000000000009e-01 -2.917252500000000026e+00 8.446444999999999936e+01 1.461200000000000045e+03
1.900000000000000300e-02 4.793034999999999934e-01 -3.017898999999999887e+00 8.336005000000000109e+01 1.460880000000000109e+03
2.000000000000000042e-02 4.791509999999999936e-01 -2.981639999999999624e+00 8.233674999999999500e+01 1.460569999999999936e+03
2.100000000000000130e-02 4.790075000000000305e-01 -2.831964000000000148e+00 8.137839999999999918e+01 1.460269999999999982e+03
2.200000000000000219e-02 4.788614999999999955e-01 -2.598790500000000225e+00 8.045435000000000514e+01 1.459969999999999800e+03
2.299999999999999961e-02 4.787025000000000308e-01 -2.309569000000000205e+00 7.953045000000000186e+01 1.459664999999999964e+03
2.400000000000000050e-02 4.785249999999999782e-01 -1.983210000000000139e+00 7.857929999999998927e+01 1.459360000000000127e+03
2.500000000000000139e-02 4.783299999999999774e-01 -1.627539999999999987e+00 7.758635000000001014e+01 1.459039999999999964e+03
2.600000000000000228e-02 4.781210000000000182e-01 -1.240454999999999863e+00 7.655164999999999509e+01 1.458704999999999927e+03
2.700000000000000316e-02 4.779039999999999955e-01 -8.141449999999998965e-01 7.548704999999999643e+01 1.458360000000000127e+03
2.800000000000000058e-02 4.776854999999999851e-01 -3.407399999999998208e-01 7.440980000000000416e+01 1.458014999999999873e+03
2.900000000000000147e-02 4.774680000000000035e-01 1.823250000000000703e-01 7.333554999999999779e+01 1.457664999999999964e+03
3.000000000000000236e-02 4.772534999999999972e-01 7.488650000000001139e-01 7.227240000000000464e+01 1.457320000000000164e+03
3.099999999999999978e-02 4.770375000000000032e-01 1.343055000000000110e+00 7.121729999999999450e+01 1.456970000000000027e+03
3.200000000000000067e-02 4.768149999999999888e-01 1.941040000000000099e+00 7.015600000000000591e+01 1.456625000000000000e+03
3.300000000000000155e-02 4.765779999999999461e-01 2.514400000000000190e+00 6.906565000000000509e+01 1.456269999999999982e+03
3.400000000000000244e-02 4.763200000000000212e-01 3.034669999999999757e+00 6.791965000000000430e+01 1.455900000000000091e+03
3.500000000000000333e-02 4.760349999999999859e-01 3.477929999999999744e+00 6.669339999999999691e+01 1.455514999999999873e+03
3.600000000000000422e-02 4.757219999999999782e-01 3.828564999999999330e+00 6.537035000000000196e+01 1.455105000000000018e+03
3.700000000000000511e-02 4.753824999999999856e-01 4.081574999999999953e+00 6.394615000000000293e+01 1.454670000000000073e+03
3.799999999999999906e-02 4.750225000000000142e-01 4.242865000000000109e+00 6.243090000000000828e+01 1.454215000000000146e+03
3.899999999999999994e-02 4.746509999999999896e-01 4.327799999999999869e+00 6.084915000000000163e+01 1.453750000000000000e+03
4.000000000000000083e-02 4.742775000000000185e-01 4.358220000000000205e+00 5.923680000000000234e+01 1.453269999999999982e+03
4.100000000000000172e-02 4.739134999999999875e-01 4.358715000000000117e+00 5.763719999999999999e+01 1.452789999999999964e+03
4.200000000000000261e-02 4.735694999999999766e-01 4.353645000000000209e+00 5.609605000000000530e+01 1.452335000000000036e+03
4.300000000000000350e-02 4.732545000000000224e-01 4.364205000000000112e+00 5.465709999999999980e+01 1.451894999999999982e+03
4.400000000000000439e-02 4.729744999999999644e-01 4.407225000000000392e+00 5.335909999999999798e+01 1.451490000000000009e+03
4.499999999999999833e-02 4.727354999999999752e-01 4.494894999999999641e+00 5.223324999999999818e+01 1.451130000000000109e+03
4.599999999999999922e-02 4.725390000000000423e-01 4.635365499999999805e+00 5.130349999999999966e+01 1.450825000000000045e+03
4.700000000000000011e-02 4.723880000000000301e-01 4.833969999999999878e+00 5.058629999999999427e+01 1.450575000000000045e+03
4.800000000000000100e-02 4.722830000000000084e-01 5.094585000000000363e+00 5.009270000000000067e+01 1.450384999999999991e+03
4.900000000000000189e-02 4.722250000000000059e-01 5.420885000000000176e+00 4.982959999999999923e+01 1.450259999999999991e+03
5.000000000000000278e-02 4.722155000000000102e-01 5.817180000000000462e+00 4.980150000000000432e+01 1.450210000000000036e+03
5.100000000000000366e-02 4.722545000000000215e-01 6.288759999999999906e+00 5.001170000000000471e+01 1.450224999999999909e+03
5.200000000000000455e-02 4.723439999999999861e-01 6.841699999999999449e+00 5.046274999999999977e+01 1.450309999999999945e+03
5.300000000000000544e-02 4.724844999999999740e-01 7.482224999999999682e+00 5.115675000000000239e+01 1.450464999999999918e+03
5.399999999999999939e-02 4.726764999999999439e-01 8.215849999999999653e+00 5.209449999999999648e+01 1.450684999999999945e+03
5.500000000000000028e-02 4.729200000000000070e-01 9.046450000000000102e+00 5.327499999999999858e+01 1.450989999999999782e+03
5.600000000000000117e-02 4.732144999999999824e-01 9.975484999999999047e+00 5.469429999999999836e+01 1.451355000000000018e+03
5.700000000000000205e-02 4.735574999999999646e-01 1.100145999999999979e+01 5.634484999999999388e+01 1.451789999999999964e+03
5.800000000000000294e-02 4.739459999999999784e-01 1.211968000000000067e+01 5.821529999999999916e+01 1.452295000000000073e+03
5.900000000000000383e-02 4.743760000000000199e-01 1.332251000000000118e+01 6.028995000000000459e+01 1.452865000000000009e+03
6.000000000000000472e-02 4.748434999999999739e-01 1.459982000000000113e+01 6.254975000000000307e+01 1.453485000000000127e+03
6.099999999999999867e-02 4.753425000000000011e-01 1.593949999999999889e+01 6.497230000000000416e+01 1.454164999999999964e+03
6.199999999999999956e-02 4.758685000000000276e-01 1.732833499999999916e+01 6.753340000000000032e+01 1.454889999999999873e+03
6.300000000000000044e-02 4.764154999999999918e-01 1.875274999999999892e+01 7.020799999999999841e+01 1.455654999999999973e+03
6.400000000000000133e-02 4.769780000000000131e-01 2.019960000000000022e+01 7.297119999999999607e+01 1.456445000000000164e+03
6.500000000000000222e-02 4.775519999999999765e-01 2.165654999999999930e+01 7.579935000000000400e+01 1.457269999999999982e+03
6.600000000000000311e-02 4.781340000000000590e-01 2.311265000000000214e+01 7.867115000000001146e+01 1.458110000000000127e+03
6.700000000000000400e-02 4.787204999999999933e-01 2.455849999999999866e+01 8.156790000000000873e+01 1.458965000000000146e+03
6.800000000000000488e-02 4.793080000000000118e-01 2.598635000000000161e+01 8.447405000000000541e+01 1.459825000000000045e+03
6.900000000000000577e-02 4.798954999999999749e-01 2.738984999999999914e+01 8.737725000000000364e+01 1.460700000000000045e+03
7.000000000000000666e-02 4.804809999999999914e-01 2.876419999999999888e+01 9.026810000000000400e+01 1.461570000000000164e+03
7.100000000000000755e-02 4.810634999999999772e-01 3.010555000000000092e+01 9.314009999999998968e+01 1.462440000000000055e+03
7.200000000000000844e-02 4.816435000000000022e-01 3.141094999999999970e+01 9.598890000000000100e+01 1.463309999999999945e+03
7.300000000000000933e-02 4.822199999999999820e-01 3.267799999999999727e+01 9.881135000000000446e+01 1.464174999999999955e+03
7.399999999999999634e-02 4.827924999999999578e-01 3.390480000000000160e+01 1.016064499999999953e+02 1.465039999999999964e+03
7.499999999999999722e-02 4.833604999999999707e-01 3.508944999999999936e+01 1.043735000000000070e+02 1.465894999999999982e+03
7.599999999999999811e-02 4.839240000000000208e-01 3.622995000000000232e+01 1.071111499999999950e+02 1.466744999999999891e+03
7.699999999999999900e-02 4.844835000000000114e-01 3.732424999999999926e+01 1.098185500000000019e+02 1.467585000000000036e+03
7.799999999999999989e-02 4.850375000000000103e-01 3.837004999999999910e+01 1.124934999999999974e+02 1.468420000000000073e+03
7.900000000000000078e-02 4.855840000000000156e-01 3.936475000000000080e+01 1.151334999999999980e+02 1.469250000000000000e+03
8.000000000000000167e-02 4.861245000000000149e-01 4.030545000000000044e+01 1.177349999999999994e+02 1.470059999999999945e+03
8.100000000000000255e-02 4.866559999999999775e-01 4.118925000000000125e+01 1.202924999999999898e+02 1.470865000000000009e+03
8.200000000000000344e-02 4.871779999999999999e-01 4.201285000000000025e+01 1.228009999999999877e+02 1.471659999999999854e+03
8.300000000000000433e-02 4.876880000000000104e-01 4.277329999999999899e+01 1.252535000000000025e+02 1.472440000000000055e+03
8.400000000000000522e-02 4.881849999999999801e-01 4.346755000000000280e+01 1.276430000000000007e+02 1.473204999999999927e+03
8.500000000000000611e-02 4.886675000000000324e-01 4.409300000000000352e+01 1.299619999999999891e+02 1.473945000000000164e+03
8.600000000000000699e-02 4.891349999999999865e-01 4.464750000000000085e+01 1.322044999999999959e+02 1.474664999999999964e+03
8.700000000000000788e-02 4.895839999999999637e-01 4.512924999999999898e+01 1.343625000000000114e+02 1.475365000000000009e+03
8.800000000000000877e-02 4.900155000000000483e-01 4.553710000000000235e+01 1.364304999999999950e+02 1.476035000000000082e+03
8.899999999999999578e-02 4.904269999999999463e-01 4.587030000000000030e+01 1.384024999999999750e+02 1.476684999999999945e+03
8.999999999999999667e-02 4.908184999999999354e-01 4.612895000000000323e+01 1.402744999999999891e+02 1.477299999999999955e+03
9.099999999999999756e-02 4.911889999999999867e-01 4.631334999999999980e+01 1.420420000000000016e+02 1.477884999999999991e+03
9.199999999999999845e-02 4.915380000000000305e-01 4.642445000000000022e+01 1.437034999999999911e+02 1.478440000000000055e+03
9.299999999999999933e-02 4.918660000000000254e-01 4.646375000000000455e+01 1.452560000000000002e+02 1.478960000000000036e+03
9.400000000000000022e-02 4.921709999999999696e-01 4.643294999999999817e+01 1.466999999999999886e+02 1.479454999999999927e+03
9.500000000000000111e-02 4.924545000000000172e-01 4.633424999999999727e+01 1.480344999999999800e+02 1.479909999999999854e+03
9.600000000000000200e-02 4.927160000000000428e-01 4.617024999999999579e+01 1.492599999999999909e+02 1.480335000000000036e+03
9.700000000000000289e-02 4.929565000000000197e-01 4.594400000000000261e+01 1.503789999999999907e+02 1.480724999999999909e+03
9.800000000000000377e-02 4.931759999999999478e-01 4.565879999999999939e+01 1.513934999999999889e+02 1.481079999999999927e+03
9.900000000000000466e-02 4.933745000000000491e-01 4.531855000000000189e+01 1.523075000000000045e+02 1.481410000000000082e+03
1.000000000000000056e-01 4.935540000000000482e-01 4.492745000000000033e+01 1.531239999999999952e+02 1.481704999999999927e+03
1.010000000000000064e-01 4.937154999999999738e-01 4.449014999999999986e+01 1.538489999999999895e+02 1.481965000000000146e+03
1.020000000000000073e-01 4.938589999999999369e-01 4.401160000000000139e+01 1.544869999999999948e+02 1.482204999999999927e+03
1.030000000000000082e-01 4.939870000000000094e-01 4.349699999999999989e+01 1.550455000000000041e+02 1.482414999999999964e+03
1.040000000000000091e-01 4.940999999999999837e-01 4.295185000000000031e+01 1.555310000000000059e+02 1.482605000000000018e+03
1.050000000000000100e-01 4.941999999999999726e-01 4.238160000000000593e+01 1.559499999999999886e+02 1.482764999999999873e+03
1.059999999999999970e-01 4.942885000000000195e-01 4.179160000000000252e+01 1.563100000000000023e+02 1.482909999999999854e+03
1.069999999999999979e-01 4.943664999999999865e-01 4.118699999999999761e+01 1.566184999999999832e+02 1.483030000000000200e+03
1.079999999999999988e-01 4.944355000000000278e-01 4.057264999999999588e+01 1.568824999999999932e+02 1.483139999999999873e+03
1.089999999999999997e-01 4.944970000000000199e-01 3.995275000000000176e+01 1.571074999999999875e+02 1.483230000000000018e+03
1.100000000000000006e-01 4.945514999999999772e-01 3.933104999999999762e+01 1.572995000000000232e+02 1.483315000000000055e+03
1.110000000000000014e-01 4.945999999999999841e-01 3.871059999999999945e+01 1.574639999999999986e+02 1.483384999999999991e+03
1.120000000000000023e-01 4.946429999999999993e-01 3.809355000000000047e+01 1.576039999999999850e+02 1.483440000000000055e+03
1.130000000000000032e-01 4.946810000000000374e-01 3.748160000000000025e+01 1.577214999999999918e+02 1.483490000000000009e+03
1.140000000000000041e-01 4.947139999999999871e-01 3.687550000000000239e+01 1.578190000000000168e+02 1.483534999999999854e+03
1.150000000000000050e-01 4.947424999999999740e-01 3.627555000000000263e+01 1.578965000000000032e+02 1.483565000000000055e+03
1.160000000000000059e-01 4.947654999999999692e-01 3.568134999999999479e+01 1.579535000000000196e+02 1.483594999999999800e+03
1.170000000000000068e-01 4.947829999999999728e-01 3.509210000000000207e+01 1.579894999999999925e+02 1.483615000000000009e+03
1.180000000000000077e-01 4.947949999999999848e-01 3.450665000000000049e+01 1.580024999999999977e+02 1.483625000000000000e+03
1.190000000000000085e-01 4.948004999999999765e-01 3.392349999999999710e+01 1.579900000000000091e+02 1.483630000000000109e+03
1.200000000000000094e-01 4.947989999999999888e-01 3.334104999999999563e+01 1.579504999999999768e+02 1.483625000000000000e+03
1.209999999999999964e-01 4.947905000000000220e-01 3.275780000000000314e+01 1.578804999999999836e+02 1.483605000000000018e+03
1.219999999999999973e-01 4.947734999999999772e-01 3.217199999999999704e+01 1.577785000000000082e+02 1.483579999999999927e+03
1.229999999999999982e-01 4.947495000000000087e-01 3.158239999999999981e+01 1.576424999999999841e+02 1.483550000000000182e+03
1.239999999999999991e-01 4.947169999999999623e-01 3.098754999999999882e+01 1.574710000000000036e+02 1.483500000000000000e+03
1.250000000000000000e-01 4.946764999999999635e-01 3.038665000000000305e+01 1.572629999999999768e+02 1.483440000000000055e+03
1.260000000000000009e-01 4.946274999999999977e-01 2.977899999999999636e+01 1.570190000000000055e+02 1.483375000000000000e+03
1.270000000000000018e-01 4.945710000000000384e-01 2.916414999999999935e+01 1.567384999999999877e+02 1.483295000000000073e+03
1.280000000000000027e-01 4.945070000000000299e-01 2.854240000000000066e+01 1.564225000000000136e+02 1.483210000000000036e+03
1.290000000000000036e-01 4.944350000000000134e-01 2.791404999999999959e+01 1.560735000000000241e+02 1.483105000000000018e+03
1.300000000000000044e-01 4.943575000000000053e-01 2.728000000000000114e+01 1.556940000000000168e+02 1.482994999999999891e+03
1.310000000000000053e-01 4.942734999999999768e-01 2.664155000000000229e+01 1.552874999999999943e+02 1.482880000000000109e+03
1.320000000000000062e-01 4.941849999999999854e-01 2.600030000000000285e+01 1.548569999999999993e+02 1.482755000000000109e+03
1.330000000000000071e-01 4.940930000000000044e-01 2.535815000000000197e+01 1.544074999999999989e+02 1.482625000000000000e+03
1.340000000000000080e-01 4.939979999999999927e-01 2.471734999999999971e+01 1.539435000000000002e+02 1.482485000000000127e+03
1.350000000000000089e-01 4.939014999999999933e-01 2.408034999999999926e+01 1.534699999999999989e+02 1.482345000000000027e+03
1.360000000000000098e-01 4.938040000000000207e-01 2.344985000000000142e+01 1.529934999999999832e+02 1.482195000000000164e+03
1.370000000000000107e-01 4.937080000000000357e-01 2.282860000000000156e+01 1.525180000000000007e+02 1.482054999999999836e+03
1.380000000000000115e-01 4.936135000000000383e-01 2.221930000000000049e+01 1.520500000000000114e+02 1.481914999999999964e+03
1.390000000000000124e-01 4.935214999999999463e-01 2.162480000000000047e+01 1.515939999999999941e+02 1.481769999999999982e+03
1.400000000000000133e-01 4.934339999999999837e-01 2.104769999999999897e+01 1.511560000000000059e+02 1.481634999999999991e+03
1.410000000000000142e-01 4.933504999999999696e-01 2.049050000000000082e+01 1.507394999999999925e+02 1.481505000000000109e+03
1.420000000000000151e-01 4.932734999999999759e-01 1.995539999999999736e+01 1.503495000000000061e+02 1.481380000000000109e+03
1.430000000000000160e-01 4.932024999999999881e-01 1.944430000000000192e+01 1.499890000000000043e+02 1.481259999999999991e+03
1.440000000000000169e-01 4.931389999999999940e-01 1.895889999999999986e+01 1.496605000000000132e+02 1.481154999999999973e+03
1.450000000000000178e-01 4.930815000000000059e-01 1.850025000000000119e+01 1.493665000000000020e+02 1.481055000000000064e+03
1.459999999999999909e-01 4.930324999999999847e-01 1.806935000000000002e+01 1.491090000000000089e+02 1.480965000000000146e+03
1.469999999999999918e-01 4.929900000000000393e-01 1.766639999999999944e+01 1.488870000000000005e+02 1.480884999999999991e+03
1.479999999999999927e-01 4.929550000000000320e-01 1.729159999999999897e+01 1.487015000000000100e+02 1.480820000000000164e+03
1.489999999999999936e-01 4.929279999999999773e-01 1.694450000000000145e+01 1.485515000000000043e+02 1.480764999999999873e+03
1.499999999999999944e-01 4.929069999999999840e-01 1.662434999999999974e+01 1.484350000000000023e+02 1.480715000000000146e+03
1.509999999999999953e-01 4.928919999999999968e-01 1.633024999999999949e+01 1.483505000000000109e+02 1.480679999999999836e+03
1.519999999999999962e-01 4.928829999999999600e-01 1.606090000000000018e+01 1.482950000000000159e+02 1.480650000000000091e+03
1.529999999999999971e-01 4.928795000000000259e-01 1.581475000000000009e+01 1.482660000000000196e+02 1.480630000000000109e+03
1.539999999999999980e-01 4.928800000000000403e-01 1.559024999999999928e+01 1.482610000000000241e+02 1.480619999999999891e+03
1.549999999999999989e-01 4.928845000000000587e-01 1.538565000000000005e+01 1.482760000000000105e+02 1.480610000000000127e+03
1.559999999999999998e-01 4.928925000000000112e-01 1.519934999999999903e+01 1.483085000000000093e+02 1.480610000000000127e+03
1.570000000000000007e-01 4.929025000000000212e-01 1.502940000000000076e+01 1.483545000000000016e+02 1.480615000000000009e+03
1.580000000000000016e-01 4.929149999999999920e-01 1.487420000000000009e+01 1.484114999999999895e+02 1.480625000000000000e+03
1.590000000000000024e-01 4.929290000000000060e-01 1.473215000000000074e+01 1.484775000000000205e+02 1.480639999999999873e+03
