# t [s], A [cm^2], U [cm/s], P [cPa], c [cm/s]
1.000000000000000021e-03 5.176404999999999479e-01 4.035850000000000548e-03 9.696649999999999636e+01 1.565675000000000182e+03
2.000000000000000042e-03 5.176330000000000098e-01 1.980849999999997543e-04 9.694235000000000468e+01 1.565664999999999964e+03
3.000000000000000062e-03 5.176799999999999180e-01 9.949784999999999879e-02 9.704319999999999879e+01 1.565695000000000164e+03
4.000000000000000083e-03 5.177199999999999580e-01 1.921984949999999970e-01 9.715565000000000850e+01 1.565724999999999909e+03
5.000000000000000104e-03 5.176975000000000326e-01 1.637556800000000146e-01 9.709825000000000728e+01 1.565720000000000027e+03
6.000000000000000125e-03 5.176429999999999643e-01 6.203249999999999043e-02 9.688240000000000407e+01 1.565664999999999964e+03
7.000000000000000146e-03 5.175919999999999410e-01 -4.138649999999999274e-02 9.659505000000000052e+01 1.565595000000000027e+03
8.000000000000000167e-03 5.175125000000000419e-01 -2.150250000000000217e-01 9.617009999999999081e+01 1.565490000000000009e+03
9.000000000000001055e-03 5.173799999999999510e-01 -5.128100000000000991e-01 9.551939999999999031e+01 1.565329999999999927e+03
1.000000000000000194e-02 5.171934999999999727e-01 -9.339049999999999851e-01 9.460444999999999993e+01 1.565099999999999909e+03
1.099999999999999936e-02 5.169399999999999551e-01 -1.493299999999999850e+00 9.337049999999999272e+01 1.564784999999999854e+03
1.200000000000000025e-02 5.166070000000000384e-01 -2.198850000000000193e+00 9.176595000000000368e+01 1.564365000000000009e+03
1.300000000000000114e-02 5.162149999999999794e-01 -2.985899999999999999e+00 8.982980000000000587e+01 1.563849999999999909e+03
1.400000000000000203e-02 5.158149999999999125e-01 -3.713860000000000383e+00 8.772254999999999825e+01 1.563269999999999982e+03
1.499999999999999944e-02 5.154625000000000457e-01 -4.230273000000000394e+00 8.566335000000000832e+01 1.562684999999999945e+03
1.600000000000000033e-02 5.151890000000000081e-01 -4.438915349999999371e+00 8.383449999999999136e+01 1.562130000000000109e+03
1.700000000000000122e-02 5.149924999999999642e-01 -4.327956000000000358e+00 8.231879999999999598e+01 1.561634999999999991e+03
1.800000000000000211e-02 5.148435000000000095e-01 -3.958117999999999803e+00 8.108905000000000030e+01 1.561204999999999927e+03
1.900000000000000300e-02 5.147040000000000504e-01 -3.428977000000000164e+00 8.003725000000000023e+01 1.560815000000000055e+03
2.000000000000000042e-02 5.145385000000000097e-01 -2.840402000000000093e+00 7.902375000000000682e+01 1.560434999999999945e+03
2.100000000000000130e-02 5.143260000000000609e-01 -2.261093499999999867e+00 7.792885000000001128e+01 1.560049999999999955e+03
2.200000000000000219e-02 5.140664999999999818e-01 -1.713335000000000274e+00 7.668944999999999368e+01 1.559625000000000000e+03
2.299999999999999961e-02 5.137734999999999941e-01 -1.178075000000000205e+00 7.530880000000000507e+01 1.559170000000000073e+03
2.400000000000000050e-02 5.134695000000000231e-01 -6.161249999999998117e-01 7.383905000000000030e+01 1.558690000000000055e+03
2.500000000000000139e-02 5.131719999999999615e-01 5.454999999999987637e-03 7.234735000000000582e+01 1.558199999999999818e+03
2.600000000000000228e-02 5.128884999999999694e-01 6.929599999999997983e-01 7.088200000000000500e+01 1.557715000000000146e+03
2.700000000000000316e-02 5.126125000000000265e-01 1.417554999999999898e+00 6.944950000000000045e+01 1.557230000000000018e+03
2.800000000000000058e-02 5.123259999999999481e-01 2.118985000000000340e+00 6.800854999999999961e+01 1.556744999999999891e+03
2.900000000000000147e-02 5.120059999999999611e-01 2.718484999999999818e+00 6.647894999999999754e+01 1.556240000000000009e+03
3.000000000000000236e-02 5.116285000000000416e-01 3.136654999999999749e+00 6.476205000000000211e+01 1.555690000000000055e+03
3.099999999999999978e-02 5.111774999999999514e-01 3.312040000000000095e+00 6.276829999999999643e+01 1.555069999999999936e+03
3.200000000000000067e-02 5.106470000000000731e-01 3.216075000000000017e+00 6.044304999999999950e+01 1.554375000000000000e+03
3.300000000000000155e-02 5.100480000000000569e-01 2.860055000000000458e+00 5.778584999999999638e+01 1.553595000000000027e+03
3.400000000000000244e-02 5.094015000000000626e-01 2.293239999999999945e+00 5.485649999999999693e+01 1.552740000000000009e+03
3.500000000000000333e-02 5.087384999999999824e-01 1.592315000000000147e+00 5.176740000000000208e+01 1.551835000000000036e+03
3.600000000000000422e-02 5.080945000000000045e-01 8.465800000000003322e-01 4.866599999999999682e+01 1.550920000000000073e+03
3.700000000000000511e-02 5.075005000000000210e-01 1.433349999999995461e-01 4.571210000000000662e+01 1.550029999999999973e+03
3.799999999999999906e-02 5.069850000000000190e-01 -4.431950000000002277e-01 4.305700000000000216e+01 1.549210000000000036e+03
3.899999999999999994e-02 5.065669999999999895e-01 -8.581699999999998774e-01 4.082730000000000103e+01 1.548494999999999891e+03
4.000000000000000083e-02 5.062579999999999858e-01 -1.067419999999999813e+00 3.911509999999999820e+01 1.547910000000000082e+03
4.100000000000000172e-02 5.060625000000000817e-01 -1.054985000000000062e+00 3.797575000000000500e+01 1.547485000000000127e+03
4.200000000000000261e-02 5.059810000000000141e-01 -8.183594999999999064e-01 3.743045000000000044e+01 1.547220000000000027e+03
4.300000000000000350e-02 5.060080000000000133e-01 -3.629789999999999961e-01 3.747384999999999877e+01 1.547125000000000000e+03
4.400000000000000439e-02 5.061384999999999357e-01 3.025950000000000584e-01 3.808174999999999955e+01 1.547199999999999818e+03
4.499999999999999833e-02 5.063664999999999417e-01 1.169815000000000049e+00 3.922005000000000052e+01 1.547434999999999945e+03
4.599999999999999922e-02 5.066850000000000520e-01 2.231160000000000032e+00 4.084990000000000521e+01 1.547825000000000045e+03
4.700000000000000011e-02 5.070890000000000120e-01 3.479169999999999874e+00 4.293139999999999645e+01 1.548355000000000018e+03
4.800000000000000100e-02 5.075709999999999944e-01 4.904374999999999929e+00 4.542300000000000182e+01 1.549014999999999873e+03
4.900000000000000189e-02 5.081225000000000325e-01 6.492874999999999730e+00 4.828090000000000259e+01 1.549799999999999955e+03
5.000000000000000278e-02 5.087355000000000071e-01 8.224845000000000184e+00 5.145655000000000001e+01 1.550684999999999945e+03
5.100000000000000366e-02 5.093975000000000586e-01 1.007375000000000043e+01 5.489574999999999250e+01 1.551660000000000082e+03
5.200000000000000455e-02 5.100959999999999939e-01 1.200741499999999995e+01 5.853849999999999909e+01 1.552704999999999927e+03
5.300000000000000544e-02 5.108179999999999943e-01 1.398985000000000056e+01 6.232070000000000221e+01 1.553809999999999945e+03
5.399999999999999939e-02 5.115499999999999492e-01 1.598354499999999945e+01 6.617709999999999582e+01 1.554950000000000045e+03
5.500000000000000028e-02 5.122809999999999864e-01 1.795257499999999951e+01 7.004464999999999009e+01 1.556110000000000127e+03
5.600000000000000117e-02 5.129989999999999828e-01 1.986475000000000080e+01 7.386639999999999873e+01 1.557275000000000091e+03
5.700000000000000205e-02 5.136965000000000003e-01 2.169340000000000046e+01 7.759470000000000312e+01 1.558425000000000182e+03
5.800000000000000294e-02 5.143685000000000063e-01 2.341870000000000118e+01 8.119344999999999857e+01 1.559545000000000073e+03
5.900000000000000383e-02 5.150114999999999554e-01 2.502794999999999703e+01 8.463935000000000741e+01 1.560634999999999991e+03
6.000000000000000472e-02 5.156255000000000699e-01 2.651484999999999914e+01 8.792175000000000296e+01 1.561690000000000055e+03
6.099999999999999867e-02 5.162109999999999754e-01 2.787904999999999944e+01 9.104185000000001082e+01 1.562700000000000045e+03
6.199999999999999956e-02 5.167720000000000091e-01 2.912525000000000119e+01 9.401095000000000823e+01 1.563664999999999964e+03
6.300000000000000044e-02 5.173119999999999941e-01 3.026135000000000019e+01 9.684820000000000562e+01 1.564599999999999909e+03
6.400000000000000133e-02 5.178359999999999630e-01 3.129814999999999969e+01 9.957685000000000741e+01 1.565500000000000000e+03
6.500000000000000222e-02 5.183495000000000186e-01 3.224775000000000347e+01 1.022250999999999976e+02 1.566375000000000000e+03
6.600000000000000311e-02 5.188570000000000126e-01 3.312299999999999756e+01 1.048197499999999991e+02 1.567230000000000018e+03
6.700000000000000400e-02 5.193634999999999780e-01 3.393625000000000114e+01 1.073875000000000028e+02 1.568074999999999818e+03
6.800000000000000488e-02 5.198724999999999596e-01 3.469875000000000398e+01 1.099505000000000052e+02 1.568920000000000073e+03
6.900000000000000577e-02 5.203870000000000440e-01 3.541975000000000051e+01 1.125269999999999868e+02 1.569759999999999991e+03
7.000000000000000666e-02 5.209074999999999678e-01 3.610604999999999620e+01 1.151274999999999977e+02 1.570610000000000127e+03
7.100000000000000755e-02 5.214349999999999818e-01 3.676125000000000398e+01 1.177564999999999884e+02 1.571460000000000036e+03
7.200000000000000844e-02 5.219670000000000698e-01 3.738550000000000040e+01 1.204080000000000013e+02 1.572320000000000164e+03
7.300000000000000933e-02 5.225005000000000344e-01 3.797594999999999743e+01 1.230709999999999980e+02 1.573179999999999836e+03
7.399999999999999634e-02 5.230310000000000237e-01 3.852644999999999698e+01 1.257259999999999991e+02 1.574039999999999964e+03
7.499999999999999722e-02 5.235539999999999639e-01 3.902839999999999776e+01 1.283480000000000132e+02 1.574894999999999982e+03
7.599999999999999811e-02 5.240624999999999867e-01 3.947180000000000177e+01 1.309069999999999823e+02 1.575730000000000018e+03
7.699999999999999900e-02 5.245509999999999895e-01 3.984539999999999793e+01 1.333729999999999905e+02 1.576534999999999854e+03
7.799999999999999989e-02 5.250135000000000218e-01 4.013819999999999766e+01 1.357125000000000057e+02 1.577315000000000055e+03
7.900000000000000078e-02 5.254434999999999523e-01 4.033990000000000009e+01 1.378960000000000150e+02 1.578045000000000073e+03
8.000000000000000167e-02 5.258369999999999989e-01 4.044169999999999732e+01 1.398949999999999818e+02 1.578724999999999909e+03
8.100000000000000255e-02 5.261894999999999767e-01 4.043694999999999595e+01 1.416885000000000048e+02 1.579344999999999800e+03
8.200000000000000344e-02 5.264984999999999804e-01 4.032130000000000081e+01 1.432590000000000146e+02 1.579894999999999982e+03
8.300000000000000433e-02 5.267625000000000224e-01 4.009324999999999761e+01 1.445960000000000036e+02 1.580380000000000109e+03
8.400000000000000522e-02 5.269804999999999628e-01 3.975404999999999944e+01 1.456955000000000098e+02 1.580789999999999964e+03
8.500000000000000611e-02 5.271544999999999703e-01 3.930764999999999532e+01 1.465589999999999975e+02 1.581130000000000109e+03
8.600000000000000699e-02 5.272855000000000736e-01 3.876059999999999661e+01 1.471970000000000027e+02 1.581400000000000091e+03
8.700000000000000788e-02 5.273765000000000258e-01 3.812199999999999989e+01 1.476225000000000023e+02 1.581599999999999909e+03
8.800000000000000877e-02 5.274320000000000119e-01 3.740274999999999750e+01 1.478545000000000016e+02 1.581735000000000127e+03
8.899999999999999578e-02 5.274560000000000359e-01 3.661565000000000225e+01 1.479159999999999968e+02 1.581815000000000055e+03
8.999999999999999667e-02 5.274529999999999497e-01 3.577434999999999832e+01 1.478319999999999936e+02 1.581845000000000027e+03
9.099999999999999756e-02 5.274284999999999668e-01 3.489349999999999596e+01 1.476310000000000002e+02 1.581829999999999927e+03
9.199999999999999845e-02 5.273879999999999679e-01 3.398785000000000167e+01 1.473400000000000034e+02 1.581785000000000082e+03
9.299999999999999933e-02 5.273364999999999858e-01 3.307169999999999987e+01 1.469859999999999900e+02 1.581710000000000036e+03
9.400000000000000022e-02 5.272784999999999833e-01 3.215854999999999819e+01 1.465960000000000036e+02 1.581619999999999891e+03
9.500000000000000111e-02 5.272185000000000343e-01 3.126060000000000372e+01 1.461924999999999955e+02 1.581510000000000218e+03
9.600000000000000200e-02 5.271595000000000031e-01 3.038815000000000310e+01 1.457959999999999923e+02 1.581404999999999973e+03
9.700000000000000289e-02 5.271049999999999347e-01 2.954945000000000022e+01 1.454234999999999900e+02 1.581299999999999955e+03
9.800000000000000377e-02 5.270569999999999977e-01 2.875025000000000119e+01 1.450860000000000127e+02 1.581194999999999936e+03
9.900000000000000466e-02 5.270154999999999701e-01 2.799395000000000167e+01 1.447914999999999850e+02 1.581099999999999909e+03
1.000000000000000056e-01 5.269814999999999916e-01 2.728134999999999977e+01 1.445420000000000016e+02 1.581014999999999873e+03
1.010000000000000064e-01 5.269539999999999225e-01 2.661090000000000089e+01 1.443360000000000127e+02 1.580944999999999936e+03
1.020000000000000073e-01 5.269325000000000259e-01 2.597905000000000086e+01 1.441670000000000016e+02 1.580884999999999991e+03
1.030000000000000082e-01 5.269135000000000346e-01 2.538025000000000020e+01 1.440264999999999986e+02 1.580829999999999927e+03
1.040000000000000091e-01 5.268960000000000310e-01 2.480754999999999910e+01 1.439014999999999986e+02 1.580775000000000091e+03
1.050000000000000100e-01 5.268764999999999699e-01 2.425309999999999988e+01 1.437780000000000200e+02 1.580730000000000018e+03
1.059999999999999970e-01 5.268519999999999870e-01 2.370844999999999914e+01 1.436424999999999841e+02 1.580679999999999836e+03
1.069999999999999979e-01 5.268204999999999139e-01 2.316515000000000057e+01 1.434780000000000086e+02 1.580625000000000000e+03
1.079999999999999988e-01 5.267785000000000384e-01 2.261489999999999867e+01 1.432704999999999984e+02 1.580559999999999945e+03
1.089999999999999997e-01 5.267245000000000399e-01 2.205035000000000167e+01 1.430084999999999980e+02 1.580474999999999909e+03
1.100000000000000006e-01 5.266565000000000829e-01 2.146520000000000294e+01 1.426790000000000020e+02 1.580375000000000000e+03
1.110000000000000014e-01 5.265735000000000277e-01 2.085459999999999781e+01 1.422755000000000223e+02 1.580255000000000109e+03
1.120000000000000023e-01 5.264739999999999975e-01 2.021525000000000105e+01 1.417920000000000016e+02 1.580110000000000127e+03
1.130000000000000032e-01 5.263590000000000213e-01 1.954589999999999961e+01 1.412284999999999968e+02 1.579940000000000055e+03
1.140000000000000041e-01 5.262290000000000578e-01 1.884684999999999988e+01 1.405854999999999961e+02 1.579755000000000109e+03
1.150000000000000050e-01 5.260850000000000248e-01 1.812065000000000126e+01 1.398695000000000164e+02 1.579545000000000073e+03
1.160000000000000059e-01 5.259294999999999387e-01 1.737134999999999962e+01 1.390889999999999986e+02 1.579309999999999945e+03
1.170000000000000068e-01 5.257650000000000379e-01 1.660474999999999923e+01 1.382560000000000002e+02 1.579059999999999945e+03
1.180000000000000077e-01 5.255935000000000468e-01 1.582810000000000095e+01 1.373840000000000146e+02 1.578799999999999955e+03
1.190000000000000085e-01 5.254194999999999283e-01 1.504964000000000013e+01 1.364904999999999973e+02 1.578530000000000200e+03
1.200000000000000094e-01 5.252459999999999907e-01 1.427830999999999939e+01 1.355914999999999964e+02 1.578250000000000000e+03
1.209999999999999964e-01 5.250764999999999461e-01 1.352343999999999902e+01 1.347065000000000055e+02 1.577980000000000018e+03
1.219999999999999973e-01 5.249139999999999917e-01 1.279439500000000152e+01 1.338520000000000039e+02 1.577704999999999927e+03
1.229999999999999982e-01 5.247614999999999919e-01 1.209991500000000109e+01 1.330450000000000159e+02 1.577450000000000045e+03
1.239999999999999991e-01 5.246230000000000615e-01 1.144805500000000009e+01 1.323009999999999877e+02 1.577210000000000036e+03
1.250000000000000000e-01 5.244990000000000485e-01 1.084572000000000003e+01 1.316315000000000168e+02 1.576990000000000009e+03
1.260000000000000009e-01 5.243925000000000392e-01 1.029834499999999942e+01 1.310469999999999970e+02 1.576789999999999964e+03
1.270000000000000018e-01 5.243039999999999923e-01 9.809784999999999755e+00 1.305544999999999902e+02 1.576615000000000009e+03
1.280000000000000027e-01 5.242335000000000189e-01 9.382239999999999469e+00 1.301580000000000155e+02 1.576470000000000027e+03
1.290000000000000036e-01 5.241814999999999669e-01 9.015975000000000961e+00 1.298569999999999993e+02 1.576355000000000018e+03
1.300000000000000044e-01 5.241470000000000296e-01 8.709804999999999353e+00 1.296479999999999961e+02 1.576264999999999873e+03
1.310000000000000053e-01 5.241280000000000383e-01 8.460785000000001332e+00 1.295255000000000223e+02 1.576200000000000045e+03
1.320000000000000062e-01 5.241234999999999644e-01 8.264659999999999229e+00 1.294809999999999945e+02 1.576159999999999854e+03
1.330000000000000071e-01 5.241305000000000547e-01 8.116099999999999426e+00 1.295034999999999741e+02 1.576144999999999982e+03
1.340000000000000080e-01 5.241474999999999884e-01 8.008879999999999555e+00 1.295815000000000055e+02 1.576144999999999982e+03
1.350000000000000089e-01 5.241715000000000124e-01 7.936254999999999171e+00 1.297019999999999982e+02 1.576160000000000082e+03
1.360000000000000098e-01 5.241994999999999294e-01 7.891214999999999868e+00 1.298514999999999873e+02 1.576194999999999936e+03
1.370000000000000107e-01 5.242304999999999326e-01 7.866785000000000139e+00 1.300180000000000007e+02 1.576230000000000018e+03
1.380000000000000115e-01 5.242609999999999770e-01 7.856275000000000119e+00 1.301885000000000048e+02 1.576269999999999982e+03
1.390000000000000124e-01 5.242899999999999228e-01 7.853460000000000107e+00 1.303534999999999968e+02 1.576309999999999945e+03
1.400000000000000133e-01 5.243149999999999755e-01 7.852800000000000225e+00 1.305034999999999741e+02 1.576349999999999909e+03
1.410000000000000142e-01 5.243360000000000243e-01 7.849535000000000373e+00 1.306310000000000002e+02 1.576384999999999991e+03
1.420000000000000151e-01 5.243510000000000115e-01 7.839760000000000062e+00 1.307309999999999945e+02 1.576409999999999854e+03
1.430000000000000160e-01 5.243605000000000071e-01 7.820475000000000065e+00 1.307994999999999948e+02 1.576434999999999945e+03
1.440000000000000169e-01 5.243634999999999824e-01 7.789604999999999890e+00 1.308350000000000080e+02 1.576444999999999936e+03
1.450000000000000178e-01 5.243599999999999373e-01 7.745915000000000106e+00 1.308369999999999891e+02 1.576449999999999818e+03
1.459999999999999909e-01 5.243510000000000115e-01 7.689000000000000057e+00 1.308079999999999927e+02 1.576445000000000164e+03
1.469999999999999918e-01 5.243370000000000530e-01 7.619165000000000632e+00 1.307495000000000118e+02 1.576430000000000064e+03
1.479999999999999927e-01 5.243184999999999096e-01 7.537335000000000562e+00 1.306659999999999968e+02 1.576414999999999964e+03
1.489999999999999936e-01 5.242965000000000542e-01 7.444950000000000401e+00 1.305610000000000070e+02 1.576384999999999991e+03
1.499999999999999944e-01 5.242719999999999603e-01 7.343830000000000524e+00 1.304399999999999977e+02 1.576355000000000018e+03
1.509999999999999953e-01 5.242455000000000309e-01 7.236050000000000537e+00 1.303070000000000164e+02 1.576315000000000055e+03
1.519999999999999962e-01 5.242185000000000317e-01 7.123814999999999564e+00 1.301680000000000064e+02 1.576275000000000091e+03
1.529999999999999971e-01 5.241914999999999214e-01 7.009339999999999904e+00 1.300260000000000105e+02 1.576235000000000127e+03
1.539999999999999980e-01 5.241649999999999920e-01 6.894740000000000535e+00 1.298859999999999957e+02 1.576194999999999936e+03
1.549999999999999989e-01 5.241405000000000092e-01 6.781909999999999883e+00 1.297510000000000048e+02 1.576154999999999973e+03
1.559999999999999998e-01 5.241169999999999440e-01 6.672475000000000378e+00 1.296245000000000118e+02 1.576115000000000009e+03
1.570000000000000007e-01 5.240955000000000474e-01 6.567714999999999748e+00 1.295065000000000168e+02 1.576075000000000045e+03
1.580000000000000016e-01 5.240765000000000562e-01 6.468495000000000772e+00 1.293985000000000127e+02 1.576045000000000073e+03
1.590000000000000024e-01 5.240595000000000114e-01 6.375320000000000320e+00 1.293004999999999995e+02 1.576015000000000100e+03
