# t [s], A [cm^2], U [cm/s], P [cPa], c [cm/s]
1.000000000000000021e-03 6.849784999999999346e-01 6.614999999999995883e-03 1.066825000000000045e+02 1.790670000000000073e+03
2.000000000000000042e-03 6.849715000000000664e-01 8.168699999999999226e-03 1.066535000000000082e+02 1.790664999999999964e+03
3.000000000000000062e-03 6.850499999999999368e-01 1.569555499999999992e-01 1.068340000000000032e+02 1.790704999999999927e+03
4.000000000000000083e-03 6.850749999999999895e-01 2.296484999999999776e-01 1.069184999999999945e+02 1.790724999999999909e+03
5.000000000000000104e-03 6.849979999999999958e-01 1.225894999999999901e-01 1.066779999999999973e+02 1.790670000000000073e+03
6.000000000000000125e-03 6.849169999999999980e-01 -4.101000000000021295e-03 1.062950000000000017e+02 1.790590000000000146e+03
7.000000000000000146e-03 6.848144999999999927e-01 -1.870399999999999840e-01 1.057605000000000075e+02 1.790470000000000027e+03
8.000000000000000167e-03 6.846274999999999444e-01 -5.482350000000000279e-01 1.048889999999999958e+02 1.790275000000000091e+03
9.000000000000001055e-03 6.843559999999999643e-01 -1.085570000000000146e+00 1.036189999999999998e+02 1.790000000000000000e+03
1.000000000000000194e-02 6.839754999999999585e-01 -1.827879999999999949e+00 1.018495499999999936e+02 1.789605000000000018e+03
1.099999999999999936e-02 6.834659999999999069e-01 -2.785369999999999902e+00 9.949195000000000277e+01 1.789070000000000164e+03
1.200000000000000025e-02 6.828890000000000793e-01 -3.808494999999999742e+00 9.668994999999999607e+01 1.788414999999999964e+03
1.300000000000000114e-02 6.823624999999999829e-01 -4.629113499999999881e+00 9.383025000000000659e+01 1.787730000000000018e+03
1.400000000000000203e-02 6.819740000000000801e-01 -5.029617999999999256e+00 9.131215000000000259e+01 1.787075000000000045e+03
1.499999999999999944e-02 6.817320000000000046e-01 -4.952920000000000655e+00 8.933735000000000070e+01 1.786529999999999973e+03
1.600000000000000033e-02 6.815780000000000172e-01 -4.497275000000000134e+00 8.785245000000000459e+01 1.786075000000000045e+03
1.700000000000000122e-02 6.814264999999999350e-01 -3.842185000000000183e+00 8.661955000000000382e+01 1.785674999999999955e+03
1.800000000000000211e-02 6.812055000000000193e-01 -3.158851999999999993e+00 8.534944999999999027e+01 1.785275000000000091e+03
1.900000000000000300e-02 6.808864999999999501e-01 -2.541561499999999807e+00 8.383355000000000246e+01 1.784829999999999927e+03
2.000000000000000042e-02 6.804874999999999119e-01 -1.985430000000000028e+00 8.201929999999998699e+01 1.784325000000000045e+03
2.100000000000000130e-02 6.800559999999999938e-01 -1.417024999999999757e+00 7.999930000000000518e+01 1.783769999999999982e+03
2.200000000000000219e-02 6.796385000000000343e-01 -7.556300000000000239e-01 7.793115000000000236e+01 1.783204999999999927e+03
2.299999999999999961e-02 6.792584999999999873e-01 3.091499999999980375e-02 7.593985000000000696e+01 1.782644999999999982e+03
2.400000000000000050e-02 6.789035000000001041e-01 8.996049999999997659e-01 7.404910000000000991e+01 1.782099999999999909e+03
2.500000000000000139e-02 6.785320000000000240e-01 1.738740000000000174e+00 7.216284999999999172e+01 1.781559999999999945e+03
2.600000000000000228e-02 6.780885000000000939e-01 2.398975000000000080e+00 7.009244999999999948e+01 1.780980000000000018e+03
2.700000000000000316e-02 6.775234999999999452e-01 2.737195000000000267e+00 6.761865000000000236e+01 1.780319999999999936e+03
2.800000000000000058e-02 6.768080000000000762e-01 2.660450000000000426e+00 6.456790000000000873e+01 1.779539999999999964e+03
2.900000000000000147e-02 6.759479999999999933e-01 2.155799999999999716e+00 6.087845000000000084e+01 1.778625000000000000e+03
3.000000000000000236e-02 6.749855000000000160e-01 1.294724999999999682e+00 5.663294999999999391e+01 1.777575000000000045e+03
3.099999999999999978e-02 6.739835000000000687e-01 2.115000000000000213e-01 5.204444999999999766e+01 1.776434999999999945e+03
3.200000000000000067e-02 6.730134999999999312e-01 -9.334499999999996689e-01 4.740770000000000550e+01 1.775275000000000091e+03
3.300000000000000155e-02 6.721405000000000296e-01 -1.989450000000000607e+00 4.303629999999999711e+01 1.774150000000000091e+03
3.400000000000000244e-02 6.714115000000000499e-01 -2.840514999999999901e+00 3.920759999999999934e+01 1.773134999999999991e+03
3.500000000000000333e-02 6.708525000000000738e-01 -3.414834999999999621e+00 3.612669999999999959e+01 1.772284999999999854e+03
3.600000000000000422e-02 6.704725000000000268e-01 -3.682706000000000035e+00 3.391214999999999691e+01 1.771625000000000000e+03
3.700000000000000511e-02 6.702680000000000859e-01 -3.645360000000000156e+00 3.260119999999999862e+01 1.771180000000000064e+03
3.799999999999999906e-02 6.702250000000000707e-01 -3.320980000000000043e+00 3.216864999999999952e+01 1.770960000000000036e+03
3.899999999999999994e-02 6.703289999999999527e-01 -2.731475000000000097e+00 3.255205000000000126e+01 1.770944999999999936e+03
4.000000000000000083e-02 6.705674999999999830e-01 -1.893959999999999866e+00 3.367504999999999882e+01 1.771125000000000000e+03
4.100000000000000172e-02 6.709289999999999976e-01 -8.186900000000001398e-01 3.546274999999999977e+01 1.771490000000000009e+03
4.200000000000000261e-02 6.714044999999999597e-01 4.873349999999998516e-01 3.784725000000000250e+01 1.772009999999999991e+03
4.300000000000000350e-02 6.719835000000000669e-01 2.013670000000000293e+00 4.076350000000000051e+01 1.772679999999999836e+03
4.400000000000000439e-02 6.726529999999999454e-01 3.740015000000000089e+00 4.414244999999999663e+01 1.773480000000000018e+03
4.499999999999999833e-02 6.733955000000000357e-01 5.632579999999999920e+00 4.790309999999999491e+01 1.774384999999999991e+03
4.599999999999999922e-02 6.741894999999999971e-01 7.644454999999999778e+00 5.195045000000000357e+01 1.775375000000000000e+03
4.700000000000000011e-02 6.750114999999999865e-01 9.719409999999999883e+00 5.617735000000000412e+01 1.776420000000000073e+03
4.800000000000000100e-02 6.758374999999999799e-01 1.179769999999999897e+01 6.047119999999999607e+01 1.777509999999999991e+03
4.900000000000000189e-02 6.766469999999999985e-01 1.382256500000000088e+01 6.472400000000000375e+01 1.778605000000000018e+03
5.000000000000000278e-02 6.774219999999999686e-01 1.574596000000000018e+01 6.884159999999999968e+01 1.779674999999999955e+03
5.100000000000000366e-02 6.781504999999999894e-01 1.753204999999999814e+01 7.275164999999999793e+01 1.780715000000000146e+03
5.200000000000000455e-02 6.788294999999999746e-01 1.915899999999999892e+01 7.640874999999999773e+01 1.781699999999999818e+03
5.300000000000000544e-02 6.794565000000000188e-01 2.061834999999999951e+01 7.979490000000001260e+01 1.782630000000000109e+03
5.399999999999999939e-02 6.800370000000000026e-01 2.191304999999999836e+01 8.291794999999999050e+01 1.783494999999999891e+03
5.500000000000000028e-02 6.805790000000000450e-01 2.305514999999999759e+01 8.580649999999999977e+01 1.784309999999999945e+03
5.600000000000000117e-02 6.810914999999999608e-01 2.406300000000000239e+01 8.850495000000000800e+01 1.785070000000000164e+03
5.700000000000000205e-02 6.815864999999999840e-01 2.495875000000000199e+01 9.106725000000000136e+01 1.785799999999999955e+03
5.800000000000000294e-02 6.820745000000000280e-01 2.576660000000000039e+01 9.355145000000000266e+01 1.786500000000000000e+03
5.900000000000000383e-02 6.825654999999999362e-01 2.651055000000000206e+01 9.601465000000000316e+01 1.787194999999999936e+03
6.000000000000000472e-02 6.830689999999999262e-01 2.721300000000000097e+01 9.850825000000000387e+01 1.787884999999999991e+03
6.099999999999999867e-02 6.835915000000000186e-01 2.789274999999999949e+01 1.010730000000000075e+02 1.788595000000000027e+03
6.199999999999999956e-02 6.841365000000000363e-01 2.856344999999999956e+01 1.037369500000000073e+02 1.789320000000000164e+03
6.300000000000000044e-02 6.847054999999999669e-01 2.923225000000000051e+01 1.065109999999999957e+02 1.790075000000000045e+03
6.400000000000000133e-02 6.852945000000000286e-01 2.989945000000000164e+01 1.093889999999999958e+02 1.790849999999999909e+03
6.500000000000000222e-02 6.858969999999999789e-01 3.055825000000000102e+01 1.123470000000000084e+02 1.791650000000000091e+03
6.600000000000000311e-02 6.865050000000000319e-01 3.119599999999999795e+01 1.153470000000000084e+02 1.792454999999999927e+03
6.700000000000000400e-02 6.871074999999999822e-01 3.179534999999999911e+01 1.183369999999999891e+02 1.793259999999999991e+03
6.800000000000000488e-02 6.876915000000000111e-01 3.233644999999999925e+01 1.212605000000000075e+02 1.794059999999999945e+03
6.900000000000000577e-02 6.882464999999999833e-01 3.279890000000000327e+01 1.240574999999999903e+02 1.794829999999999927e+03
7.000000000000000666e-02 6.887609999999999566e-01 3.316344999999999743e+01 1.266705000000000041e+02 1.795554999999999836e+03
7.100000000000000755e-02 6.892260000000000053e-01 3.341360000000000241e+01 1.290484999999999900e+02 1.796230000000000018e+03
7.200000000000000844e-02 6.896349999999999980e-01 3.353690000000000282e+01 1.311499999999999773e+02 1.796829999999999927e+03
7.300000000000000933e-02 6.899830000000000130e-01 3.352539999999999765e+01 1.329479999999999791e+02 1.797360000000000127e+03
7.399999999999999634e-02 6.902675000000000338e-01 3.337635000000000218e+01 1.344245000000000232e+02 1.797804999999999836e+03
7.499999999999999722e-02 6.904905000000000070e-01 3.309205000000000041e+01 1.355790000000000077e+02 1.798174999999999955e+03
7.599999999999999811e-02 6.906535000000000313e-01 3.267970000000000397e+01 1.364205000000000041e+02 1.798454999999999927e+03
7.699999999999999900e-02 6.907624999999999460e-01 3.215090000000000003e+01 1.369719999999999800e+02 1.798654999999999973e+03
7.799999999999999989e-02 6.908229999999999649e-01 3.152110000000000056e+01 1.372629999999999768e+02 1.798789999999999964e+03
7.900000000000000078e-02 6.908434999999999437e-01 3.080860000000000198e+01 1.373335000000000150e+02 1.798860000000000127e+03
8.000000000000000167e-02 6.908330000000000304e-01 3.003385000000000105e+01 1.372259999999999991e+02 1.798884999999999991e+03
8.100000000000000255e-02 6.907995000000000108e-01 2.921815000000000140e+01 1.369875000000000114e+02 1.798860000000000127e+03
8.200000000000000344e-02 6.907514999999999628e-01 2.838305000000000078e+01 1.366634999999999991e+02 1.798804999999999836e+03
8.300000000000000433e-02 6.906980000000000341e-01 2.754864999999999853e+01 1.362969999999999970e+02 1.798735000000000127e+03
8.400000000000000522e-02 6.906455000000000233e-01 2.673304999999999865e+01 1.359265000000000043e+02 1.798654999999999973e+03
8.500000000000000611e-02 6.905999999999999917e-01 2.595120000000000005e+01 1.355860000000000127e+02 1.798575000000000045e+03
8.600000000000000699e-02 6.905650000000000954e-01 2.521434999999999960e+01 1.352980000000000018e+02 1.798500000000000000e+03
8.700000000000000788e-02 6.905425000000000590e-01 2.452969999999999828e+01 1.350790000000000077e+02 1.798444999999999936e+03
8.800000000000000877e-02 6.905339999999999812e-01 2.389990000000000236e+01 1.349354999999999905e+02 1.798400000000000091e+03
8.899999999999999578e-02 6.905375000000000263e-01 2.332370000000000232e+01 1.348629999999999995e+02 1.798375000000000000e+03
8.999999999999999667e-02 6.905499999999999972e-01 2.279589999999999961e+01 1.348525000000000205e+02 1.798360000000000127e+03
9.099999999999999756e-02 6.905684999999999185e-01 2.230799999999999983e+01 1.348849999999999909e+02 1.798359999999999900e+03
9.199999999999999845e-02 6.905875000000000208e-01 2.184920000000000329e+01 1.349379999999999882e+02 1.798365000000000009e+03
9.299999999999999933e-02 6.906014999999999793e-01 2.140684999999999860e+01 1.349855000000000018e+02 1.798369999999999891e+03
9.400000000000000022e-02 6.906060000000000532e-01 2.096750000000000114e+01 1.349975000000000023e+02 1.798365000000000009e+03
9.500000000000000111e-02 6.905945000000000000e-01 2.051774999999999949e+01 1.349470000000000027e+02 1.798349999999999909e+03
9.600000000000000200e-02 6.905624999999999680e-01 2.004509999999999792e+01 1.348075000000000045e+02 1.798315000000000055e+03
9.700000000000000289e-02 6.905075000000000518e-01 1.953875000000000028e+01 1.345564999999999998e+02 1.798255000000000109e+03
9.800000000000000377e-02 6.904250000000000664e-01 1.899040000000000106e+01 1.341779999999999973e+02 1.798164999999999964e+03
9.900000000000000466e-02 6.903144999999999420e-01 1.839485000000000170e+01 1.336614999999999895e+02 1.798039999999999964e+03
1.000000000000000056e-01 6.901755000000000528e-01 1.775029999999999930e+01 1.330039999999999907e+02 1.797880000000000109e+03
1.010000000000000064e-01 6.900109999999999300e-01 1.705849999999999866e+01 1.322094999999999914e+02 1.797690000000000055e+03
1.020000000000000073e-01 6.898225000000000051e-01 1.632515000000000072e+01 1.312924999999999898e+02 1.797460000000000036e+03
1.030000000000000082e-01 6.896160000000000068e-01 1.555904999999999916e+01 1.302704999999999984e+02 1.797204999999999927e+03
1.040000000000000091e-01 6.893960000000000088e-01 1.477193499999999915e+01 1.291714999999999804e+02 1.796929999999999836e+03
1.050000000000000100e-01 6.891694999999999904e-01 1.397790999999999961e+01 1.280250000000000057e+02 1.796634999999999991e+03
1.059999999999999970e-01 6.889434999999999309e-01 1.319238500000000158e+01 1.268654999999999973e+02 1.796335000000000036e+03
1.069999999999999979e-01 6.887240000000000029e-01 1.243130000000000024e+01 1.257274999999999920e+02 1.796034999999999854e+03
1.079999999999999988e-01 6.885185000000000333e-01 1.171030000000000015e+01 1.246445000000000078e+02 1.795750000000000000e+03
1.089999999999999997e-01 6.883319999999999439e-01 1.104367500000000035e+01 1.236495000000000033e+02 1.795474999999999909e+03
1.100000000000000006e-01 6.881699999999999484e-01 1.044382000000000055e+01 1.227684999999999889e+02 1.795230000000000018e+03
1.110000000000000014e-01 6.880360000000000920e-01 9.920334999999999681e+00 1.220225000000000080e+02 1.795009999999999991e+03
1.120000000000000023e-01 6.879314999999999181e-01 9.479775000000000063e+00 1.214265000000000043e+02 1.794839999999999918e+03
1.130000000000000032e-01 6.878575000000000106e-01 9.125294999999999490e+00 1.209865000000000066e+02 1.794695000000000164e+03
1.140000000000000041e-01 6.878134999999999666e-01 8.856764999999999333e+00 1.207034999999999911e+02 1.794595000000000027e+03
1.150000000000000050e-01 6.877979999999999094e-01 8.670835000000000292e+00 1.205695000000000050e+02 1.794530000000000200e+03
1.160000000000000059e-01 6.878064999999999873e-01 8.561310000000000642e+00 1.205715000000000003e+02 1.794505000000000109e+03
1.170000000000000068e-01 6.878364999999999618e-01 8.519774999999999210e+00 1.206914999999999907e+02 1.794509999999999991e+03
1.180000000000000077e-01 6.878834999999999811e-01 8.536049999999999471e+00 1.209074999999999989e+02 1.794545000000000073e+03
1.190000000000000085e-01 6.879425000000000123e-01 8.598869999999999791e+00 1.211975000000000051e+02 1.794595000000000027e+03
1.200000000000000094e-01 6.880090000000000927e-01 8.696469999999999700e+00 1.215360000000000014e+02 1.794670000000000073e+03
1.209999999999999964e-01 6.880779999999999674e-01 8.817190000000000083e+00 1.219004999999999939e+02 1.794755000000000109e+03
1.219999999999999973e-01 6.881464999999999943e-01 8.949944999999999595e+00 1.222690000000000055e+02 1.794835000000000036e+03
1.229999999999999982e-01 6.882099999999999884e-01 9.084659999999999513e+00 1.226225000000000023e+02 1.794925000000000182e+03
1.239999999999999991e-01 6.882675000000000320e-01 9.212590000000000501e+00 1.229459999999999980e+02 1.795000000000000000e+03
1.250000000000000000e-01 6.883154999999999690e-01 9.326494999999999536e+00 1.232270000000000039e+02 1.795075000000000045e+03
1.260000000000000009e-01 6.883535000000000625e-01 9.420935000000000059e+00 1.234585000000000008e+02 1.795139999999999873e+03
1.270000000000000018e-01 6.883814999999999795e-01 9.492004999999998915e+00 1.236355000000000075e+02 1.795190000000000055e+03
1.280000000000000027e-01 6.883985000000000243e-01 9.537614999999998844e+00 1.237580000000000098e+02 1.795224999999999909e+03
1.290000000000000036e-01 6.884055000000000035e-01 9.557389999999999830e+00 1.238285000000000053e+02 1.795250000000000000e+03
1.300000000000000044e-01 6.884050000000000447e-01 9.552299999999998903e+00 1.238515000000000015e+02 1.795264999999999873e+03
1.310000000000000053e-01 6.883974999999999955e-01 9.524615000000000720e+00 1.238350000000000080e+02 1.795269999999999982e+03
1.320000000000000062e-01 6.883850000000000247e-01 9.477705000000000268e+00 1.237884999999999991e+02 1.795259999999999991e+03
1.330000000000000071e-01 6.883700000000000374e-01 9.415835000000001287e+00 1.237214999999999918e+02 1.795250000000000000e+03
1.340000000000000080e-01 6.883539999999999104e-01 9.343579999999999330e+00 1.236449999999999960e+02 1.795235000000000127e+03
1.350000000000000089e-01 6.883394999999999930e-01 9.265840000000000742e+00 1.235695000000000050e+02 1.795220000000000027e+03
1.360000000000000098e-01 6.883274999999999810e-01 9.187369999999999592e+00 1.235039999999999907e+02 1.795210000000000036e+03
1.370000000000000107e-01 6.883205000000000018e-01 9.112600000000000477e+00 1.234569999999999936e+02 1.795194999999999936e+03
1.380000000000000115e-01 6.883194999999999730e-01 9.045305000000000817e+00 1.234360000000000070e+02 1.795190000000000055e+03
1.390000000000000124e-01 6.883239999999999359e-01 8.988440000000000651e+00 1.234449999999999932e+02 1.795194999999999936e+03
1.400000000000000133e-01 6.883360000000000589e-01 8.943979999999999819e+00 1.234869999999999948e+02 1.795204999999999927e+03
1.410000000000000142e-01 6.883539999999999104e-01 8.912845000000000795e+00 1.235610000000000070e+02 1.795220000000000027e+03
1.420000000000000151e-01 6.883780000000000454e-01 8.895070000000000476e+00 1.236664999999999992e+02 1.795240000000000009e+03
1.430000000000000160e-01 6.884069999999999911e-01 8.889654999999999418e+00 1.237980000000000018e+02 1.795275000000000091e+03
1.440000000000000169e-01 6.884394999999999820e-01 8.894940000000000069e+00 1.239505000000000052e+02 1.795315000000000055e+03
1.450000000000000178e-01 6.884740000000000304e-01 8.908649999999999736e+00 1.241179999999999950e+02 1.795355000000000018e+03
1.459999999999999909e-01 6.885099999999999554e-01 8.928180000000001115e+00 1.242934999999999945e+02 1.795400000000000091e+03
1.469999999999999918e-01 6.885449999999999626e-01 8.950805000000000788e+00 1.244689999999999941e+02 1.795440000000000055e+03
1.479999999999999927e-01 6.885784999999999823e-01 8.973874999999999602e+00 1.246390000000000100e+02 1.795490000000000009e+03
1.489999999999999936e-01 6.886094999999999855e-01 8.995074999999999932e+00 1.247965000000000089e+02 1.795529999999999973e+03
1.499999999999999944e-01 6.886360000000000259e-01 9.012430000000000163e+00 1.249380000000000024e+02 1.795570000000000164e+03
1.509999999999999953e-01 6.886594999999999800e-01 9.024504999999999555e+00 1.250604999999999905e+02 1.795599999999999909e+03
1.519999999999999962e-01 6.886780000000000124e-01 9.030425000000001035e+00 1.251620000000000061e+02 1.795630000000000109e+03
1.529999999999999971e-01 6.886929999999999996e-01 9.029859999999999332e+00 1.252429999999999950e+02 1.795655000000000200e+03
1.539999999999999980e-01 6.887045000000000528e-01 9.023115000000000663e+00 1.253050000000000068e+02 1.795675000000000182e+03
1.549999999999999989e-01 6.887125000000000608e-01 9.010894999999999655e+00 1.253515000000000015e+02 1.795684999999999945e+03
1.559999999999999998e-01 6.887190000000000811e-01 8.994584999999998942e+00 1.253855000000000075e+02 1.795700000000000045e+03
1.570000000000000007e-01 6.887240000000000029e-01 8.975730000000000430e+00 1.254130000000000109e+02 1.795710000000000036e+03
1.580000000000000016e-01 6.887294999999999945e-01 8.956345000000000667e+00 1.254389999999999930e+02 1.795720000000000027e+03
1.590000000000000024e-01 6.887360000000000149e-01 8.938779999999999504e+00 1.254685000000000059e+02 1.795724999999999909e+03
