# t [s], A [cm^2], U [cm/s], P [cPa], c [cm/s]
1.000000000000000021e-03 2.046209999999999973e-01 3.551340000000000052e-01 9.128069999999999595e+01 2.145744999999999891e+03
2.000000000000000042e-03 2.045600000000000196e-01 1.865540499999999824e+00 8.782805000000000462e+01 2.145340000000000146e+03
3.000000000000000062e-03 2.044090000000000074e-01 3.709533500000000039e+00 8.308500000000000796e+01 2.144359999999999673e+03
4.000000000000000083e-03 2.042105000000000170e-01 5.785972000000000115e+00 7.814509999999999934e+01 2.143090000000000146e+03
5.000000000000000104e-03 2.040060000000000207e-01 8.001730000000000231e+00 7.396155000000000257e+01 2.141784999999999854e+03
6.000000000000000125e-03 2.038145000000000095e-01 1.011991500000000066e+01 7.064910000000000423e+01 2.140585000000000036e+03
7.000000000000000146e-03 2.036379999999999857e-01 1.191633000000000031e+01 6.778664999999999452e+01 2.139494999999999891e+03
8.000000000000000167e-03 2.034795000000000076e-01 1.337187999999999910e+01 6.522754999999999370e+01 2.138545000000000073e+03
9.000000000000001055e-03 2.033455000000000124e-01 1.455079999999999885e+01 6.311520000000000152e+01 2.137739999999999782e+03
1.000000000000000194e-02 2.032364999999999866e-01 1.547905000000000086e+01 6.148179999999999978e+01 2.137105000000000018e+03
1.099999999999999936e-02 2.031509999999999982e-01 1.617354999999999876e+01 6.026040000000000418e+01 2.136609999999999673e+03
1.200000000000000025e-02 2.030859999999999888e-01 1.664705000000000013e+01 5.935529999999999973e+01 2.136239999999999782e+03
1.300000000000000114e-02 2.030349999999999933e-01 1.690340000000000131e+01 5.862194999999999823e+01 2.135960000000000036e+03
1.400000000000000203e-02 2.029940000000000078e-01 1.699190000000000111e+01 5.799205000000000609e+01 2.135739999999999782e+03
1.499999999999999944e-02 2.029664999999999941e-01 1.705545000000000044e+01 5.767204999999999870e+01 2.135595000000000255e+03
1.600000000000000033e-02 2.029644999999999921e-01 1.728569999999999851e+01 5.811495000000000033e+01 2.135595000000000255e+03
1.700000000000000122e-02 2.030005000000000004e-01 1.781099999999999994e+01 5.971954999999999814e+01 2.135809999999999945e+03
1.800000000000000211e-02 2.030790000000000095e-01 1.861059999999999803e+01 6.250244999999999607e+01 2.136275000000000091e+03
1.900000000000000300e-02 2.031899999999999817e-01 1.951435000000000031e+01 6.599210000000000775e+01 2.136940000000000055e+03
2.000000000000000042e-02 2.033129999999999937e-01 2.027880000000000038e+01 6.939424999999999955e+01 2.137680000000000291e+03
2.100000000000000130e-02 2.034219999999999917e-01 2.069004999999999939e+01 7.191210000000000946e+01 2.138349999999999909e+03
2.200000000000000219e-02 2.034969999999999835e-01 2.064320000000000022e+01 7.304849999999999000e+01 2.138824999999999818e+03
2.299999999999999961e-02 2.035279999999999867e-01 2.016850000000000165e+01 7.276060000000001082e+01 2.139039999999999964e+03
2.400000000000000050e-02 2.035190000000000055e-01 1.940024999999999977e+01 7.141669999999999163e+01 2.139005000000000109e+03
2.500000000000000139e-02 2.034825000000000106e-01 1.850914999999999822e+01 6.959794999999999732e+01 2.138805000000000291e+03
2.600000000000000228e-02 2.034344999999999903e-01 1.763289999999999935e+01 6.784820000000000562e+01 2.138525000000000091e+03
2.700000000000000316e-02 2.033880000000000132e-01 1.683319999999999794e+01 6.648369999999999891e+01 2.138244999999999891e+03
2.800000000000000058e-02 2.033484999999999876e-01 1.609169999999999945e+01 6.552755000000000507e+01 2.138010000000000218e+03
2.900000000000000147e-02 2.033149999999999957e-01 1.533849999999999980e+01 6.477100000000000080e+01 2.137800000000000182e+03
3.000000000000000236e-02 2.032805000000000029e-01 1.449705000000000155e+01 6.391394999999999982e+01 2.137595000000000255e+03
3.099999999999999978e-02 2.032380000000000020e-01 1.352720000000000056e+01 6.272320000000000562e+01 2.137340000000000146e+03
3.200000000000000067e-02 2.031835000000000169e-01 1.245175000000000054e+01 6.115064999999999884e+01 2.137024999999999636e+03
3.300000000000000155e-02 2.031205000000000094e-01 1.135862000000000016e+01 5.937310000000000088e+01 2.136644999999999982e+03
3.400000000000000244e-02 2.030569999999999875e-01 1.037819500000000161e+01 5.774514999999999532e+01 2.136264999999999873e+03
3.500000000000000333e-02 2.030049999999999910e-01 9.644020000000001147e+00 5.668345000000000056e+01 2.135954999999999927e+03
3.600000000000000422e-02 2.029785000000000061e-01 9.252140000000000697e+00 5.652720000000000056e+01 2.135779999999999745e+03
3.700000000000000511e-02 2.029845000000000121e-01 9.231564999999999799e+00 5.742449999999999477e+01 2.135795000000000073e+03
3.799999999999999906e-02 2.030250000000000110e-01 9.535429999999999851e+00 5.928010000000000446e+01 2.136019999999999982e+03
3.899999999999999994e-02 2.030939999999999968e-01 1.005226000000000042e+01 6.177544999999999931e+01 2.136420000000000073e+03
4.000000000000000083e-02 2.031804999999999861e-01 1.063199000000000005e+01 6.444514999999999816e+01 2.136925000000000182e+03
4.100000000000000172e-02 2.032680000000000042e-01 1.111690499999999915e+01 6.678255000000000052e+01 2.137445000000000164e+03
4.200000000000000261e-02 2.033405000000000074e-01 1.137010000000000076e+01 6.834159999999999968e+01 2.137880000000000109e+03
4.300000000000000350e-02 2.033840000000000092e-01 1.129485000000000028e+01 6.881184999999999263e+01 2.138154999999999745e+03
4.400000000000000439e-02 2.033895000000000008e-01 1.084312500000000057e+01 6.805405000000000371e+01 2.138204999999999927e+03
4.499999999999999833e-02 2.033530000000000060e-01 1.001349000000000089e+01 6.609575000000000955e+01 2.137994999999999891e+03
4.599999999999999922e-02 2.032754999999999979e-01 8.841474999999999085e+00 6.309615000000000151e+01 2.137545000000000073e+03
4.700000000000000011e-02 2.031620000000000092e-01 7.386969999999999814e+00 5.929504999999999626e+01 2.136875000000000000e+03
4.800000000000000100e-02 2.030194999999999916e-01 5.721330000000000027e+00 5.496115000000000350e+01 2.136034999999999854e+03
4.900000000000000189e-02 2.028574999999999962e-01 3.918452000000000268e+00 5.035229999999999961e+01 2.135069999999999709e+03
5.000000000000000278e-02 2.026844999999999897e-01 2.049294999999999867e+00 4.569270000000000209e+01 2.134025000000000091e+03
5.100000000000000366e-02 2.025069999999999926e-01 1.806099999999999373e-01 4.116679999999999495e+01 2.132970000000000255e+03
5.200000000000000455e-02 2.023334999999999995e-01 -1.624134999999999884e+00 3.692610000000000525e+01 2.131920000000000073e+03
5.300000000000000544e-02 2.021689999999999876e-01 -3.303080999999999712e+00 3.310094999999999743e+01 2.130929999999999836e+03
5.399999999999999939e-02 2.020194999999999907e-01 -4.794945000000000235e+00 2.981165000000000020e+01 2.130025000000000091e+03
5.500000000000000028e-02 2.018900000000000139e-01 -6.039519999999999555e+00 2.717504999999999882e+01 2.129234999999999673e+03
5.600000000000000117e-02 2.017859999999999931e-01 -6.979910000000000281e+00 2.530375000000000085e+01 2.128595000000000255e+03
5.700000000000000205e-02 2.017114999999999880e-01 -7.565979999999999706e+00 2.429970000000000141e+01 2.128130000000000109e+03
5.800000000000000294e-02 2.016705000000000025e-01 -7.758475000000000676e+00 2.424399999999999977e+01 2.127864999999999782e+03
5.900000000000000383e-02 2.016660000000000119e-01 -7.532735000000000625e+00 2.518534999999999968e+01 2.127819999999999709e+03
6.000000000000000472e-02 2.017005000000000048e-01 -6.881325000000000358e+00 2.713194999999999979e+01 2.128000000000000000e+03
6.099999999999999867e-02 2.017729999999999801e-01 -5.815080000000000027e+00 3.004654999999999987e+01 2.128414999999999964e+03
6.199999999999999956e-02 2.018830000000000069e-01 -4.362454999999999750e+00 3.384779999999999944e+01 2.129045000000000073e+03
6.300000000000000044e-02 2.020270000000000121e-01 -2.567425000000000068e+00 3.841590000000000060e+01 2.129889999999999873e+03
6.400000000000000133e-02 2.021999999999999909e-01 -4.863150000000000528e-01 4.360174999999999557e+01 2.130909999999999854e+03
6.500000000000000222e-02 2.023979999999999946e-01 1.815899999999999848e+00 4.923819999999999908e+01 2.132079999999999927e+03
6.600000000000000311e-02 2.026135000000000019e-01 4.269504999999999661e+00 5.515130000000000621e+01 2.133364999999999782e+03
6.700000000000000400e-02 2.028409999999999935e-01 6.803840000000000110e+00 6.117114999999999725e+01 2.134730000000000018e+03
6.800000000000000488e-02 2.030739999999999768e-01 9.350809999999999178e+00 6.714109999999999445e+01 2.136130000000000109e+03
6.900000000000000577e-02 2.033065000000000011e-01 1.184839999999999982e+01 7.292610000000000525e+01 2.137534999999999854e+03
7.000000000000000666e-02 2.035339999999999927e-01 1.424326500000000095e+01 7.841870000000000118e+01 2.138914999999999964e+03
7.100000000000000755e-02 2.037519999999999887e-01 1.649330000000000140e+01 8.354419999999998936e+01 2.140239999999999782e+03
7.200000000000000844e-02 2.039580000000000004e-01 1.856920000000000215e+01 8.826250000000000284e+01 2.141494999999999891e+03
7.300000000000000933e-02 2.041499999999999981e-01 2.045490000000000208e+01 9.256864999999999100e+01 2.142675000000000182e+03
7.399999999999999634e-02 2.043280000000000096e-01 2.214724999999999966e+01 9.649004999999999654e+01 2.143765000000000327e+03
7.499999999999999722e-02 2.044925000000000215e-01 2.365489999999999782e+01 1.000798000000000059e+02 2.144784999999999854e+03
7.599999999999999811e-02 2.046459999999999946e-01 2.499549999999999983e+01 1.034110499999999888e+02 2.145730000000000018e+03
7.699999999999999900e-02 2.047904999999999864e-01 2.619335000000000235e+01 1.065665000000000049e+02 2.146625000000000000e+03
7.799999999999999989e-02 2.049279999999999990e-01 2.727604999999999791e+01 1.096305000000000121e+02 2.147475000000000364e+03
7.900000000000000078e-02 2.050629999999999953e-01 2.827155000000000129e+01 1.126800000000000068e+02 2.148309999999999945e+03
8.000000000000000167e-02 2.051965000000000039e-01 2.920544999999999902e+01 1.157770000000000010e+02 2.149140000000000327e+03
8.100000000000000255e-02 2.053315000000000001e-01 3.009900000000000020e+01 1.189664999999999964e+02 2.149970000000000255e+03
8.200000000000000344e-02 2.054694999999999994e-01 3.096739999999999782e+01 1.222704999999999984e+02 2.150819999999999709e+03
8.300000000000000433e-02 2.056115000000000026e-01 3.181909999999999883e+01 1.256894999999999953e+02 2.151694999999999709e+03
8.400000000000000522e-02 2.057559999999999945e-01 3.265565000000000140e+01 1.292034999999999911e+02 2.152590000000000146e+03
8.500000000000000611e-02 2.059040000000000037e-01 3.347189999999999799e+01 1.327754999999999939e+02 2.153500000000000000e+03
8.600000000000000699e-02 2.060535000000000005e-01 3.425724999999999909e+01 1.363530000000000086e+02 2.154420000000000073e+03
8.700000000000000788e-02 2.062025000000000108e-01 3.499634999999999962e+01 1.398765000000000214e+02 2.155329999999999927e+03
8.800000000000000877e-02 2.063484999999999903e-01 3.567049999999999699e+01 1.432800000000000011e+02 2.156234999999999673e+03
8.899999999999999578e-02 2.064894999999999925e-01 3.625945000000000107e+01 1.464954999999999927e+02 2.157105000000000018e+03
8.999999999999999667e-02 2.066224999999999867e-01 3.674245000000000516e+01 1.494610000000000127e+02 2.157925000000000182e+03
9.099999999999999756e-02 2.067454999999999987e-01 3.710004999999999598e+01 1.521179999999999950e+02 2.158689999999999600e+03
9.199999999999999845e-02 2.068564999999999987e-01 3.731494999999999607e+01 1.544194999999999993e+02 2.159380000000000109e+03
9.299999999999999933e-02 2.069535000000000124e-01 3.737355000000000160e+01 1.563299999999999841e+02 2.159985000000000127e+03
9.400000000000000022e-02 2.070349999999999968e-01 3.726664999999999850e+01 1.578265000000000100e+02 2.160494999999999891e+03
9.500000000000000111e-02 2.071009999999999796e-01 3.699004999999999654e+01 1.589010000000000105e+02 2.160909999999999854e+03
9.600000000000000200e-02 2.071500000000000008e-01 3.654515000000000668e+01 1.595584999999999809e+02 2.161225000000000364e+03
9.700000000000000289e-02 2.071830000000000060e-01 3.593874999999999886e+01 1.598204999999999814e+02 2.161439999999999600e+03
9.800000000000000377e-02 2.071999999999999953e-01 3.518285000000000196e+01 1.597185000000000059e+02 2.161555000000000291e+03
9.900000000000000466e-02 2.072029999999999983e-01 3.429420000000000357e+01 1.592959999999999923e+02 2.161585000000000036e+03
1.000000000000000056e-01 2.071935000000000027e-01 3.329319999999999879e+01 1.586045000000000016e+02 2.161534999999999854e+03
1.010000000000000064e-01 2.071729999999999960e-01 3.220324999999999704e+01 1.576999999999999886e+02 2.161420000000000073e+03
1.020000000000000073e-01 2.071439999999999948e-01 3.104935000000000045e+01 1.566430000000000007e+02 2.161244999999999891e+03
1.030000000000000082e-01 2.071080000000000143e-01 2.985715000000000074e+01 1.554919999999999902e+02 2.161029999999999745e+03
1.040000000000000091e-01 2.070675000000000154e-01 2.865160000000000196e+01 1.543025000000000091e+02 2.160789999999999964e+03
1.050000000000000100e-01 2.070255000000000012e-01 2.745615000000000094e+01 1.531250000000000000e+02 2.160534999999999854e+03
1.059999999999999970e-01 2.069830000000000003e-01 2.629175000000000040e+01 1.520020000000000095e+02 2.160269999999999982e+03
1.069999999999999979e-01 2.069415000000000004e-01 2.517580000000000240e+01 1.509694999999999823e+02 2.160015000000000327e+03
1.079999999999999988e-01 2.069024999999999892e-01 2.412199999999999989e+01 1.500500000000000114e+02 2.159779999999999745e+03
1.089999999999999997e-01 2.068679999999999963e-01 2.313945000000000007e+01 1.492565000000000168e+02 2.159560000000000400e+03
1.100000000000000006e-01 2.068369999999999931e-01 2.223290000000000077e+01 1.485925000000000011e+02 2.159364999999999782e+03
1.110000000000000014e-01 2.068105000000000082e-01 2.140240000000000009e+01 1.480509999999999877e+02 2.159199999999999818e+03
1.120000000000000023e-01 2.067879999999999996e-01 2.064390000000000214e+01 1.476129999999999995e+02 2.159054999999999836e+03
1.130000000000000032e-01 2.067690000000000083e-01 1.994930000000000092e+01 1.472545000000000073e+02 2.158934999999999945e+03
1.140000000000000041e-01 2.067525000000000057e-01 1.930764999999999887e+01 1.469435000000000002e+02 2.158824999999999818e+03
1.150000000000000050e-01 2.067379999999999773e-01 1.870524999999999949e+01 1.466430000000000007e+02 2.158730000000000018e+03
1.160000000000000059e-01 2.067229999999999901e-01 1.812725000000000009e+01 1.463165000000000191e+02 2.158635000000000218e+03
1.170000000000000068e-01 2.067065000000000152e-01 1.755814999999999770e+01 1.459250000000000114e+02 2.158534999999999854e+03
1.180000000000000077e-01 2.066884999999999972e-01 1.698310000000000031e+01 1.454354999999999905e+02 2.158414999999999964e+03
1.190000000000000085e-01 2.066660000000000164e-01 1.638835000000000264e+01 1.448170000000000073e+02 2.158274999999999636e+03
1.200000000000000094e-01 2.066389999999999894e-01 1.576285000000000025e+01 1.440475000000000136e+02 2.158109999999999673e+03
1.209999999999999964e-01 2.066060000000000119e-01 1.509810000000000052e+01 1.431114999999999782e+02 2.157904999999999745e+03
1.219999999999999973e-01 2.065659999999999996e-01 1.438930000000000042e+01 1.420049999999999955e+02 2.157664999999999964e+03
1.229999999999999982e-01 2.065210000000000101e-01 1.363534999999999897e+01 1.407330000000000041e+02 2.157385000000000218e+03
1.239999999999999991e-01 2.064690000000000136e-01 1.283889999999999887e+01 1.393079999999999927e+02 2.157069999999999709e+03
1.250000000000000000e-01 2.064115000000000255e-01 1.200647000000000020e+01 1.377545000000000073e+02 2.156720000000000255e+03
1.260000000000000009e-01 2.063484999999999903e-01 1.114764999999999873e+01 1.361030000000000086e+02 2.156340000000000146e+03
1.270000000000000018e-01 2.062829999999999941e-01 1.027491000000000021e+01 1.343899999999999864e+02 2.155934999999999945e+03
1.280000000000000027e-01 2.062145000000000228e-01 9.402635000000000076e+00 1.326550000000000011e+02 2.155515000000000327e+03
1.290000000000000036e-01 2.061454999999999815e-01 8.546265000000000001e+00 1.309399999999999977e+02 2.155095000000000255e+03
1.300000000000000044e-01 2.060770000000000102e-01 7.721715000000000551e+00 1.292864999999999895e+02 2.154675000000000182e+03
1.310000000000000053e-01 2.060109999999999997e-01 6.944115000000000038e+00 1.277319999999999993e+02 2.154265000000000327e+03
1.320000000000000062e-01 2.059485000000000066e-01 6.227265000000000050e+00 1.263104999999999905e+02 2.153880000000000109e+03
1.330000000000000071e-01 2.058909999999999907e-01 5.582874999999999588e+00 1.250474999999999994e+02 2.153530000000000200e+03
1.340000000000000080e-01 2.058395000000000086e-01 5.020039999999999836e+00 1.239629999999999939e+02 2.153204999999999927e+03
1.350000000000000089e-01 2.057944999999999913e-01 4.544855000000000089e+00 1.230689999999999884e+02 2.152930000000000291e+03
1.360000000000000098e-01 2.057565000000000088e-01 4.160274999999999501e+00 1.223675000000000068e+02 2.152690000000000055e+03
1.370000000000000107e-01 2.057264999999999788e-01 3.866120000000000001e+00 1.218549999999999898e+02 2.152500000000000000e+03
1.380000000000000115e-01 2.057029999999999970e-01 3.659180000000000099e+00 1.215199999999999960e+02 2.152349999999999909e+03
1.390000000000000124e-01 2.056870000000000087e-01 3.533609999999999918e+00 1.213449999999999989e+02 2.152244999999999891e+03
1.400000000000000133e-01 2.056764999999999843e-01 3.481269999999999865e+00 1.213085000000000093e+02 2.152175000000000182e+03
1.410000000000000142e-01 2.056720000000000215e-01 3.492224999999999913e+00 1.213840000000000003e+02 2.152140000000000327e+03
1.420000000000000151e-01 2.056709999999999927e-01 3.555285000000000029e+00 1.215459999999999923e+02 2.152130000000000109e+03
1.430000000000000160e-01 2.056744999999999823e-01 3.658525000000000027e+00 1.217659999999999911e+02 2.152144999999999982e+03
1.440000000000000169e-01 2.056800000000000017e-01 3.789785000000000181e+00 1.220169999999999959e+02 2.152179999999999836e+03
1.450000000000000178e-01 2.056875000000000231e-01 3.937165000000000248e+00 1.222729999999999961e+02 2.152215000000000146e+03
1.459999999999999909e-01 2.056945000000000023e-01 4.089425000000000310e+00 1.225120000000000005e+02 2.152255000000000109e+03
1.469999999999999918e-01 2.057019999999999960e-01 4.236359999999999459e+00 1.227135000000000105e+02 2.152305000000000291e+03
1.479999999999999927e-01 2.057074999999999876e-01 4.369069999999999787e+00 1.228615000000000066e+02 2.152335000000000036e+03
1.489999999999999936e-01 2.057120000000000060e-01 4.480190000000000339e+00 1.229435000000000002e+02 2.152359999999999673e+03
1.499999999999999944e-01 2.057140000000000080e-01 4.564014999999999489e+00 1.229509999999999934e+02 2.152375000000000000e+03
1.509999999999999953e-01 2.057130000000000070e-01 4.616564999999999586e+00 1.228795000000000073e+02 2.152369999999999891e+03
1.519999999999999962e-01 2.057100000000000040e-01 4.635589999999999655e+00 1.227274999999999920e+02 2.152350000000000364e+03
1.529999999999999971e-01 2.057034999999999836e-01 4.620504999999999640e+00 1.224989999999999952e+02 2.152315000000000055e+03
1.539999999999999980e-01 2.056945000000000023e-01 4.572224999999999540e+00 1.221980000000000075e+02 2.152260000000000218e+03
1.549999999999999989e-01 2.056824999999999903e-01 4.493005000000000138e+00 1.218329999999999984e+02 2.152194999999999709e+03
1.559999999999999998e-01 2.056685000000000041e-01 4.386165000000000092e+00 1.214145000000000039e+02 2.152105000000000018e+03
1.570000000000000007e-01 2.056520000000000015e-01 4.255844999999999878e+00 1.209525000000000006e+02 2.152010000000000218e+03
1.580000000000000016e-01 2.056340000000000112e-01 4.106704999999999828e+00 1.204590000000000032e+02 2.151900000000000091e+03
1.590000000000000024e-01 2.056144999999999778e-01 3.943624999999999936e+00 1.199445000000000050e+02 2.151784999999999854e+03
