# t [s], A [cm^2], U [cm/s], P [cPa], c [cm/s]
1.000000000000000021e-03 6.293144999999999989e-01 7.390999999999994796e-03 1.061655000000000086e+02 1.795445000000000164e+03
2.000000000000000042e-03 6.293079999999999785e-01 8.827750000000000527e-03 1.061324999999999932e+02 1.795434999999999945e+03
3.000000000000000062e-03 6.293839999999999435e-01 1.709728500000000095e-01 1.063269999999999982e+02 1.795480000000000018e+03
4.000000000000000083e-03 6.294009999999999883e-01 2.411114999999999786e-01 1.063944999999999936e+02 1.795490000000000009e+03
5.000000000000000104e-03 6.293140000000000400e-01 1.080339999999999634e-01 1.060894999999999868e+02 1.795430000000000064e+03
6.000000000000000125e-03 6.292314999999999436e-01 -3.138499999999999623e-02 1.056504999999999939e+02 1.795340000000000146e+03
7.000000000000000146e-03 6.291169999999999263e-01 -2.540350000000000108e-01 1.050240000000000009e+02 1.795204999999999927e+03
8.000000000000000167e-03 6.289130000000000553e-01 -6.859849999999999559e-01 1.040035000000000025e+02 1.794990000000000009e+03
9.000000000000001055e-03 6.286315000000000097e-01 -1.295794999999999808e+00 1.025605500000000063e+02 1.794684999999999945e+03
1.000000000000000194e-02 6.282429999999999959e-01 -2.119060000000000166e+00 1.005849500000000063e+02 1.794259999999999991e+03
1.099999999999999936e-02 6.277280000000000637e-01 -3.166859999999999786e+00 9.797910000000000252e+01 1.793695000000000164e+03
1.200000000000000025e-02 6.271619999999999973e-01 -4.247040000000000148e+00 9.494485000000000241e+01 1.793014999999999873e+03
1.300000000000000114e-02 6.266739999999999533e-01 -5.037782499999999608e+00 9.196264999999999645e+01 1.792315000000000055e+03
1.400000000000000203e-02 6.263490000000000446e-01 -5.305235000000000589e+00 8.948369999999999891e+01 1.791690000000000055e+03
1.499999999999999944e-02 6.261799999999999589e-01 -5.023930000000000007e+00 8.768485000000001151e+01 1.791190000000000055e+03
1.600000000000000033e-02 6.260864999999999903e-01 -4.351374999999999993e+00 8.642435000000000400e+01 1.790799999999999955e+03
1.700000000000000122e-02 6.259660000000000224e-01 -3.526520000000000099e+00 8.535614999999999952e+01 1.790449999999999818e+03
1.800000000000000211e-02 6.257449999999999957e-01 -2.754392499999999799e+00 8.411159999999999570e+01 1.790079999999999927e+03
1.900000000000000300e-02 6.254029999999999312e-01 -2.122189500000000173e+00 8.246909999999999741e+01 1.789634999999999991e+03
2.000000000000000042e-02 6.249789999999999512e-01 -1.584074999999999900e+00 8.043295000000000528e+01 1.789115000000000009e+03
2.100000000000000130e-02 6.245384999999999964e-01 -1.019620000000000193e+00 7.818540000000000134e+01 1.788539999999999964e+03
2.200000000000000219e-02 6.241360000000000241e-01 -3.236799999999999677e-01 7.595560000000000400e+01 1.787960000000000036e+03
2.299999999999999961e-02 6.237859999999999516e-01 5.255900000000002237e-01 7.388759999999999195e+01 1.787404999999999973e+03
2.400000000000000050e-02 6.234625000000000306e-01 1.445620000000000127e+00 7.196760000000000446e+01 1.786875000000000000e+03
2.500000000000000139e-02 6.231059999999999377e-01 2.271130000000000315e+00 7.002049999999999841e+01 1.786349999999999909e+03
2.600000000000000228e-02 6.226484999999999381e-01 2.803969999999999629e+00 6.776720000000000255e+01 1.785759999999999991e+03
2.700000000000000316e-02 6.220345000000000457e-01 2.875285000000000313e+00 6.492045000000000243e+01 1.785065000000000055e+03
2.800000000000000058e-02 6.212439999999999074e-01 2.402129999999999654e+00 6.129175000000000040e+01 1.784199999999999818e+03
2.900000000000000147e-02 6.203019999999999090e-01 1.417520000000000557e+00 5.687004999999999910e+01 1.783180000000000064e+03
3.000000000000000236e-02 6.192714999999999748e-01 6.069999999999975415e-02 5.184140000000000015e+01 1.782005000000000109e+03
3.099999999999999978e-02 6.182354999999999379e-01 -1.466400000000000148e+00 4.654240000000000066e+01 1.780765000000000100e+03
3.200000000000000067e-02 6.172779999999999934e-01 -2.953405000000000058e+00 4.137749999999999773e+01 1.779525000000000091e+03
3.300000000000000155e-02 6.164635000000000531e-01 -4.224664999999999893e+00 3.673349999999999937e+01 1.778375000000000000e+03
3.400000000000000244e-02 6.158325000000000049e-01 -5.162264999999999660e+00 3.291660000000000252e+01 1.777394999999999982e+03
3.500000000000000333e-02 6.154015000000000457e-01 -5.709164999999999601e+00 3.011955000000000382e+01 1.776619999999999891e+03
3.600000000000000422e-02 6.151690000000000769e-01 -5.858389999999999986e+00 2.841939999999999955e+01 1.776099999999999909e+03
3.700000000000000511e-02 6.151184999999999015e-01 -5.634364999999999846e+00 2.779675000000000296e+01 1.775824999999999818e+03
3.799999999999999906e-02 6.152309999999999723e-01 -5.073080000000000034e+00 2.816960000000000264e+01 1.775795000000000073e+03
3.899999999999999994e-02 6.154870000000000063e-01 -4.206630999999999787e+00 2.942900000000000205e+01 1.775985000000000127e+03
4.000000000000000083e-02 6.158699999999999175e-01 -3.056200000000000028e+00 3.146690000000000254e+01 1.776380000000000109e+03
4.100000000000000172e-02 6.163710000000000022e-01 -1.634365000000000290e+00 3.418824999999999648e+01 1.776954999999999927e+03
4.200000000000000261e-02 6.169769999999999976e-01 4.620499999999960750e-02 3.750929999999999609e+01 1.777679999999999836e+03
4.300000000000000350e-02 6.176744999999999042e-01 1.962670000000000137e+00 4.134620000000000317e+01 1.778545000000000073e+03
4.400000000000000439e-02 6.184460000000000512e-01 4.075120000000000076e+00 4.560330000000000439e+01 1.779519999999999982e+03
4.499999999999999833e-02 6.192674999999999708e-01 6.325689999999999813e+00 5.016629999999999967e+01 1.780589999999999918e+03
4.599999999999999922e-02 6.201110000000000788e-01 8.642534500000000008e+00 5.490349999999999397e+01 1.781710000000000036e+03
4.700000000000000011e-02 6.209500000000000020e-01 1.094830499999999951e+01 5.967439999999999856e+01 1.782860000000000127e+03
4.800000000000000100e-02 6.217595000000000205e-01 1.316903999999999897e+01 6.434250000000000114e+01 1.784005000000000109e+03
4.900000000000000189e-02 6.225190000000000445e-01 1.524252000000000073e+01 6.878934999999999889e+01 1.785115000000000009e+03
5.000000000000000278e-02 6.232170000000000210e-01 1.712375000000000114e+01 7.292584999999999695e+01 1.786164999999999964e+03
5.100000000000000366e-02 6.238485000000000280e-01 1.878679999999999950e+01 7.669854999999999734e+01 1.787144999999999982e+03
5.200000000000000455e-02 6.244134999999999547e-01 2.022379999999999711e+01 8.009090000000000487e+01 1.788045000000000073e+03
5.300000000000000544e-02 6.249199999999999200e-01 2.144214999999999804e+01 8.311914999999999054e+01 1.788860000000000127e+03
5.399999999999999939e-02 6.253765000000000018e-01 2.246010000000000062e+01 8.582595000000000596e+01 1.789595000000000027e+03
5.500000000000000028e-02 6.257960000000000189e-01 2.330395000000000039e+01 8.827254999999999541e+01 1.790269999999999982e+03
5.600000000000000117e-02 6.261919999999999709e-01 2.400464999999999804e+01 9.053149999999999409e+01 1.790894999999999982e+03
5.700000000000000205e-02 6.265769999999999396e-01 2.459609999999999985e+01 9.268080000000000496e+01 1.791485000000000127e+03
5.800000000000000294e-02 6.269649999999999945e-01 2.511335000000000051e+01 9.479820000000000846e+01 1.792065000000000055e+03
5.900000000000000383e-02 6.273675000000000779e-01 2.559085000000000321e+01 9.695670000000001210e+01 1.792644999999999982e+03
6.000000000000000472e-02 6.277954999999999508e-01 2.605965000000000131e+01 9.921909999999999741e+01 1.793240000000000009e+03
6.099999999999999867e-02 6.282555000000000778e-01 2.654500000000000171e+01 1.016324999999999932e+02 1.793865000000000009e+03
6.199999999999999956e-02 6.287499999999999201e-01 2.706374999999999886e+01 1.042249999999999943e+02 1.794525000000000091e+03
6.300000000000000044e-02 6.292789999999999218e-01 2.762219999999999942e+01 1.069989999999999952e+02 1.795230000000000018e+03
6.400000000000000133e-02 6.298345000000000748e-01 2.821560000000000201e+01 1.099339999999999975e+02 1.795974999999999909e+03
6.500000000000000222e-02 6.304075000000000095e-01 2.882869999999999777e+01 1.129844999999999970e+02 1.796744999999999891e+03
6.600000000000000311e-02 6.309845000000000592e-01 2.943805000000000049e+01 1.160865000000000009e+02 1.797525000000000091e+03
6.700000000000000400e-02 6.315504999999999036e-01 3.001449999999999818e+01 1.191620000000000061e+02 1.798309999999999945e+03
6.800000000000000488e-02 6.320894999999999708e-01 3.052669999999999817e+01 1.221250000000000000e+02 1.799074999999999818e+03
6.900000000000000577e-02 6.325875000000000803e-01 3.094409999999999883e+01 1.248950000000000102e+02 1.799789999999999964e+03
7.000000000000000666e-02 6.330320000000000391e-01 3.123960000000000292e+01 1.273960000000000150e+02 1.800454999999999927e+03
7.100000000000000755e-02 6.334135000000000737e-01 3.139164999999999850e+01 1.295664999999999907e+02 1.801045000000000073e+03
7.200000000000000844e-02 6.337249999999999828e-01 3.138539999999999708e+01 1.313615000000000066e+02 1.801545000000000073e+03
7.300000000000000933e-02 6.339639999999999720e-01 3.121355000000000146e+01 1.327565000000000168e+02 1.801954999999999927e+03
7.399999999999999634e-02 6.341310000000000002e-01 3.087640000000000029e+01 1.337454999999999927e+02 1.802259999999999991e+03
7.499999999999999722e-02 6.342290000000000427e-01 3.038145000000000095e+01 1.343405000000000200e+02 1.802470000000000027e+03
7.599999999999999811e-02 6.342650000000000787e-01 2.974279999999999902e+01 1.345720000000000027e+02 1.802585000000000036e+03
7.699999999999999900e-02 6.342470000000000052e-01 2.898015000000000185e+01 1.344814999999999827e+02 1.802625000000000000e+03
7.799999999999999989e-02 6.341849999999999987e-01 2.811759999999999948e+01 1.341245000000000118e+02 1.802585000000000036e+03
7.900000000000000078e-02 6.340905000000000014e-01 2.718240000000000123e+01 1.335604999999999905e+02 1.802490000000000009e+03
8.000000000000000167e-02 6.339740000000000375e-01 2.620325000000000415e+01 1.328550000000000182e+02 1.802349999999999909e+03
8.100000000000000255e-02 6.338475000000000081e-01 2.520875000000000199e+01 1.320704999999999814e+02 1.802184999999999945e+03
8.200000000000000344e-02 6.337204999999999089e-01 2.422605000000000075e+01 1.312680000000000007e+02 1.802000000000000000e+03
8.300000000000000433e-02 6.336019999999999985e-01 2.327915000000000134e+01 1.304995000000000118e+02 1.801825000000000045e+03
8.400000000000000522e-02 6.334994999999999932e-01 2.238790000000000191e+01 1.298089999999999975e+02 1.801650000000000091e+03
8.500000000000000611e-02 6.334170000000000078e-01 2.156689999999999685e+01 1.292295000000000016e+02 1.801500000000000000e+03
8.600000000000000699e-02 6.333575000000000177e-01 2.082529999999999859e+01 1.287800000000000011e+02 1.801380000000000109e+03
8.700000000000000788e-02 6.333210000000000228e-01 2.016640000000000299e+01 1.284679999999999893e+02 1.801284999999999854e+03
8.800000000000000877e-02 6.333064999999999944e-01 1.958774999999999977e+01 1.282884999999999991e+02 1.801224999999999909e+03
8.899999999999999578e-02 6.333104999999999984e-01 1.908220000000000027e+01 1.282264999999999873e+02 1.801190000000000055e+03
8.999999999999999667e-02 6.333275000000000432e-01 1.863795000000000002e+01 1.282565000000000168e+02 1.801180000000000064e+03
9.099999999999999756e-02 6.333509999999999973e-01 1.823984999999999701e+01 1.283464999999999918e+02 1.801184999999999945e+03
9.199999999999999845e-02 6.333750000000000213e-01 1.787034999999999840e+01 1.284610000000000127e+02 1.801204999999999927e+03
9.299999999999999933e-02 6.333929999999999838e-01 1.751060000000000016e+01 1.285585000000000093e+02 1.801215000000000146e+03
9.400000000000000022e-02 6.333969999999999878e-01 1.714154999999999873e+01 1.286014999999999873e+02 1.801220000000000027e+03
9.500000000000000111e-02 6.333805000000000129e-01 1.674530000000000030e+01 1.285525000000000091e+02 1.801204999999999927e+03
9.600000000000000200e-02 6.333400000000000141e-01 1.630630000000000024e+01 1.283789999999999907e+02 1.801164999999999964e+03
9.700000000000000289e-02 6.332699999999999996e-01 1.581219999999999892e+01 1.280564999999999998e+02 1.801095000000000027e+03
9.800000000000000377e-02 6.331694999999999407e-01 1.525510000000000055e+01 1.275705000000000098e+02 1.800985000000000127e+03
9.900000000000000466e-02 6.330379999999999896e-01 1.463180000000000014e+01 1.269134999999999991e+02 1.800835000000000036e+03
1.000000000000000056e-01 6.328780000000000516e-01 1.394430499999999995e+01 1.260925000000000011e+02 1.800644999999999982e+03
1.010000000000000064e-01 6.326924999999999910e-01 1.319983500000000021e+01 1.251225000000000023e+02 1.800420000000000073e+03
1.020000000000000073e-01 6.324874999999999803e-01 1.241013000000000055e+01 1.240300000000000011e+02 1.800164999999999964e+03
1.030000000000000082e-01 6.322695000000000398e-01 1.159088500000000010e+01 1.228489999999999895e+02 1.799884999999999991e+03
1.040000000000000091e-01 6.320459999999999967e-01 1.076095000000000113e+01 1.216195000000000022e+02 1.799585000000000036e+03
1.050000000000000100e-01 6.318265000000000686e-01 9.940735000000000099e+00 1.203880000000000052e+02 1.799280000000000200e+03
1.059999999999999970e-01 6.316170000000000950e-01 9.151395000000000834e+00 1.191979999999999933e+02 1.798985000000000127e+03
1.069999999999999979e-01 6.314269999999999605e-01 8.413145000000000095e+00 1.180944999999999965e+02 1.798700000000000045e+03
1.079999999999999988e-01 6.312619999999999898e-01 7.744365000000000165e+00 1.171165000000000020e+02 1.798444999999999936e+03
1.089999999999999997e-01 6.311279999999999113e-01 7.160325000000000273e+00 1.162969999999999970e+02 1.798224999999999909e+03
1.100000000000000006e-01 6.310280000000000333e-01 6.672469999999999679e+00 1.156604999999999990e+02 1.798045000000000073e+03
1.110000000000000014e-01 6.309644999999999282e-01 6.287869999999999848e+00 1.152214999999999918e+02 1.797910000000000082e+03
1.120000000000000023e-01 6.309365000000000112e-01 6.008929999999999438e+00 1.149844999999999970e+02 1.797824999999999818e+03
1.130000000000000032e-01 6.309424999999999617e-01 5.833544999999999980e+00 1.149445000000000050e+02 1.797789999999999964e+03
1.140000000000000041e-01 6.309804999999999442e-01 5.755435000000000301e+00 1.150879999999999939e+02 1.797795000000000073e+03
1.150000000000000050e-01 6.310449999999999671e-01 5.764744999999999564e+00 1.153919999999999959e+02 1.797840000000000146e+03
1.160000000000000059e-01 6.311305000000000387e-01 5.848794999999999966e+00 1.158294999999999959e+02 1.797924999999999955e+03
1.170000000000000068e-01 6.312320000000000153e-01 5.992919999999999803e+00 1.163689999999999998e+02 1.798039999999999964e+03
1.180000000000000077e-01 6.313424999999999176e-01 6.181305000000000049e+00 1.169774999999999920e+02 1.798170000000000073e+03
1.190000000000000085e-01 6.314564999999999761e-01 6.397850000000000037e+00 1.176214999999999975e+02 1.798315000000000055e+03
1.200000000000000094e-01 6.315699999999999648e-01 6.626889999999999503e+00 1.182700000000000102e+02 1.798465000000000146e+03
1.209999999999999964e-01 6.316760000000000153e-01 6.853875000000000384e+00 1.188940000000000055e+02 1.798615000000000009e+03
1.219999999999999973e-01 6.317725000000000701e-01 7.065900000000000070e+00 1.194699999999999989e+02 1.798759999999999991e+03
1.229999999999999982e-01 6.318559999999999732e-01 7.252095000000000624e+00 1.199784999999999968e+02 1.798884999999999991e+03
1.239999999999999991e-01 6.319240000000000412e-01 7.403970000000000162e+00 1.204054999999999893e+02 1.798994999999999891e+03
1.250000000000000000e-01 6.319759999999999822e-01 7.515515000000000612e+00 1.207439999999999998e+02 1.799090000000000146e+03
1.260000000000000009e-01 6.320114999999999483e-01 7.583319999999999617e+00 1.209890000000000043e+02 1.799160000000000082e+03
1.270000000000000018e-01 6.320315000000000794e-01 7.606460000000000221e+00 1.211440000000000055e+02 1.799210000000000036e+03
1.280000000000000027e-01 6.320375000000000298e-01 7.586400000000000254e+00 1.212145000000000010e+02 1.799240000000000009e+03
1.290000000000000036e-01 6.320310000000000095e-01 7.526709999999999567e+00 1.212115000000000009e+02 1.799255000000000109e+03
1.300000000000000044e-01 6.320159999999999112e-01 7.432735000000000092e+00 1.211475000000000080e+02 1.799244999999999891e+03
1.310000000000000053e-01 6.319934999999999858e-01 7.311220000000000496e+00 1.210384999999999991e+02 1.799235000000000127e+03
1.320000000000000062e-01 6.319675000000000153e-01 7.169795000000000584e+00 1.209000000000000057e+02 1.799210000000000036e+03
1.330000000000000071e-01 6.319414999999999338e-01 7.016530000000000378e+00 1.207489999999999952e+02 1.799179999999999836e+03
1.340000000000000080e-01 6.319170000000000620e-01 6.859384999999999621e+00 1.206009999999999991e+02 1.799150000000000091e+03
1.350000000000000089e-01 6.318964999999999721e-01 6.705759999999999721e+00 1.204699999999999989e+02 1.799115000000000009e+03
1.360000000000000098e-01 6.318825000000000136e-01 6.562044999999999462e+00 1.203675000000000068e+02 1.799095000000000027e+03
1.370000000000000107e-01 6.318759999999999932e-01 6.433315000000000339e+00 1.203010000000000019e+02 1.799079999999999927e+03
1.380000000000000115e-01 6.318764999999999521e-01 6.323100000000000165e+00 1.202754999999999939e+02 1.799069999999999936e+03
1.390000000000000124e-01 6.318854999999999889e-01 6.233290000000000219e+00 1.202924999999999898e+02 1.799070000000000164e+03
1.400000000000000133e-01 6.319010000000000460e-01 6.164179999999999993e+00 1.203485000000000014e+02 1.799085000000000036e+03
1.410000000000000142e-01 6.319220000000000947e-01 6.114609999999999879e+00 1.204399999999999977e+02 1.799099999999999909e+03
1.420000000000000151e-01 6.319470000000000365e-01 6.082190000000000651e+00 1.205575000000000045e+02 1.799125000000000000e+03
1.430000000000000160e-01 6.319744999999999946e-01 6.063625000000000043e+00 1.206924999999999955e+02 1.799154999999999973e+03
1.440000000000000169e-01 6.320025000000000226e-01 6.055009999999999337e+00 1.208350000000000080e+02 1.799190000000000055e+03
1.450000000000000178e-01 6.320280000000000342e-01 6.052170000000000272e+00 1.209729999999999990e+02 1.799220000000000027e+03
1.459999999999999909e-01 6.320514999999999883e-01 6.050984999999999836e+00 1.210985000000000014e+02 1.799255000000000109e+03
1.469999999999999918e-01 6.320695000000000618e-01 6.047660000000000480e+00 1.212019999999999982e+02 1.799275000000000091e+03
1.479999999999999927e-01 6.320820000000000327e-01 6.038940000000000197e+00 1.212764999999999986e+02 1.799299999999999955e+03
1.489999999999999936e-01 6.320875000000000243e-01 6.022334999999999994e+00 1.213185000000000002e+02 1.799309999999999945e+03
1.499999999999999944e-01 6.320870000000000655e-01 5.996209999999999596e+00 1.213239999999999981e+02 1.799315000000000055e+03
1.509999999999999953e-01 6.320799999999999752e-01 5.959870000000000445e+00 1.212944999999999993e+02 1.799309999999999945e+03
1.519999999999999962e-01 6.320675000000000043e-01 5.913600000000000634e+00 1.212319999999999993e+02 1.799299999999999955e+03
1.529999999999999971e-01 6.320490000000000830e-01 5.858600000000000030e+00 1.211409999999999911e+02 1.799275000000000091e+03
1.539999999999999980e-01 6.320274999999999643e-01 5.796915000000000262e+00 1.210280000000000058e+02 1.799255000000000109e+03
1.549999999999999989e-01 6.320040000000000102e-01 5.731310000000000571e+00 1.209004999999999939e+02 1.799220000000000027e+03
1.559999999999999998e-01 6.319805000000000561e-01 5.665074999999999861e+00 1.207690000000000055e+02 1.799190000000000055e+03
1.570000000000000007e-01 6.319580000000000197e-01 5.601834999999999454e+00 1.206419999999999959e+02 1.799159999999999854e+03
1.580000000000000016e-01 6.319390000000000285e-01 5.545359999999999623e+00 1.205294999999999987e+02 1.799130000000000109e+03
1.590000000000000024e-01 6.319239999999999302e-01 5.499299999999999855e+00 1.204405000000000001e+02 1.799110000000000127e+03
