# t [s], A [cm^2], U [cm/s], P [cPa], c [cm/s]
1.000000000000000021e-03 1.684215000000000018e-01 1.441839999999999788e-01 9.225139999999998963e+01 2.187385000000000218e+03
2.000000000000000042e-03 1.683870000000000089e-01 1.374415500000000012e+00 8.950454999999999472e+01 2.187069999999999709e+03
3.000000000000000062e-03 1.682865000000000055e-01 2.983100499999999933e+00 8.548184999999999434e+01 2.186199999999999818e+03
4.000000000000000083e-03 1.681440000000000157e-01 4.835621500000000239e+00 8.081800000000001205e+01 2.184994999999999891e+03
5.000000000000000104e-03 1.679879999999999984e-01 6.872615000000000585e+00 7.637520000000000664e+01 2.183684999999999945e+03
6.000000000000000125e-03 1.678359999999999852e-01 8.956490000000000506e+00 7.259905000000000541e+01 2.182425000000000182e+03
7.000000000000000146e-03 1.676934999999999953e-01 1.086993499999999990e+01 6.937030000000000030e+01 2.181264999999999873e+03
8.000000000000000167e-03 1.675610000000000155e-01 1.248721500000000084e+01 6.643715000000000259e+01 2.180210000000000036e+03
9.000000000000001055e-03 1.674434999999999951e-01 1.382671000000000205e+01 6.382365000000000066e+01 2.179284999999999854e+03
1.000000000000000194e-02 1.673434999999999784e-01 1.492804999999999893e+01 6.163859999999999673e+01 2.178510000000000218e+03
1.099999999999999936e-02 1.672615000000000074e-01 1.581210000000000093e+01 5.989815000000000111e+01 2.177880000000000109e+03
1.200000000000000025e-02 1.671964999999999979e-01 1.649650000000000105e+01 5.856295000000000073e+01 2.177390000000000327e+03
1.300000000000000114e-02 1.671460000000000168e-01 1.698424999999999940e+01 5.753685000000000116e+01 2.177014999999999873e+03
1.400000000000000203e-02 1.671044999999999892e-01 1.727244999999999919e+01 5.667150000000000176e+01 2.176715000000000146e+03
1.499999999999999944e-02 1.670705000000000107e-01 1.740514999999999901e+01 5.590285000000000082e+01 2.176465000000000146e+03
1.600000000000000033e-02 1.670455000000000134e-01 1.750419999999999732e+01 5.539674999999999727e+01 2.176295000000000073e+03
1.700000000000000122e-02 1.670389999999999930e-01 1.772765000000000057e+01 5.550919999999999987e+01 2.176250000000000000e+03
1.800000000000000211e-02 1.670579999999999843e-01 1.818560000000000088e+01 5.656329999999999814e+01 2.176399999999999636e+03
1.900000000000000300e-02 1.671050000000000035e-01 1.887760000000000105e+01 5.861414999999999509e+01 2.176764999999999873e+03
2.000000000000000042e-02 1.671754999999999769e-01 1.969030000000000058e+01 6.136265000000000214e+01 2.177309999999999945e+03
2.100000000000000130e-02 1.672560000000000158e-01 2.044904999999999973e+01 6.425479999999998881e+01 2.177944999999999709e+03
2.200000000000000219e-02 1.673330000000000095e-01 2.099020000000000152e+01 6.669290000000000873e+01 2.178554999999999836e+03
2.299999999999999961e-02 1.673914999999999986e-01 2.121945000000000192e+01 6.824780000000001223e+01 2.179045000000000073e+03
2.400000000000000050e-02 1.674265000000000059e-01 2.113490000000000180e+01 6.878319999999999368e+01 2.179350000000000364e+03
2.500000000000000139e-02 1.674380000000000035e-01 2.081305000000000049e+01 6.845759999999999934e+01 2.179460000000000036e+03
2.600000000000000228e-02 1.674315000000000109e-01 2.036765000000000114e+01 6.761940000000001305e+01 2.179429999999999836e+03
2.700000000000000316e-02 1.674160000000000093e-01 1.990200000000000102e+01 6.665074999999998795e+01 2.179315000000000055e+03
2.800000000000000058e-02 1.673985000000000056e-01 1.947305000000000064e+01 6.582489999999999952e+01 2.179175000000000182e+03
2.900000000000000147e-02 1.673830000000000040e-01 1.907845000000000013e+01 6.522655000000000314e+01 2.179050000000000182e+03
3.000000000000000236e-02 1.673689999999999900e-01 1.866790000000000305e+01 6.475435000000000230e+01 2.178940000000000055e+03
3.099999999999999978e-02 1.673520000000000008e-01 1.817079999999999984e+01 6.419140000000000157e+01 2.178809999999999945e+03
3.200000000000000067e-02 1.673284999999999911e-01 1.753055000000000163e+01 6.331265000000000498e+01 2.178630000000000109e+03
3.300000000000000155e-02 1.672929999999999973e-01 1.673270000000000124e+01 6.199120000000000630e+01 2.178359999999999673e+03
3.400000000000000244e-02 1.672465000000000201e-01 1.581930000000000014e+01 6.026734999999999332e+01 2.178000000000000000e+03
3.500000000000000333e-02 1.671925000000000217e-01 1.488299999999999912e+01 5.835784999999999911e+01 2.177579999999999927e+03
3.600000000000000422e-02 1.671389999999999820e-01 1.404370000000000118e+01 5.660204999999999842e+01 2.177154999999999745e+03
3.700000000000000511e-02 1.670949999999999935e-01 1.341594999999999871e+01 5.536404999999999887e+01 2.176805000000000291e+03
3.799999999999999906e-02 1.670694999999999819e-01 1.307740000000000080e+01 5.492680000000000007e+01 2.176585000000000036e+03
3.899999999999999994e-02 1.670674999999999799e-01 1.304994999999999905e+01 5.541230000000000189e+01 2.176555000000000291e+03
4.000000000000000083e-02 1.670905000000000029e-01 1.329605000000000103e+01 5.675070000000000192e+01 2.176710000000000036e+03
4.100000000000000172e-02 1.671329999999999760e-01 1.373034999999999961e+01 5.870175000000000409e+01 2.177029999999999745e+03
4.200000000000000261e-02 1.671890000000000043e-01 1.424044999999999916e+01 6.091539999999999822e+01 2.177454999999999927e+03
4.300000000000000350e-02 1.672480000000000078e-01 1.471059999999999945e+01 6.301030000000000086e+01 2.177914999999999964e+03
4.400000000000000439e-02 1.673004999999999909e-01 1.504204999999999970e+01 6.464820000000000277e+01 2.178329999999999927e+03
4.499999999999999833e-02 1.673390000000000155e-01 1.516635000000000133e+01 6.558865000000000123e+01 2.178649999999999636e+03
4.599999999999999922e-02 1.673569999999999780e-01 1.505030000000000001e+01 6.571459999999999013e+01 2.178800000000000182e+03
4.700000000000000011e-02 1.673534999999999884e-01 1.469314999999999927e+01 6.502844999999999231e+01 2.178789999999999964e+03
4.800000000000000100e-02 1.673280000000000045e-01 1.411785000000000068e+01 6.362590000000000146e+01 2.178605000000000018e+03
4.900000000000000189e-02 1.672839999999999883e-01 1.336079999999999934e+01 6.165725000000000477e+01 2.178265000000000327e+03
5.000000000000000278e-02 1.672234999999999971e-01 1.246186999999999934e+01 5.928764999999999930e+01 2.177800000000000182e+03
5.100000000000000366e-02 1.671519999999999950e-01 1.145765000000000100e+01 5.666719999999999402e+01 2.177239999999999782e+03
5.200000000000000455e-02 1.670729999999999993e-01 1.037847999999999971e+01 5.391425000000000267e+01 2.176619999999999891e+03
5.300000000000000544e-02 1.669889999999999985e-01 9.249309999999999476e+00 5.111299999999999955e+01 2.175960000000000036e+03
5.399999999999999939e-02 1.669025000000000092e-01 8.092570000000000263e+00 4.832240000000000180e+01 2.175274999999999636e+03
5.500000000000000028e-02 1.668149999999999911e-01 6.931805000000000661e+00 4.559045000000000414e+01 2.174590000000000146e+03
5.600000000000000117e-02 1.667294999999999749e-01 5.795165000000000788e+00 4.296885000000000332e+01 2.173909999999999854e+03
5.700000000000000205e-02 1.666469999999999896e-01 4.716800000000000104e+00 4.052360000000000184e+01 2.173260000000000218e+03
5.800000000000000294e-02 1.665714999999999835e-01 3.736885000000000012e+00 3.833934999999999604e+01 2.172654999999999745e+03
5.900000000000000383e-02 1.665039999999999853e-01 2.899396500000000376e+00 3.651659999999999684e+01 2.172114999999999782e+03
6.000000000000000472e-02 1.664490000000000136e-01 2.248742000000000019e+00 3.516344999999999743e+01 2.171670000000000073e+03
6.099999999999999867e-02 1.664094999999999880e-01 1.825731999999999911e+00 3.438405000000000200e+01 2.171345000000000255e+03
6.199999999999999956e-02 1.663884999999999947e-01 1.663720000000000088e+00 3.426614999999999611e+01 2.171154999999999745e+03
6.300000000000000044e-02 1.663879999999999804e-01 1.785544999999999938e+00 3.487075000000000102e+01 2.171140000000000327e+03
6.400000000000000133e-02 1.664100000000000024e-01 2.201690000000000147e+00 3.622530000000000427e+01 2.171289999999999964e+03
6.500000000000000222e-02 1.664550000000000196e-01 2.909699999999999953e+00 3.832115000000000293e+01 2.171625000000000000e+03
6.600000000000000311e-02 1.665220000000000034e-01 3.894775000000000098e+00 4.111464999999999748e+01 2.172135000000000218e+03
6.700000000000000400e-02 1.666104999999999947e-01 5.131330000000000169e+00 4.453194999999999482e+01 2.172809999999999945e+03
6.800000000000000488e-02 1.667180000000000051e-01 6.585115000000000052e+00 4.847615000000000407e+01 2.173644999999999982e+03
6.900000000000000577e-02 1.668415000000000037e-01 8.215844999999999843e+00 5.283500000000000085e+01 2.174605000000000018e+03
7.000000000000000666e-02 1.669769999999999865e-01 9.979960000000000164e+00 5.748990000000000578e+01 2.175670000000000073e+03
7.100000000000000755e-02 1.671219999999999928e-01 1.183343999999999951e+01 6.232425000000000637e+01 2.176805000000000291e+03
7.200000000000000844e-02 1.672730000000000050e-01 1.373446500000000015e+01 6.723104999999999620e+01 2.178000000000000000e+03
7.300000000000000933e-02 1.674264999999999781e-01 1.564584999999999937e+01 7.211974999999999625e+01 2.179219999999999800e+03
7.399999999999999634e-02 1.675804999999999934e-01 1.753654999999999831e+01 7.692069999999999652e+01 2.180449999999999818e+03
7.499999999999999722e-02 1.677329999999999932e-01 1.938339999999999819e+01 8.158780000000000143e+01 2.181664999999999964e+03
7.599999999999999811e-02 1.678820000000000034e-01 2.117050000000000054e+01 8.609869999999999379e+01 2.182855000000000018e+03
7.699999999999999900e-02 1.680274999999999963e-01 2.288954999999999984e+01 9.045220000000000482e+01 2.184019999999999982e+03
7.799999999999999989e-02 1.681694999999999995e-01 2.453824999999999790e+01 9.466400000000000148e+01 2.185164999999999964e+03
7.900000000000000078e-02 1.683074999999999988e-01 2.611874999999999858e+01 9.875954999999999018e+01 2.186274999999999636e+03
8.000000000000000167e-02 1.684430000000000094e-01 2.763599999999999923e+01 1.027715500000000048e+02 2.187364999999999782e+03
8.100000000000000255e-02 1.685765000000000180e-01 2.909580000000000055e+01 1.067281999999999869e+02 2.188445000000000164e+03
8.200000000000000344e-02 1.687084999999999835e-01 3.050365000000000038e+01 1.106544999999999987e+02 2.189510000000000218e+03
8.300000000000000433e-02 1.688399999999999901e-01 3.186359999999999815e+01 1.145660000000000025e+02 2.190565000000000055e+03
8.400000000000000522e-02 1.689704999999999957e-01 3.317810000000000059e+01 1.184679999999999893e+02 2.191625000000000000e+03
8.500000000000000611e-02 1.691004999999999869e-01 3.444729999999999848e+01 1.223575000000000017e+02 2.192675000000000182e+03
8.600000000000000699e-02 1.692295000000000049e-01 3.566979999999999507e+01 1.262224999999999966e+02 2.193720000000000255e+03
8.700000000000000788e-02 1.693585000000000229e-01 3.684239999999999782e+01 1.300450000000000159e+02 2.194764999999999873e+03
8.800000000000000877e-02 1.694849999999999968e-01 3.796054999999999779e+01 1.338034999999999854e+02 2.195789999999999964e+03
8.899999999999999578e-02 1.696090000000000098e-01 3.901874999999999716e+01 1.374730000000000132e+02 2.196800000000000182e+03
8.999999999999999667e-02 1.697305000000000064e-01 4.001054999999999495e+01 1.410269999999999868e+02 2.197779999999999745e+03
9.099999999999999756e-02 1.698479999999999990e-01 4.092884999999999707e+01 1.444390000000000214e+02 2.198734999999999673e+03
9.199999999999999845e-02 1.699610000000000010e-01 4.176564999999999372e+01 1.476814999999999998e+02 2.199654999999999745e+03
9.299999999999999933e-02 1.700675000000000103e-01 4.251295000000000357e+01 1.507275000000000205e+02 2.200524999999999636e+03
9.400000000000000022e-02 1.701685000000000003e-01 4.316235000000000355e+01 1.535500000000000114e+02 2.201345000000000255e+03
9.500000000000000111e-02 1.702619999999999967e-01 4.370595000000000141e+01 1.561245000000000118e+02 2.202110000000000127e+03
9.600000000000000200e-02 1.703469999999999984e-01 4.413684999999999548e+01 1.584290000000000020e+02 2.202809999999999945e+03
9.700000000000000289e-02 1.704235000000000055e-01 4.444965000000000543e+01 1.604454999999999814e+02 2.203439999999999600e+03
9.800000000000000377e-02 1.704910000000000037e-01 4.464090000000000202e+01 1.621620000000000061e+02 2.203994999999999891e+03
9.900000000000000466e-02 1.705484999999999918e-01 4.471009999999999707e+01 1.635749999999999886e+02 2.204474999999999909e+03
1.000000000000000056e-01 1.705964999999999843e-01 4.465940000000000509e+01 1.646875000000000000e+02 2.204875000000000000e+03
1.010000000000000064e-01 1.706354999999999955e-01 4.449414999999999765e+01 1.655110000000000241e+02 2.205199999999999818e+03
1.020000000000000073e-01 1.706650000000000111e-01 4.422259999999999991e+01 1.660665000000000191e+02 2.205449999999999818e+03
1.030000000000000082e-01 1.706854999999999900e-01 4.385529999999999973e+01 1.663799999999999955e+02 2.205630000000000109e+03
1.040000000000000091e-01 1.706995000000000040e-01 4.340514999999999901e+01 1.664834999999999923e+02 2.205750000000000000e+03
1.050000000000000100e-01 1.707064999999999833e-01 4.288615000000000066e+01 1.664125000000000227e+02 2.205809999999999945e+03
1.059999999999999970e-01 1.707080000000000264e-01 4.231309999999999860e+01 1.662040000000000077e+02 2.205829999999999927e+03
1.069999999999999979e-01 1.707044999999999813e-01 4.170074999999999932e+01 1.658930000000000007e+02 2.205810000000000400e+03
1.079999999999999988e-01 1.706980000000000164e-01 4.106319999999999482e+01 1.655134999999999934e+02 2.205760000000000218e+03
1.089999999999999997e-01 1.706889999999999796e-01 4.041330000000000666e+01 1.650955000000000155e+02 2.205689999999999600e+03
1.100000000000000006e-01 1.706785000000000108e-01 3.976239999999999952e+01 1.646634999999999991e+02 2.205605000000000018e+03
1.110000000000000014e-01 1.706670000000000131e-01 3.911979999999999791e+01 1.642375000000000114e+02 2.205519999999999982e+03
1.120000000000000023e-01 1.706550000000000011e-01 3.849264999999999759e+01 1.638304999999999723e+02 2.205420000000000073e+03
1.130000000000000032e-01 1.706440000000000179e-01 3.788575000000000159e+01 1.634515000000000100e+02 2.205329999999999927e+03
1.140000000000000041e-01 1.706329999999999791e-01 3.730134999999999934e+01 1.631005000000000109e+02 2.205239999999999782e+03
1.150000000000000050e-01 1.706225000000000103e-01 3.673940000000000339e+01 1.627744999999999891e+02 2.205154999999999745e+03
1.160000000000000059e-01 1.706125000000000003e-01 3.619780000000000086e+01 1.624635000000000105e+02 2.205070000000000164e+03
1.170000000000000068e-01 1.706024999999999903e-01 3.567224999999999824e+01 1.621544999999999845e+02 2.204984999999999673e+03
1.180000000000000077e-01 1.705924999999999803e-01 3.515694999999999482e+01 1.618310000000000173e+02 2.204899999999999636e+03
1.190000000000000085e-01 1.705809999999999826e-01 3.464489999999999981e+01 1.614724999999999966e+02 2.204810000000000400e+03
1.200000000000000094e-01 1.705685000000000118e-01 3.412850000000000250e+01 1.610595000000000141e+02 2.204710000000000036e+03
1.209999999999999964e-01 1.705539999999999834e-01 3.359980000000000189e+01 1.605710000000000264e+02 2.204590000000000146e+03
1.219999999999999973e-01 1.705375000000000085e-01 3.305129999999999768e+01 1.599890000000000043e+02 2.204454999999999927e+03
1.229999999999999982e-01 1.705170000000000019e-01 3.247634999999999650e+01 1.592975000000000136e+02 2.204289999999999964e+03
1.239999999999999991e-01 1.704939999999999789e-01 3.186955000000000027e+01 1.584850000000000136e+02 2.204099999999999909e+03
1.250000000000000000e-01 1.704660000000000064e-01 3.122715000000000174e+01 1.575434999999999945e+02 2.203880000000000109e+03
1.260000000000000009e-01 1.704350000000000032e-01 3.054749999999999943e+01 1.564720000000000084e+02 2.203630000000000109e+03
1.270000000000000018e-01 1.703994999999999815e-01 2.983105000000000118e+01 1.552744999999999891e+02 2.203349999999999909e+03
1.280000000000000027e-01 1.703604999999999980e-01 2.908034999999999926e+01 1.539600000000000080e+02 2.203029999999999745e+03
1.290000000000000036e-01 1.703179999999999972e-01 2.830039999999999978e+01 1.525450000000000159e+02 2.202690000000000055e+03
1.300000000000000044e-01 1.702724999999999933e-01 2.749794999999999945e+01 1.510500000000000114e+02 2.202319999999999709e+03
1.310000000000000053e-01 1.702245000000000008e-01 2.668169999999999931e+01 1.494995000000000118e+02 2.201940000000000055e+03
1.320000000000000062e-01 1.701750000000000207e-01 2.586140000000000327e+01 1.479209999999999923e+02 2.201534999999999854e+03
1.330000000000000071e-01 1.701245000000000118e-01 2.504789999999999850e+01 1.463435000000000059e+02 2.201130000000000109e+03
1.340000000000000080e-01 1.700740000000000030e-01 2.425205000000000055e+01 1.447980000000000018e+02 2.200720000000000255e+03
1.350000000000000089e-01 1.700244999999999951e-01 2.348449999999999704e+01 1.433104999999999905e+02 2.200324999999999818e+03
1.360000000000000098e-01 1.699780000000000180e-01 2.275525000000000020e+01 1.419074999999999989e+02 2.199940000000000055e+03
1.370000000000000107e-01 1.699330000000000007e-01 2.207274999999999920e+01 1.406105000000000018e+02 2.199574999999999818e+03
1.380000000000000115e-01 1.698915000000000008e-01 2.144415000000000049e+01 1.394364999999999952e+02 2.199235000000000127e+03
1.390000000000000124e-01 1.698529999999999762e-01 2.087444999999999951e+01 1.383969999999999914e+02 2.198925000000000182e+03
1.400000000000000133e-01 1.698199999999999987e-01 2.036694999999999922e+01 1.374975000000000023e+02 2.198649999999999636e+03
1.410000000000000142e-01 1.697905000000000109e-01 1.992280000000000229e+01 1.367400000000000091e+02 2.198404999999999745e+03
1.420000000000000151e-01 1.697649999999999992e-01 1.954149999999999920e+01 1.361204999999999927e+02 2.198194999999999709e+03
1.430000000000000160e-01 1.697440000000000060e-01 1.922064999999999912e+01 1.356320000000000050e+02 2.198025000000000091e+03
1.440000000000000169e-01 1.697275000000000034e-01 1.895684999999999931e+01 1.352634999999999934e+02 2.197885000000000218e+03
1.450000000000000178e-01 1.697140000000000037e-01 1.874520000000000053e+01 1.350020000000000095e+02 2.197769999999999982e+03
1.459999999999999909e-01 1.697039999999999937e-01 1.858024999999999949e+01 1.348340000000000032e+02 2.197684999999999945e+03
1.469999999999999918e-01 1.696969999999999867e-01 1.845609999999999928e+01 1.347445000000000164e+02 2.197625000000000000e+03
1.479999999999999927e-01 1.696924999999999961e-01 1.836639999999999873e+01 1.347189999999999941e+02 2.197585000000000036e+03
1.489999999999999936e-01 1.696900000000000075e-01 1.830474999999999852e+01 1.347429999999999950e+02 2.197559999999999945e+03
1.499999999999999944e-01 1.696894999999999931e-01 1.826509999999999678e+01 1.348029999999999973e+02 2.197550000000000182e+03
1.509999999999999953e-01 1.696900000000000075e-01 1.824170000000000158e+01 1.348870000000000005e+02 2.197555000000000291e+03
1.519999999999999962e-01 1.696914999999999951e-01 1.822909999999999897e+01 1.349844999999999970e+02 2.197559999999999945e+03
1.529999999999999971e-01 1.696934999999999971e-01 1.822265000000000157e+01 1.350865000000000009e+02 2.197574999999999818e+03
1.539999999999999980e-01 1.696954999999999991e-01 1.821835000000000093e+01 1.351850000000000023e+02 2.197595000000000255e+03
1.549999999999999989e-01 1.696980000000000155e-01 1.821289999999999765e+01 1.352749999999999773e+02 2.197610000000000127e+03
1.559999999999999998e-01 1.697000000000000175e-01 1.820394999999999897e+01 1.353534999999999968e+02 2.197625000000000000e+03
1.570000000000000007e-01 1.697020000000000195e-01 1.818979999999999819e+01 1.354175000000000182e+02 2.197640000000000327e+03
1.580000000000000016e-01 1.697035000000000071e-01 1.816979999999999862e+01 1.354675000000000011e+02 2.197654999999999745e+03
1.590000000000000024e-01 1.697049999999999947e-01 1.814375000000000071e+01 1.355049999999999955e+02 2.197670000000000073e+03
