# t [s], A [cm^2], U [cm/s], P [cPa], c [cm/s]
1.000000000000000021e-03 5.958399999999999253e-01 3.884400000000003128e-03 9.462340000000000373e+01 1.468519999999999982e+03
2.000000000000000042e-03 5.958299999999999708e-01 -2.641820000000000019e-03 9.460309999999999775e+01 1.468509999999999991e+03
3.000000000000000062e-03 5.958649999999999780e-01 5.533165000000000305e-02 9.465565000000000850e+01 1.468529999999999973e+03
4.000000000000000083e-03 5.959194999999999354e-01 1.498477000000000003e-01 9.476400000000001000e+01 1.468559999999999945e+03
5.000000000000000104e-03 5.959250000000000380e-01 1.713870000000000116e-01 9.478419999999999845e+01 1.468570000000000164e+03
6.000000000000000125e-03 5.958764999999999201e-01 1.046939999999999815e-01 9.466474999999999795e+01 1.468539999999999964e+03
7.000000000000000146e-03 5.958234999999999504e-01 2.434549999999996439e-02 9.447460000000000946e+01 1.468490000000000009e+03
8.000000000000000167e-03 5.957689999999999930e-01 -6.364199999999997637e-02 9.423454999999999870e+01 1.468429999999999836e+03
9.000000000000001055e-03 5.956784999999999997e-01 -2.233024999999999594e-01 9.387704999999999700e+01 1.468329999999999927e+03
1.000000000000000194e-02 5.955390000000000406e-01 -4.782049999999998802e-01 9.335454999999998904e+01 1.468195000000000164e+03
1.099999999999999936e-02 5.953479999999999883e-01 -8.279449999999999310e-01 9.264105000000000700e+01 1.468000000000000000e+03
1.200000000000000025e-02 5.950904999999999667e-01 -1.287039999999999962e+00 9.169345000000001278e+01 1.467740000000000009e+03
1.300000000000000114e-02 5.947580000000000089e-01 -1.860294999999999810e+00 9.047480000000000189e+01 1.467404999999999973e+03
1.400000000000000203e-02 5.943650000000000322e-01 -2.501619999999999955e+00 8.900704999999999245e+01 1.466985000000000127e+03
1.499999999999999944e-02 5.939575000000000271e-01 -3.112400000000000055e+00 8.738909999999999911e+01 1.466514999999999873e+03
1.600000000000000033e-02 5.935835000000000417e-01 -3.580785500000000177e+00 8.576120000000000232e+01 1.466019999999999982e+03
1.700000000000000122e-02 5.932760000000000256e-01 -3.826198999999999462e+00 8.425005000000000166e+01 1.465545000000000073e+03
1.800000000000000211e-02 5.930395000000000527e-01 -3.822163999999999895e+00 8.292759999999999820e+01 1.465099999999999909e+03
1.900000000000000300e-02 5.928544999999999510e-01 -3.594299499999999981e+00 8.179849999999999000e+01 1.464699999999999818e+03
2.000000000000000042e-02 5.926900000000000501e-01 -3.202706499999999679e+00 8.081155000000001110e+01 1.464329999999999927e+03
2.100000000000000130e-02 5.925124999999999975e-01 -2.718742950000000214e+00 7.988394999999999868e+01 1.463969999999999800e+03
2.200000000000000219e-02 5.922965000000000035e-01 -2.203436499999999576e+00 7.893100000000001160e+01 1.463610000000000127e+03
2.299999999999999961e-02 5.920315000000000438e-01 -1.692550000000000221e+00 7.789124999999999943e+01 1.463230000000000018e+03
2.400000000000000050e-02 5.917229999999999990e-01 -1.191914999999999836e+00 7.674164999999999281e+01 1.462815000000000055e+03
2.500000000000000139e-02 5.913869999999999960e-01 -6.835350000000000037e-01 7.549770000000000891e+01 1.462375000000000000e+03
2.600000000000000228e-02 5.910425000000000262e-01 -1.393300000000001759e-01 7.420090000000000430e+01 1.461924999999999955e+03
2.700000000000000316e-02 5.907059999999999533e-01 4.632749999999998813e-01 7.289950000000000330e+01 1.461465000000000146e+03
2.800000000000000058e-02 5.903859999999999664e-01 1.129420000000000091e+00 7.162945000000000562e+01 1.461009999999999991e+03
2.900000000000000147e-02 5.900784999999999503e-01 1.841355000000000075e+00 7.040180000000000859e+01 1.460565000000000055e+03
3.000000000000000236e-02 5.897704999999999753e-01 2.559795000000000265e+00 6.919774999999999920e+01 1.460130000000000109e+03
3.099999999999999978e-02 5.894420000000000215e-01 3.230690000000000062e+00 6.797245000000000914e+01 1.459680000000000064e+03
3.200000000000000067e-02 5.890729999999999578e-01 3.795435000000000336e+00 6.666509999999999536e+01 1.459220000000000027e+03
3.300000000000000155e-02 5.886460000000000026e-01 4.202354999999999841e+00 6.521335000000000548e+01 1.458724999999999909e+03
3.400000000000000244e-02 5.881520000000000081e-01 4.417029999999999568e+00 6.356879999999999598e+01 1.458180000000000064e+03
3.500000000000000333e-02 5.875920000000000032e-01 4.429609999999999381e+00 6.171045000000000158e+01 1.457579999999999927e+03
3.600000000000000422e-02 5.869785000000000696e-01 4.256594999999999906e+00 5.965220000000000056e+01 1.456920000000000073e+03
3.700000000000000511e-02 5.863340000000000218e-01 3.937570000000000014e+00 5.744364999999999810e+01 1.456224999999999909e+03
3.799999999999999906e-02 5.856860000000000399e-01 3.527874999999999872e+00 5.516329999999999956e+01 1.455505000000000109e+03
3.899999999999999994e-02 5.850650000000000572e-01 3.088914999999999633e+00 5.290770000000000550e+01 1.454784999999999854e+03
4.000000000000000083e-02 5.844970000000000443e-01 2.679919999999999636e+00 5.077880000000000393e+01 1.454090000000000146e+03
4.100000000000000172e-02 5.840054999999999552e-01 2.351150000000000073e+00 4.887229999999999563e+01 1.453454999999999927e+03
4.200000000000000261e-02 5.836069999999999869e-01 2.140510000000000357e+00 4.726899999999999835e+01 1.452900000000000091e+03
4.300000000000000350e-02 5.833104999999999540e-01 2.072789999999999910e+00 4.602970000000000539e+01 1.452450000000000045e+03
4.400000000000000439e-02 5.831215000000000703e-01 2.161070000000000046e+00 4.519374999999999432e+01 1.452119999999999891e+03
4.499999999999999833e-02 5.830400000000000027e-01 2.409523000000000081e+00 4.478045000000000186e+01 1.451910000000000082e+03
4.599999999999999922e-02 5.830634999999999568e-01 2.816850000000000076e+00 4.479250000000000398e+01 1.451829999999999927e+03
4.700000000000000011e-02 5.831880000000000397e-01 3.379410000000000025e+00 4.522104999999999819e+01 1.451884999999999991e+03
4.800000000000000100e-02 5.834099999999999842e-01 4.093524999999999636e+00 4.604984999999999928e+01 1.452075000000000045e+03
4.900000000000000189e-02 5.837240000000000206e-01 4.956610000000000404e+00 4.725965000000000060e+01 1.452384999999999991e+03
5.000000000000000278e-02 5.841279999999999806e-01 5.966974999999999696e+00 4.882979999999999876e+01 1.452815000000000055e+03
5.100000000000000366e-02 5.846164999999999834e-01 7.122654999999999959e+00 5.073919999999999675e+01 1.453355000000000018e+03
5.200000000000000455e-02 5.851850000000000662e-01 8.419864999999999711e+00 5.296564999999999657e+01 1.454009999999999991e+03
5.300000000000000544e-02 5.858280000000000154e-01 9.851205000000000211e+00 5.548429999999999751e+01 1.454759999999999991e+03
5.399999999999999939e-02 5.865375000000000449e-01 1.140463499999999897e+01 5.826639999999999731e+01 1.455605000000000018e+03
5.500000000000000028e-02 5.873040000000000482e-01 1.306312999999999924e+01 6.127824999999999989e+01 1.456525000000000091e+03
5.600000000000000117e-02 5.881164999999999310e-01 1.480504499999999979e+01 6.448135000000000616e+01 1.457519999999999982e+03
5.700000000000000205e-02 5.889630000000000143e-01 1.660517499999999913e+01 6.783305000000000007e+01 1.458570000000000164e+03
5.800000000000000294e-02 5.898315000000000641e-01 1.843634000000000128e+01 7.128820000000000334e+01 1.459670000000000073e+03
5.900000000000000383e-02 5.907094999999999985e-01 2.027120000000000033e+01 7.480105000000000359e+01 1.460795000000000073e+03
6.000000000000000472e-02 5.915869999999999740e-01 2.208375000000000199e+01 7.832779999999999632e+01 1.461934999999999945e+03
6.099999999999999867e-02 5.924540000000000362e-01 2.385079999999999956e+01 8.182880000000000109e+01 1.463085000000000036e+03
6.199999999999999956e-02 5.933034999999999837e-01 2.555304999999999893e+01 8.526980000000000359e+01 1.464224999999999909e+03
6.300000000000000044e-02 5.941300000000000470e-01 2.717530000000000001e+01 8.862489999999999668e+01 1.465345000000000027e+03
6.400000000000000133e-02 5.949290000000000411e-01 2.870689999999999742e+01 9.187340000000000373e+01 1.466445000000000164e+03
6.500000000000000222e-02 5.957000000000000073e-01 3.014144999999999897e+01 9.500509999999999877e+01 1.467515000000000100e+03
6.600000000000000311e-02 5.964430000000000565e-01 3.147610000000000241e+01 9.801480000000000814e+01 1.468554999999999836e+03
6.700000000000000400e-02 5.971589999999999954e-01 3.271120000000000516e+01 1.009042499999999905e+02 1.469555000000000064e+03
6.800000000000000488e-02 5.978510000000000213e-01 3.384949999999999903e+01 1.036804999999999950e+02 1.470529999999999973e+03
6.900000000000000577e-02 5.985209999999999697e-01 3.489574999999999960e+01 1.063541500000000042e+02 1.471469999999999800e+03
7.000000000000000666e-02 5.991729999999999556e-01 3.585564999999999714e+01 1.089375000000000000e+02 1.472375000000000000e+03
7.100000000000000755e-02 5.998099999999999543e-01 3.673569999999999425e+01 1.114449999999999932e+02 1.473264999999999873e+03
7.200000000000000844e-02 6.004359999999999697e-01 3.754254999999999853e+01 1.138905000000000030e+02 1.474130000000000109e+03
7.300000000000000933e-02 6.010524999999999896e-01 3.828249999999999886e+01 1.162874999999999943e+02 1.474980000000000018e+03
7.399999999999999634e-02 6.016619999999999191e-01 3.896110000000000184e+01 1.186450000000000102e+02 1.475815000000000055e+03
7.499999999999999722e-02 6.022659999999999680e-01 3.958280000000000598e+01 1.209710000000000036e+02 1.476634999999999991e+03
7.599999999999999811e-02 6.028644999999999143e-01 4.015044999999999931e+01 1.232694999999999936e+02 1.477450000000000045e+03
7.699999999999999900e-02 6.034570000000000212e-01 4.066540000000000532e+01 1.255409999999999968e+02 1.478244999999999891e+03
7.799999999999999989e-02 6.040415000000000090e-01 4.112729999999999819e+01 1.277795000000000130e+02 1.479039999999999964e+03
7.900000000000000078e-02 6.046154999999999724e-01 4.153419999999999845e+01 1.299784999999999968e+02 1.479820000000000164e+03
8.000000000000000167e-02 6.051750000000000185e-01 4.188285000000000480e+01 1.321254999999999882e+02 1.480575000000000045e+03
8.100000000000000255e-02 6.057170000000000609e-01 4.216904999999999859e+01 1.342065000000000055e+02 1.481315000000000055e+03
8.200000000000000344e-02 6.062365000000000670e-01 4.238795000000000357e+01 1.362060000000000173e+02 1.482035000000000082e+03
8.300000000000000433e-02 6.067299999999999915e-01 4.253454999999999586e+01 1.381059999999999945e+02 1.482714999999999918e+03
8.400000000000000522e-02 6.071925000000000239e-01 4.260425000000000040e+01 1.398915000000000077e+02 1.483365000000000009e+03
8.500000000000000611e-02 6.076204999999998968e-01 4.259300000000000352e+01 1.415459999999999923e+02 1.483970000000000027e+03
8.600000000000000699e-02 6.080110000000000792e-01 4.249765000000000015e+01 1.430559999999999832e+02 1.484529999999999973e+03
8.700000000000000788e-02 6.083620000000000694e-01 4.231640000000000157e+01 1.444105000000000132e+02 1.485039999999999964e+03
8.800000000000000877e-02 6.086705000000000032e-01 4.204869999999999663e+01 1.456014999999999873e+02 1.485494999999999891e+03
8.899999999999999578e-02 6.089374999999999094e-01 4.169554999999999723e+01 1.466245000000000118e+02 1.485900000000000091e+03
8.999999999999999667e-02 6.091610000000000635e-01 4.125924999999999443e+01 1.474769999999999754e+02 1.486244999999999891e+03
9.099999999999999756e-02 6.093429999999999680e-01 4.074374999999999858e+01 1.481624999999999943e+02 1.486534999999999854e+03
9.199999999999999845e-02 6.094850000000000545e-01 4.015425000000000466e+01 1.486850000000000023e+02 1.486759999999999991e+03
9.299999999999999933e-02 6.095884999999999776e-01 3.949715000000000487e+01 1.490534999999999854e+02 1.486945000000000164e+03
9.400000000000000022e-02 6.096574999999999633e-01 3.878005000000000280e+01 1.492779999999999916e+02 1.487075000000000045e+03
9.500000000000000111e-02 6.096945000000000281e-01 3.801135000000000019e+01 1.493725000000000023e+02 1.487154999999999973e+03
9.600000000000000200e-02 6.097029999999999950e-01 3.720024999999999693e+01 1.493509999999999991e+02 1.487195000000000164e+03
9.700000000000000289e-02 6.096874999999999378e-01 3.635644999999999527e+01 1.492295000000000016e+02 1.487199999999999818e+03
9.800000000000000377e-02 6.096520000000000827e-01 3.548969999999999914e+01 1.490255000000000223e+02 1.487170000000000073e+03
9.900000000000000466e-02 6.096010000000000595e-01 3.460974999999999824e+01 1.487555000000000121e+02 1.487109999999999900e+03
1.000000000000000056e-01 6.095380000000000242e-01 3.372610000000000241e+01 1.484365000000000236e+02 1.487029999999999973e+03
1.010000000000000064e-01 6.094675000000000509e-01 3.284754999999999825e+01 1.480840000000000032e+02 1.486934999999999945e+03
1.020000000000000073e-01 6.093919999999999337e-01 3.198199999999999932e+01 1.477125000000000057e+02 1.486824999999999818e+03
1.030000000000000082e-01 6.093150000000000510e-01 3.113620000000000232e+01 1.473354999999999961e+02 1.486710000000000036e+03
1.040000000000000091e-01 6.092394999999999339e-01 3.031564999999999799e+01 1.469629999999999939e+02 1.486595000000000027e+03
1.050000000000000100e-01 6.091664999999999441e-01 2.952430000000000021e+01 1.466045000000000016e+02 1.486480000000000018e+03
1.059999999999999970e-01 6.090974999999999584e-01 2.876449999999999818e+01 1.462649999999999864e+02 1.486365000000000009e+03
1.069999999999999979e-01 6.090320000000000178e-01 2.803709999999999880e+01 1.459474999999999909e+02 1.486255000000000109e+03
1.079999999999999988e-01 6.089714999999999989e-01 2.734134999999999849e+01 1.456529999999999916e+02 1.486154999999999973e+03
1.089999999999999997e-01 6.089145000000000252e-01 2.667524999999999835e+01 1.453790000000000191e+02 1.486054999999999836e+03
1.100000000000000006e-01 6.088590000000000391e-01 2.603549999999999898e+01 1.451220000000000141e+02 1.485960000000000036e+03
1.110000000000000014e-01 6.088040000000000118e-01 2.541769999999999996e+01 1.448760000000000048e+02 1.485869999999999891e+03
1.120000000000000023e-01 6.087484999999999147e-01 2.481674999999999898e+01 1.446324999999999932e+02 1.485779999999999973e+03
1.130000000000000032e-01 6.086890000000000356e-01 2.422715000000000174e+01 1.443845000000000027e+02 1.485684999999999945e+03
1.140000000000000041e-01 6.086240000000000538e-01 2.364310000000000045e+01 1.441225000000000023e+02 1.485595000000000027e+03
1.150000000000000050e-01 6.085509999999999531e-01 2.305884999999999962e+01 1.438385000000000105e+02 1.485490000000000009e+03
1.160000000000000059e-01 6.084685000000000787e-01 2.246894999999999953e+01 1.435235000000000127e+02 1.485384999999999991e+03
1.170000000000000068e-01 6.083749999999999991e-01 2.186830000000000140e+01 1.431694999999999993e+02 1.485264999999999873e+03
1.180000000000000077e-01 6.082684999999999897e-01 2.125274999999999892e+01 1.427704999999999984e+02 1.485130000000000109e+03
1.190000000000000085e-01 6.081484999999999808e-01 2.061874999999999858e+01 1.423215000000000146e+02 1.484980000000000018e+03
1.200000000000000094e-01 6.080145000000000133e-01 1.996399999999999864e+01 1.418189999999999884e+02 1.484819999999999936e+03
1.209999999999999964e-01 6.078660000000000174e-01 1.928699999999999903e+01 1.412615000000000123e+02 1.484639999999999873e+03
1.219999999999999973e-01 6.077029999999999932e-01 1.858765000000000001e+01 1.406494999999999891e+02 1.484440000000000055e+03
1.229999999999999982e-01 6.075280000000000680e-01 1.786684999999999945e+01 1.399850000000000136e+02 1.484224999999999909e+03
1.239999999999999991e-01 6.073405000000000609e-01 1.712685000000000102e+01 1.392725000000000080e+02 1.484000000000000000e+03
1.250000000000000000e-01 6.071440000000000170e-01 1.637079999999999913e+01 1.385174999999999841e+02 1.483750000000000000e+03
1.260000000000000009e-01 6.069394999999999651e-01 1.560294999999999987e+01 1.377289999999999850e+02 1.483494999999999891e+03
1.270000000000000018e-01 6.067299999999999915e-01 1.482841499999999968e+01 1.369150000000000205e+02 1.483230000000000018e+03
1.280000000000000027e-01 6.065175000000000427e-01 1.405306999999999995e+01 1.360855000000000246e+02 1.482954999999999927e+03
1.290000000000000036e-01 6.063050000000000939e-01 1.328310000000000102e+01 1.352520000000000095e+02 1.482680000000000064e+03
1.300000000000000044e-01 6.060965000000000380e-01 1.252517000000000102e+01 1.344254999999999995e+02 1.482400000000000091e+03
1.310000000000000053e-01 6.058940000000000436e-01 1.178592499999999887e+01 1.336170000000000186e+02 1.482130000000000109e+03
1.320000000000000062e-01 6.056995000000000573e-01 1.107186499999999896e+01 1.328379999999999939e+02 1.481865000000000009e+03
1.330000000000000071e-01 6.055169999999999719e-01 1.038903499999999980e+01 1.320985000000000014e+02 1.481610000000000127e+03
1.340000000000000080e-01 6.053475000000000383e-01 9.743009999999999948e+00 1.314070000000000107e+02 1.481369999999999891e+03
1.350000000000000089e-01 6.051929999999999810e-01 9.138344999999999274e+00 1.307715000000000032e+02 1.481144999999999982e+03
1.360000000000000098e-01 6.050554999999999684e-01 8.578860000000000596e+00 1.301980000000000075e+02 1.480934999999999945e+03
1.370000000000000107e-01 6.049340000000000828e-01 8.067185000000000272e+00 1.296904999999999859e+02 1.480750000000000000e+03
1.380000000000000115e-01 6.048305000000000486e-01 7.604835000000000456e+00 1.292505000000000166e+02 1.480585000000000036e+03
1.390000000000000124e-01 6.047439999999999483e-01 7.192124999999999879e+00 1.288789999999999907e+02 1.480440000000000055e+03
1.400000000000000133e-01 6.046735000000000859e-01 6.828325000000000422e+00 1.285729999999999791e+02 1.480315000000000055e+03
1.410000000000000142e-01 6.046179999999999888e-01 6.511554999999999538e+00 1.283284999999999911e+02 1.480215000000000146e+03
1.420000000000000151e-01 6.045760000000000023e-01 6.239004999999999690e+00 1.281415000000000077e+02 1.480130000000000109e+03
1.430000000000000160e-01 6.045454999999999579e-01 6.007080000000000197e+00 1.280035000000000025e+02 1.480065000000000055e+03
1.440000000000000169e-01 6.045249999999999790e-01 5.811524999999999608e+00 1.279080000000000013e+02 1.480009999999999991e+03
1.450000000000000178e-01 6.045110000000000205e-01 5.647669999999999746e+00 1.278455000000000013e+02 1.479970000000000027e+03
1.459999999999999909e-01 6.045024999999999427e-01 5.510569999999999524e+00 1.278075000000000045e+02 1.479944999999999936e+03
1.469999999999999918e-01 6.044970000000000621e-01 5.395224999999999937e+00 1.277855000000000132e+02 1.479920000000000073e+03
1.479999999999999927e-01 6.044920000000000293e-01 5.296725000000000350e+00 1.277710000000000008e+02 1.479904999999999973e+03
1.489999999999999936e-01 6.044865000000000377e-01 5.210415000000000241e+00 1.277560000000000002e+02 1.479884999999999991e+03
1.499999999999999944e-01 6.044775000000000009e-01 5.132009999999999295e+00 1.277334999999999923e+02 1.479869999999999891e+03
1.509999999999999953e-01 6.044650000000000301e-01 5.057674999999999699e+00 1.276984999999999957e+02 1.479855000000000018e+03
1.519999999999999962e-01 6.044479999999999853e-01 4.984130000000000393e+00 1.276450000000000102e+02 1.479835000000000036e+03
1.529999999999999971e-01 6.044244999999999202e-01 4.908630000000000493e+00 1.275705000000000098e+02 1.479805000000000064e+03
1.539999999999999980e-01 6.043954999999999744e-01 4.829030000000000378e+00 1.274720000000000084e+02 1.479764999999999873e+03
1.549999999999999989e-01 6.043600000000000083e-01 4.743739999999999846e+00 1.273490000000000038e+02 1.479724999999999909e+03
1.559999999999999998e-01 6.043184999999999807e-01 4.651715000000000266e+00 1.272005000000000052e+02 1.479675000000000182e+03
1.570000000000000007e-01 6.042715000000000725e-01 4.552389999999999937e+00 1.270270000000000010e+02 1.479625000000000000e+03
1.580000000000000016e-01 6.042184999999999917e-01 4.445680000000000298e+00 1.268309999999999889e+02 1.479554999999999836e+03
1.590000000000000024e-01 6.041604999999999892e-01 4.331875000000000142e+00 1.266135000000000019e+02 1.479485000000000127e+03
