# t [s], A [cm^2], U [cm/s], P [cPa], c [cm/s]
1.000000000000000021e-03 6.465365000000000695e-01 6.658999999999998254e-03 9.391689999999999827e+01 1.842480000000000018e+03
2.000000000000000042e-03 6.465300000000000491e-01 8.496049999999998048e-03 9.388380000000000791e+01 1.842469999999999800e+03
3.000000000000000062e-03 6.466039999999999566e-01 1.663502000000000036e-01 9.407649999999999579e+01 1.842509999999999991e+03
4.000000000000000083e-03 6.466224999999999890e-01 2.372970000000000079e-01 9.415104999999999791e+01 1.842525000000000091e+03
5.000000000000000104e-03 6.465415000000001022e-01 1.149989999999999901e-01 9.386859999999998649e+01 1.842470000000000027e+03
6.000000000000000125e-03 6.464654999999999152e-01 -1.352000000000003199e-02 9.345799999999999841e+01 1.842384999999999991e+03
7.000000000000000146e-03 6.463619999999999921e-01 -2.149149999999999672e-01 9.287514999999999077e+01 1.842264999999999873e+03
8.000000000000000167e-03 6.461749999999999439e-01 -6.102699999999999791e-01 9.192230000000000700e+01 1.842069999999999936e+03
9.000000000000001055e-03 6.459094999999999143e-01 -1.188579999999999970e+00 9.054949999999999477e+01 1.841795000000000073e+03
1.000000000000000194e-02 6.455355000000000398e-01 -1.991254999999999775e+00 8.863875000000000171e+01 1.841400000000000091e+03
1.099999999999999936e-02 6.450439999999999507e-01 -3.013944999999999652e+00 8.611920000000000641e+01 1.840869999999999891e+03
1.200000000000000025e-02 6.445144999999999902e-01 -4.061125000000000540e+00 8.321799999999998931e+01 1.840250000000000000e+03
1.300000000000000114e-02 6.440649999999999986e-01 -4.837883500000000225e+00 8.039764999999999873e+01 1.839615000000000009e+03
1.400000000000000203e-02 6.437664999999999083e-01 -5.146885000000000154e+00 7.806270000000000664e+01 1.839054999999999836e+03
1.499999999999999944e-02 6.436040000000000649e-01 -4.981494999999999784e+00 7.634995000000000687e+01 1.838599999999999909e+03
1.600000000000000033e-02 6.435035000000000061e-01 -4.489399999999999835e+00 7.511285000000000878e+01 1.838235000000000127e+03
1.700000000000000122e-02 6.433774999999999356e-01 -3.874934999999999796e+00 7.404110000000000014e+01 1.837914999999999964e+03
1.800000000000000211e-02 6.431675000000000031e-01 -3.299310000000000187e+00 7.282710000000000150e+01 1.837570000000000164e+03
1.900000000000000300e-02 6.428644999999999499e-01 -2.818106000000000222e+00 7.130450000000000443e+01 1.837175000000000182e+03
2.000000000000000042e-02 6.425060000000000215e-01 -2.380605000000000082e+00 6.949729999999999563e+01 1.836724999999999909e+03
2.100000000000000130e-02 6.421445000000000070e-01 -1.885864999999999903e+00 6.756440000000000623e+01 1.836250000000000000e+03
2.200000000000000219e-02 6.418205000000000160e-01 -1.257670000000000066e+00 6.568370000000000175e+01 1.835769999999999982e+03
2.299999999999999961e-02 6.415374999999999828e-01 -4.969000000000001194e-01 6.394455000000000666e+01 1.835315000000000055e+03
2.400000000000000050e-02 6.412645000000000151e-01 3.064949999999999619e-01 6.229395000000000238e+01 1.834880000000000109e+03
2.500000000000000139e-02 6.409454999999999458e-01 9.976949999999999985e-01 6.054540000000000077e+01 1.834420000000000073e+03
2.600000000000000228e-02 6.405205000000000481e-01 1.404085000000000250e+00 5.843840000000000146e+01 1.833904999999999973e+03
2.700000000000000316e-02 6.399475000000000025e-01 1.390480000000000160e+00 5.572899999999999920e+01 1.833269999999999982e+03
2.800000000000000058e-02 6.392180000000000639e-01 9.049050000000002925e-01 5.228229999999999933e+01 1.832494999999999891e+03
2.900000000000000147e-02 6.383615000000000261e-01 -2.735000000000376019e-03 4.813129999999999598e+01 1.831565000000000055e+03
3.000000000000000236e-02 6.374404999999999655e-01 -1.197224999999999540e+00 4.347919999999999874e+01 1.830525000000000091e+03
3.099999999999999978e-02 6.365285000000000526e-01 -2.500054999999999694e+00 3.864744999999999919e+01 1.829429999999999836e+03
3.200000000000000067e-02 6.356960000000000388e-01 -3.735829999999999984e+00 3.399784999999999968e+01 1.828349999999999909e+03
3.300000000000000155e-02 6.349940000000000584e-01 -4.766389999999999461e+00 2.985979999999999990e+01 1.827360000000000127e+03
3.400000000000000244e-02 6.344525000000000858e-01 -5.505910000000000082e+00 2.648045000000000115e+01 1.826519999999999982e+03
3.500000000000000333e-02 6.340799999999999770e-01 -5.919604999999999784e+00 2.400419999999999732e+01 1.825864999999999782e+03
3.600000000000000422e-02 6.338714999999999211e-01 -6.010505000000000209e+00 2.247740000000000293e+01 1.825409999999999854e+03
3.700000000000000511e-02 6.338129999999999598e-01 -5.802184999999999704e+00 2.187149999999999750e+01 1.825164999999999964e+03
3.799999999999999906e-02 6.338894999999999946e-01 -5.321595000000000297e+00 2.211475000000000080e+01 1.825119999999999891e+03
3.899999999999999994e-02 6.340870000000000672e-01 -4.587944999999999496e+00 2.312249999999999872e+01 1.825260000000000218e+03
4.000000000000000083e-02 6.343969999999999887e-01 -3.609720000000000262e+00 2.481654999999999944e+01 1.825570000000000164e+03
4.100000000000000172e-02 6.348129999999999606e-01 -2.389369999999999994e+00 2.713090000000000046e+01 1.826029999999999973e+03
4.200000000000000261e-02 6.353269999999999751e-01 -9.323150000000000048e-01 3.000609999999999644e+01 1.826630000000000109e+03
4.300000000000000350e-02 6.359285000000000077e-01 7.443649999999997213e-01 3.337760000000000105e+01 1.827355000000000018e+03
4.400000000000000439e-02 6.366009999999999724e-01 2.606930000000000192e+00 3.716534999999999656e+01 1.828184999999999945e+03
4.499999999999999833e-02 6.373244999999999605e-01 4.605254999999999654e+00 4.126975000000000193e+01 1.829099999999999909e+03
4.599999999999999922e-02 6.380744999999999889e-01 6.677189999999999515e+00 4.557375000000000398e+01 1.830079999999999927e+03
4.700000000000000011e-02 6.388279999999999514e-01 8.756384000000000611e+00 4.995215000000000316e+01 1.831085000000000036e+03
4.800000000000000100e-02 6.395629999999999926e-01 1.077966499999999961e+01 5.428324999999999534e+01 1.832099999999999909e+03
4.900000000000000189e-02 6.402624999999999567e-01 1.269434000000000040e+01 5.846150000000000091e+01 1.833095000000000027e+03
5.000000000000000278e-02 6.409160000000000412e-01 1.446194500000000005e+01 6.240699999999999648e+01 1.834049999999999955e+03
5.100000000000000366e-02 6.415180000000000327e-01 1.606005000000000038e+01 6.607070000000000221e+01 1.834954999999999927e+03
5.200000000000000455e-02 6.420699999999999186e-01 1.748110000000000142e+01 6.943564999999999543e+01 1.835795000000000073e+03
5.300000000000000544e-02 6.425764999999999949e-01 1.873019999999999996e+01 7.251359999999999673e+01 1.836579999999999927e+03
5.399999999999999939e-02 6.430465000000000764e-01 1.982189999999999941e+01 7.533974999999999511e+01 1.837305000000000064e+03
5.500000000000000028e-02 6.434895000000000476e-01 2.077740000000000009e+01 7.796609999999999729e+01 1.837985000000000127e+03
5.600000000000000117e-02 6.439175000000000315e-01 2.162190000000000012e+01 8.045490000000000919e+01 1.838630000000000109e+03
5.700000000000000205e-02 6.443410000000000526e-01 2.238240000000000052e+01 8.287245000000000061e+01 1.839250000000000000e+03
5.800000000000000294e-02 6.447709999999999830e-01 2.308570000000000277e+01 8.528315000000000623e+01 1.839869999999999891e+03
5.900000000000000383e-02 6.452160000000000117e-01 2.375625000000000142e+01 8.774389999999999645e+01 1.840490000000000009e+03
6.000000000000000472e-02 6.456824999999999370e-01 2.441389999999999816e+01 9.029890000000000327e+01 1.841130000000000109e+03
6.099999999999999867e-02 6.461729999999999974e-01 2.507169999999999987e+01 9.297534999999999172e+01 1.841789999999999964e+03
6.199999999999999956e-02 6.466875000000000817e-01 2.573539999999999850e+01 9.578049999999998931e+01 1.842474999999999909e+03
6.300000000000000044e-02 6.472215000000000051e-01 2.640200000000000102e+01 9.870040000000000191e+01 1.843190000000000055e+03
6.400000000000000133e-02 6.477675000000000516e-01 2.706134999999999735e+01 1.017021499999999889e+02 1.843920000000000073e+03
6.500000000000000222e-02 6.483149999999999746e-01 2.769695000000000107e+01 1.047366499999999974e+02 1.844664999999999964e+03
6.600000000000000311e-02 6.488530000000000131e-01 2.828869999999999862e+01 1.077434999999999974e+02 1.845410000000000082e+03
6.700000000000000400e-02 6.493700000000000028e-01 2.881459999999999866e+01 1.106570000000000107e+02 1.846130000000000109e+03
6.800000000000000488e-02 6.498550000000000715e-01 2.925345000000000084e+01 1.134124999999999943e+02 1.846819999999999936e+03
6.900000000000000577e-02 6.502974999999999728e-01 2.958650000000000091e+01 1.159505000000000052e+02 1.847465000000000146e+03
7.000000000000000666e-02 6.506909999999999084e-01 2.979860000000000042e+01 1.182220000000000084e+02 1.848054999999999836e+03
7.100000000000000755e-02 6.510299999999999976e-01 2.987934999999999874e+01 1.201895000000000095e+02 1.848569999999999936e+03
7.200000000000000844e-02 6.513104999999999034e-01 2.982334999999999781e+01 1.218299999999999983e+02 1.849009999999999991e+03
7.300000000000000933e-02 6.515329999999999178e-01 2.963060000000000116e+01 1.231349999999999909e+02 1.849380000000000109e+03
7.399999999999999634e-02 6.516994999999999871e-01 2.930604999999999905e+01 1.241099999999999994e+02 1.849664999999999964e+03
7.499999999999999722e-02 6.518129999999999757e-01 2.885974999999999824e+01 1.247729999999999961e+02 1.849880000000000109e+03
7.599999999999999811e-02 6.518804999999999739e-01 2.830594999999999928e+01 1.251535000000000082e+02 1.850019999999999982e+03
7.699999999999999900e-02 6.519075000000000841e-01 2.766244999999999976e+01 1.252899999999999920e+02 1.850094999999999800e+03
7.799999999999999989e-02 6.519030000000000102e-01 2.694989999999999952e+01 1.252270000000000039e+02 1.850125000000000000e+03
7.900000000000000078e-02 6.518755000000000521e-01 2.619055000000000177e+01 1.250144999999999982e+02 1.850109999999999900e+03
8.000000000000000167e-02 6.518330000000001068e-01 2.540709999999999980e+01 1.247024999999999864e+02 1.850065000000000055e+03
8.100000000000000255e-02 6.517854999999999066e-01 2.462134999999999962e+01 1.243395000000000152e+02 1.850000000000000000e+03
8.200000000000000344e-02 6.517379999999999285e-01 2.385304999999999964e+01 1.239704999999999870e+02 1.849930000000000064e+03
8.300000000000000433e-02 6.516975000000000406e-01 2.311909999999999954e+01 1.236334999999999980e+02 1.849860000000000127e+03
8.400000000000000522e-02 6.516690000000000538e-01 2.243205000000000027e+01 1.233569999999999993e+02 1.849795000000000073e+03
8.500000000000000611e-02 6.516534999999999966e-01 2.180024999999999835e+01 1.231604999999999990e+02 1.849744999999999891e+03
8.600000000000000699e-02 6.516530000000000378e-01 2.122710000000000008e+01 1.230535000000000139e+02 1.849710000000000036e+03
8.700000000000000788e-02 6.516660000000000785e-01 2.071164999999999878e+01 1.230349999999999966e+02 1.849699999999999818e+03
8.800000000000000877e-02 6.516910000000000203e-01 2.024855000000000160e+01 1.230944999999999965e+02 1.849700000000000045e+03
8.899999999999999578e-02 6.517230000000000523e-01 1.982889999999999731e+01 1.232139999999999986e+02 1.849720000000000027e+03
8.999999999999999667e-02 6.517574999999999896e-01 1.944099999999999895e+01 1.233685000000000116e+02 1.849750000000000000e+03
9.099999999999999756e-02 6.517900000000000915e-01 1.907104999999999961e+01 1.235295000000000130e+02 1.849779999999999973e+03
9.199999999999999845e-02 6.518150000000000333e-01 1.870449999999999946e+01 1.236655000000000086e+02 1.849805000000000064e+03
9.299999999999999933e-02 6.518269999999999342e-01 1.832639999999999958e+01 1.237454999999999927e+02 1.849820000000000164e+03
9.400000000000000022e-02 6.518204999999999139e-01 1.792310000000000159e+01 1.237400000000000091e+02 1.849820000000000164e+03
9.500000000000000111e-02 6.517930000000000668e-01 1.748260000000000147e+01 1.236245000000000118e+02 1.849799999999999955e+03
9.600000000000000200e-02 6.517409999999999037e-01 1.699595000000000056e+01 1.233799999999999955e+02 1.849750000000000000e+03
9.700000000000000289e-02 6.516634999999999511e-01 1.645754999999999768e+01 1.229950000000000045e+02 1.849670000000000073e+03
9.800000000000000377e-02 6.515604999999999869e-01 1.586570000000000036e+01 1.224669999999999987e+02 1.849555000000000064e+03
9.900000000000000466e-02 6.514340000000000686e-01 1.522305000000000064e+01 1.218015000000000043e+02 1.849410000000000082e+03
1.000000000000000056e-01 6.512875000000000192e-01 1.453620000000000090e+01 1.210144999999999982e+02 1.849234999999999900e+03
1.010000000000000064e-01 6.511264999999999414e-01 1.381550500000000170e+01 1.201280000000000001e+02 1.849034999999999854e+03
1.020000000000000073e-01 6.509549999999999503e-01 1.307423000000000002e+01 1.191730000000000018e+02 1.848815000000000055e+03
1.030000000000000082e-01 6.507804999999999840e-01 1.232803000000000004e+01 1.181835000000000093e+02 1.848585000000000036e+03
1.040000000000000091e-01 6.506094999999999517e-01 1.159364500000000042e+01 1.171975000000000051e+02 1.848355000000000018e+03
1.050000000000000100e-01 6.504490000000000549e-01 1.088801499999999933e+01 1.162524999999999977e+02 1.848130000000000109e+03
1.059999999999999970e-01 6.503039999999999932e-01 1.022725499999999954e+01 1.153840000000000003e+02 1.847914999999999964e+03
1.069999999999999979e-01 6.501810000000000089e-01 9.625674999999999315e+00 1.146250000000000000e+02 1.847724999999999909e+03
1.079999999999999988e-01 6.500829999999999664e-01 9.094910000000000494e+00 1.140010000000000048e+02 1.847559999999999945e+03
1.089999999999999997e-01 6.500125000000001041e-01 8.643340000000000245e+00 1.135294999999999987e+02 1.847430000000000064e+03
1.100000000000000006e-01 6.499719999999999942e-01 8.275929999999998898e+00 1.132220000000000084e+02 1.847340000000000146e+03
1.110000000000000014e-01 6.499595000000000233e-01 7.993744999999999656e+00 1.130815000000000055e+02 1.847280000000000200e+03
1.120000000000000023e-01 6.499740000000000517e-01 7.794385000000000119e+00 1.131005000000000109e+02 1.847264999999999873e+03
1.130000000000000032e-01 6.500129999999999519e-01 7.672209999999999752e+00 1.132659999999999911e+02 1.847279999999999973e+03
1.140000000000000041e-01 6.500719999999999832e-01 7.618895000000000195e+00 1.135600000000000023e+02 1.847329999999999927e+03
1.150000000000000050e-01 6.501474999999999893e-01 7.624060000000000059e+00 1.139579999999999984e+02 1.847404999999999973e+03
1.160000000000000059e-01 6.502345000000000486e-01 7.675969999999999516e+00 1.144339999999999975e+02 1.847500000000000000e+03
1.170000000000000068e-01 6.503280000000000172e-01 7.762224999999999930e+00 1.149619999999999891e+02 1.847615000000000009e+03
1.180000000000000077e-01 6.504244999999999610e-01 7.870409999999999684e+00 1.155134999999999934e+02 1.847735000000000127e+03
1.190000000000000085e-01 6.505180000000000407e-01 7.988654999999999617e+00 1.160660000000000025e+02 1.847855000000000018e+03
1.200000000000000094e-01 6.506069999999999354e-01 8.106125000000000469e+00 1.165955000000000013e+02 1.847980000000000018e+03
1.209999999999999964e-01 6.506875000000000853e-01 8.213370000000001170e+00 1.170854999999999961e+02 1.848094999999999800e+03
1.219999999999999973e-01 6.507579999999999476e-01 8.302625000000000810e+00 1.175210000000000008e+02 1.848204999999999927e+03
1.229999999999999982e-01 6.508169999999999789e-01 8.367934999999999235e+00 1.178925000000000125e+02 1.848295000000000073e+03
1.239999999999999991e-01 6.508639999999999981e-01 8.405260000000000176e+00 1.181955000000000098e+02 1.848375000000000000e+03
1.250000000000000000e-01 6.508985000000000465e-01 8.412475000000000591e+00 1.184275000000000091e+02 1.848440000000000055e+03
1.260000000000000009e-01 6.509220000000000006e-01 8.389290000000000802e+00 1.185919999999999987e+02 1.848485000000000127e+03
1.270000000000000018e-01 6.509355000000000002e-01 8.337085000000000079e+00 1.186955000000000098e+02 1.848519999999999982e+03
1.280000000000000027e-01 6.509409999999999918e-01 8.258729999999999905e+00 1.187450000000000045e+02 1.848539999999999964e+03
1.290000000000000036e-01 6.509399999999999631e-01 8.158294999999998964e+00 1.187520000000000095e+02 1.848549999999999955e+03
1.300000000000000044e-01 6.509344999999999715e-01 8.040729999999999933e+00 1.187280000000000086e+02 1.848550000000000182e+03
1.310000000000000053e-01 6.509274999999999922e-01 7.911509999999999820e+00 1.186850000000000023e+02 1.848550000000000182e+03
1.320000000000000062e-01 6.509194999999999842e-01 7.776275000000000048e+00 1.186355000000000075e+02 1.848545000000000073e+03
1.330000000000000071e-01 6.509145000000000625e-01 7.640430000000000277e+00 1.185910000000000082e+02 1.848539999999999964e+03
1.340000000000000080e-01 6.509119999999999351e-01 7.508804999999999730e+00 1.185600000000000023e+02 1.848530000000000200e+03
1.350000000000000089e-01 6.509145000000000625e-01 7.385415000000000063e+00 1.185499999999999972e+02 1.848530000000000200e+03
1.360000000000000098e-01 6.509209999999999718e-01 7.273184999999999789e+00 1.185660000000000025e+02 1.848535000000000082e+03
1.370000000000000107e-01 6.509329999999999838e-01 7.173885000000000289e+00 1.186094999999999970e+02 1.848545000000000073e+03
1.380000000000000115e-01 6.509500000000000286e-01 7.088109999999999467e+00 1.186794999999999902e+02 1.848565000000000055e+03
1.390000000000000124e-01 6.509700000000000486e-01 7.015340000000000131e+00 1.187729999999999961e+02 1.848579999999999927e+03
1.400000000000000133e-01 6.509929999999999328e-01 6.954119999999999635e+00 1.188849999999999909e+02 1.848610000000000127e+03
1.410000000000000142e-01 6.510169999999999568e-01 6.902300000000000324e+00 1.190074999999999932e+02 1.848634999999999991e+03
1.420000000000000151e-01 6.510409999999999808e-01 6.857250000000000512e+00 1.191330000000000098e+02 1.848664999999999964e+03
1.430000000000000160e-01 6.510639999999999761e-01 6.816184999999999938e+00 1.192545000000000073e+02 1.848690000000000055e+03
1.440000000000000169e-01 6.510839999999999961e-01 6.776374999999999815e+00 1.193640000000000043e+02 1.848714999999999918e+03
1.450000000000000178e-01 6.511000000000000121e-01 6.735384999999999955e+00 1.194549999999999983e+02 1.848740000000000009e+03
1.459999999999999909e-01 6.511119999999999131e-01 6.691239999999999633e+00 1.195225000000000080e+02 1.848755000000000109e+03
1.469999999999999918e-01 6.511184999999999334e-01 6.642540000000000333e+00 1.195639999999999930e+02 1.848769999999999982e+03
1.479999999999999927e-01 6.511199999999999211e-01 6.588524999999999743e+00 1.195780000000000030e+02 1.848775000000000091e+03
1.489999999999999936e-01 6.511175000000000157e-01 6.529135000000000133e+00 1.195655000000000001e+02 1.848775000000000091e+03
1.499999999999999944e-01 6.511100000000000776e-01 6.464945000000000164e+00 1.195275000000000034e+02 1.848764999999999873e+03
1.509999999999999953e-01 6.510994999999999422e-01 6.397145000000000081e+00 1.194699999999999989e+02 1.848759999999999991e+03
1.519999999999999962e-01 6.510864999999999014e-01 6.327490000000000059e+00 1.193975000000000080e+02 1.848740000000000009e+03
1.529999999999999971e-01 6.510730000000000128e-01 6.258174999999999599e+00 1.193160000000000025e+02 1.848724999999999909e+03
1.539999999999999980e-01 6.510590000000000543e-01 6.191760000000000375e+00 1.192344999999999970e+02 1.848704999999999927e+03
1.549999999999999989e-01 6.510470000000000423e-01 6.131035000000000679e+00 1.191589999999999918e+02 1.848684999999999945e+03
1.559999999999999998e-01 6.510374999999999357e-01 6.078899999999999970e+00 1.190989999999999895e+02 1.848670000000000073e+03
1.570000000000000007e-01 6.510325000000000140e-01 6.038174999999999848e+00 1.190610000000000070e+02 1.848659999999999854e+03
1.580000000000000016e-01 6.510329999999999728e-01 6.011530000000000484e+00 1.190519999999999925e+02 1.848654999999999973e+03
1.590000000000000024e-01 6.510405000000000220e-01 6.001250000000000639e+00 1.190790000000000077e+02 1.848659999999999854e+03
