# t [s], A [cm^2], U [cm/s], P [cPa], c [cm/s]
1.000000000000000021e-03 6.075325000000000308e-01 3.722900000000001208e-03 9.243665000000000020e+01 1.525944999999999936e+03
2.000000000000000042e-03 6.075239999999999529e-01 -1.501130000000000042e-03 9.241974999999999341e+01 1.525940000000000055e+03
3.000000000000000062e-03 6.075459999999999194e-01 3.500985000000000208e-02 9.245400000000000773e+01 1.525944999999999936e+03
4.000000000000000083e-03 6.075960000000000250e-01 1.180007999999999890e-01 9.255525000000000091e+01 1.525974999999999909e+03
5.000000000000000104e-03 6.076129999999999587e-01 1.559035500000000019e-01 9.260339999999999350e+01 1.525989999999999782e+03
6.000000000000000125e-03 6.075825000000000253e-01 1.168468499999999882e-01 9.253460000000001173e+01 1.525974999999999909e+03
7.000000000000000146e-03 6.075399999999999689e-01 5.430099999999998817e-02 9.239410000000000878e+01 1.525944999999999936e+03
8.000000000000000167e-03 6.075045000000000028e-01 3.334999999999865850e-04 9.222740000000000293e+01 1.525904999999999973e+03
9.000000000000001055e-03 6.074530000000000207e-01 -8.820899999999998187e-02 9.199504999999999200e+01 1.525849999999999909e+03
1.000000000000000194e-02 6.073655000000000026e-01 -2.476599999999999357e-01 9.164629999999999654e+01 1.525775000000000091e+03
1.099999999999999936e-02 6.072370000000000267e-01 -4.888950000000000795e-01 9.114924999999999500e+01 1.525654999999999973e+03
1.200000000000000025e-02 6.070569999999999578e-01 -8.256949999999999568e-01 9.046569999999999823e+01 1.525500000000000000e+03
1.300000000000000114e-02 6.068154999999999522e-01 -1.266729999999999912e+00 8.955915000000000248e+01 1.525285000000000082e+03
1.400000000000000203e-02 6.065210000000000878e-01 -1.786200000000000010e+00 8.843289999999998940e+01 1.525009999999999991e+03
1.499999999999999944e-02 6.062024999999999775e-01 -2.317619999999999791e+00 8.714754999999999541e+01 1.524700000000000045e+03
1.600000000000000033e-02 6.058964999999999490e-01 -2.778424999999999923e+00 8.580055000000000121e+01 1.524355000000000018e+03
1.700000000000000122e-02 6.056269999999999154e-01 -3.102161499999999794e+00 8.448689999999999145e+01 1.524009999999999991e+03
1.800000000000000211e-02 6.054029999999999134e-01 -3.257231500000000057e+00 8.326895000000000380e+01 1.523674999999999955e+03
1.900000000000000300e-02 6.052159999999999762e-01 -3.247807500000000402e+00 8.216460000000000719e+01 1.523355000000000018e+03
2.000000000000000042e-02 6.050474999999999604e-01 -3.103130999999999862e+00 8.115409999999999968e+01 1.523050000000000182e+03
2.100000000000000130e-02 6.048759999999999692e-01 -2.862834149999999855e+00 8.019480000000000075e+01 1.522744999999999891e+03
2.200000000000000219e-02 6.046860000000000568e-01 -2.563608000000000331e+00 7.923879999999999768e+01 1.522450000000000045e+03
2.299999999999999961e-02 6.044694999999999929e-01 -2.230069499999999927e+00 7.824854999999999450e+01 1.522139999999999873e+03
2.400000000000000050e-02 6.042274999999999174e-01 -1.871035000000000004e+00 7.720609999999999218e+01 1.521819999999999936e+03
2.500000000000000139e-02 6.039664999999999617e-01 -1.481470000000000065e+00 7.611484999999998990e+01 1.521484999999999900e+03
2.600000000000000228e-02 6.036985000000000268e-01 -1.048920000000000075e+00 7.499475000000001046e+01 1.521139999999999873e+03
2.700000000000000316e-02 6.034325000000000383e-01 -5.619649999999998258e-01 7.387205000000000155e+01 1.520795000000000073e+03
2.800000000000000058e-02 6.031735000000000291e-01 -1.777000000000006352e-02 7.276834999999999809e+01 1.520449999999999818e+03
2.900000000000000147e-02 6.029214999999999991e-01 5.734350000000001391e-01 7.169180000000000064e+01 1.520110000000000127e+03
3.000000000000000236e-02 6.026694999999999691e-01 1.187879999999999825e+00 7.063329999999999131e+01 1.519779999999999973e+03
3.099999999999999978e-02 6.024059999999999970e-01 1.791380000000000194e+00 6.956700000000000728e+01 1.519440000000000055e+03
3.200000000000000067e-02 6.021179999999999310e-01 2.344985000000000319e+00 6.845600000000000307e+01 1.519095000000000027e+03
3.300000000000000155e-02 6.017940000000000511e-01 2.811850000000000627e+00 6.726040000000000418e+01 1.518735000000000127e+03
3.400000000000000244e-02 6.014280000000000737e-01 3.163825000000000109e+00 6.594650000000000034e+01 1.518345000000000027e+03
3.500000000000000333e-02 6.010174999999999823e-01 3.386395000000000266e+00 6.449559999999999604e+01 1.517930000000000064e+03
3.600000000000000422e-02 6.005689999999999085e-01 3.480919999999999792e+00 6.290955000000000297e+01 1.517480000000000018e+03
3.700000000000000511e-02 6.000950000000000450e-01 3.463644999999999641e+00 6.121205000000000496e+01 1.517005000000000109e+03
3.799999999999999906e-02 5.996110000000000051e-01 3.362120000000000442e+00 5.944624999999999915e+01 1.516514999999999873e+03
3.899999999999999994e-02 5.991355000000000430e-01 3.209729999999999972e+00 5.766849999999999454e+01 1.516019999999999982e+03
4.000000000000000083e-02 5.986845000000000638e-01 3.040575000000000028e+00 5.594079999999999586e+01 1.515529999999999973e+03
4.100000000000000172e-02 5.982735000000000136e-01 2.885004999999999598e+00 5.432394999999999641e+01 1.515065000000000055e+03
4.200000000000000261e-02 5.979129999999999168e-01 2.767030000000000101e+00 5.287140000000000128e+01 1.514644999999999982e+03
4.300000000000000350e-02 5.976110000000000033e-01 2.703635000000000232e+00 5.162615000000000265e+01 1.514269999999999982e+03
4.400000000000000439e-02 5.973714999999999442e-01 2.705540000000000056e+00 5.061939999999999884e+01 1.513960000000000036e+03
4.499999999999999833e-02 5.971954999999999902e-01 2.778903000000000123e+00 4.987160000000000082e+01 1.513710000000000036e+03
4.599999999999999922e-02 5.970855000000000468e-01 2.927430000000000199e+00 4.939454999999999529e+01 1.513539999999999964e+03
4.700000000000000011e-02 5.970400000000000151e-01 3.154309999999999725e+00 4.919379999999999598e+01 1.513434999999999945e+03
4.800000000000000100e-02 5.970610000000000639e-01 3.463565000000000005e+00 4.927159999999999940e+01 1.513414999999999964e+03
4.900000000000000189e-02 5.971480000000000121e-01 3.860624999999999751e+00 4.962869999999999493e+01 1.513464999999999918e+03
5.000000000000000278e-02 5.973019999999999996e-01 4.352050000000000196e+00 5.026510000000000389e+01 1.513595000000000027e+03
5.100000000000000366e-02 5.975245000000000140e-01 4.944620000000000459e+00 5.118035000000000423e+01 1.513805000000000064e+03
5.200000000000000455e-02 5.978149999999999853e-01 5.644025000000000070e+00 5.237260000000000559e+01 1.514090000000000146e+03
5.300000000000000544e-02 5.981730000000000658e-01 6.453520000000000145e+00 5.383709999999999951e+01 1.514454999999999927e+03
5.399999999999999939e-02 5.985959999999999059e-01 7.372874999999999623e+00 5.556525000000000603e+01 1.514894999999999982e+03
5.500000000000000028e-02 5.990794999999999870e-01 8.397655000000000314e+00 5.754330000000000211e+01 1.515404999999999973e+03
5.600000000000000117e-02 5.996179999999999843e-01 9.519140000000000157e+00 5.975185000000000457e+01 1.515985000000000127e+03
5.700000000000000205e-02 6.002039999999999598e-01 1.072484000000000037e+01 6.216604999999999848e+01 1.516619999999999891e+03
5.800000000000000294e-02 6.008299999999999752e-01 1.199910500000000013e+01 6.475639999999999930e+01 1.517315000000000055e+03
5.900000000000000383e-02 6.014865000000000350e-01 1.332430499999999896e+01 6.749014999999999986e+01 1.518049999999999955e+03
6.000000000000000472e-02 6.021649999999999503e-01 1.468200999999999823e+01 7.033259999999999934e+01 1.518829999999999927e+03
6.099999999999999867e-02 6.028575000000000461e-01 1.605402499999999932e+01 7.324895000000000778e+01 1.519634999999999991e+03
6.199999999999999956e-02 6.035554999999999115e-01 1.742339499999999930e+01 7.620615000000000805e+01 1.520454999999999927e+03
6.300000000000000044e-02 6.042534999999999989e-01 1.877495000000000047e+01 7.917414999999999736e+01 1.521289999999999964e+03
6.400000000000000133e-02 6.049454999999999139e-01 2.009594999999999843e+01 8.212669999999999959e+01 1.522130000000000109e+03
6.500000000000000222e-02 6.056274999999999853e-01 2.137614999999999910e+01 8.504255000000000564e+01 1.522960000000000036e+03
6.600000000000000311e-02 6.062969999999999748e-01 2.260749999999999815e+01 8.790500000000000114e+01 1.523789999999999964e+03
6.700000000000000400e-02 6.069510000000000183e-01 2.378430000000000177e+01 9.070230000000000814e+01 1.524605000000000018e+03
6.800000000000000488e-02 6.075895000000000046e-01 2.490265000000000128e+01 9.342685000000000173e+01 1.525405000000000200e+03
6.900000000000000577e-02 6.082125000000000448e-01 2.596010000000000062e+01 9.607439999999999714e+01 1.526184999999999945e+03
7.000000000000000666e-02 6.088180000000000813e-01 2.695524999999999949e+01 9.864390000000000214e+01 1.526945000000000164e+03
7.100000000000000755e-02 6.094085000000000196e-01 2.788749999999999574e+01 1.011365499999999997e+02 1.527690000000000055e+03
7.200000000000000844e-02 6.099840000000000817e-01 2.875659999999999883e+01 1.035538500000000113e+02 1.528414999999999964e+03
7.300000000000000933e-02 6.105439999999999756e-01 2.956250000000000000e+01 1.058989499999999992e+02 1.529119999999999891e+03
7.399999999999999634e-02 6.110895000000000632e-01 3.030505000000000138e+01 1.081735000000000042e+02 1.529805000000000064e+03
7.499999999999999722e-02 6.116205000000000114e-01 3.098389999999999844e+01 1.103785000000000025e+02 1.530474999999999909e+03
7.599999999999999811e-02 6.121360000000000134e-01 3.159844999999999970e+01 1.125155000000000030e+02 1.531125000000000000e+03
7.699999999999999900e-02 6.126365000000000283e-01 3.214780000000000371e+01 1.145825000000000102e+02 1.531755000000000109e+03
7.799999999999999989e-02 6.131199999999999983e-01 3.263080000000000069e+01 1.165780000000000030e+02 1.532365000000000009e+03
7.900000000000000078e-02 6.135859999999999648e-01 3.304630000000000223e+01 1.184975000000000023e+02 1.532954999999999927e+03
8.000000000000000167e-02 6.140324999999999811e-01 3.339294999999999902e+01 1.203369999999999891e+02 1.533525000000000091e+03
8.100000000000000255e-02 6.144585000000000186e-01 3.366980000000000217e+01 1.220909999999999940e+02 1.534065000000000055e+03
8.200000000000000344e-02 6.148625000000000895e-01 3.387610000000000099e+01 1.237545000000000073e+02 1.534585000000000036e+03
8.300000000000000433e-02 6.152444999999999720e-01 3.401174999999999926e+01 1.253215000000000003e+02 1.535079999999999927e+03
8.400000000000000522e-02 6.156014999999999127e-01 3.407699999999999818e+01 1.267874999999999943e+02 1.535539999999999964e+03
8.500000000000000611e-02 6.159335000000000226e-01 3.407264999999999588e+01 1.281485000000000127e+02 1.535970000000000027e+03
8.600000000000000699e-02 6.162395000000000511e-01 3.400005000000000166e+01 1.294005000000000223e+02 1.536375000000000000e+03
8.700000000000000788e-02 6.165205000000000268e-01 3.386124999999999829e+01 1.305425000000000182e+02 1.536750000000000000e+03
8.800000000000000877e-02 6.167740000000000444e-01 3.365840000000000032e+01 1.315720000000000027e+02 1.537090000000000146e+03
8.899999999999999578e-02 6.170014999999999805e-01 3.339424999999999955e+01 1.324884999999999877e+02 1.537394999999999982e+03
8.999999999999999667e-02 6.172024999999999872e-01 3.307184999999999775e+01 1.332934999999999945e+02 1.537670000000000073e+03
9.099999999999999756e-02 6.173785000000000522e-01 3.269435000000000002e+01 1.339869999999999948e+02 1.537909999999999854e+03
9.199999999999999845e-02 6.175285000000000357e-01 3.226534999999999798e+01 1.345729999999999791e+02 1.538119999999999891e+03
9.299999999999999933e-02 6.176534999999999664e-01 3.178870000000000218e+01 1.350529999999999973e+02 1.538295000000000073e+03
9.400000000000000022e-02 6.177550000000000541e-01 3.126859999999999928e+01 1.354320000000000164e+02 1.538440000000000055e+03
9.500000000000000111e-02 6.178334999999999244e-01 3.070949999999999847e+01 1.357139999999999986e+02 1.538555000000000064e+03
9.600000000000000200e-02 6.178904999999998982e-01 3.011639999999999873e+01 1.359050000000000011e+02 1.538644999999999982e+03
9.700000000000000289e-02 6.179280000000000328e-01 2.949450000000000216e+01 1.360129999999999768e+02 1.538704999999999927e+03
9.800000000000000377e-02 6.179479999999999418e-01 2.884924999999999784e+01 1.360430000000000064e+02 1.538744999999999891e+03
9.900000000000000466e-02 6.179520000000000568e-01 2.818655000000000044e+01 1.360049999999999955e+02 1.538759999999999991e+03
1.000000000000000056e-01 6.179419999999999913e-01 2.751214999999999833e+01 1.359070000000000107e+02 1.538755000000000109e+03
1.010000000000000064e-01 6.179200000000000248e-01 2.683174999999999955e+01 1.357584999999999980e+02 1.538735000000000127e+03
1.020000000000000073e-01 6.178889999999999105e-01 2.615099999999999980e+01 1.355680000000000121e+02 1.538695000000000164e+03
1.030000000000000082e-01 6.178500000000000103e-01 2.547484999999999999e+01 1.353449999999999989e+02 1.538650000000000091e+03
1.040000000000000091e-01 6.178050000000000486e-01 2.480774999999999864e+01 1.350980000000000132e+02 1.538590000000000146e+03
1.050000000000000100e-01 6.177565000000000417e-01 2.415350000000000108e+01 1.348329999999999984e+02 1.538525000000000091e+03
1.059999999999999970e-01 6.177049999999999486e-01 2.351484999999999914e+01 1.345584999999999809e+02 1.538450000000000045e+03
1.069999999999999979e-01 6.176515000000000200e-01 2.289375000000000071e+01 1.342785000000000082e+02 1.538375000000000000e+03
1.079999999999999988e-01 6.175964999999999927e-01 2.229104999999999848e+01 1.339959999999999809e+02 1.538295000000000073e+03
1.089999999999999997e-01 6.175405000000000477e-01 2.170694999999999908e+01 1.337135000000000105e+02 1.538210000000000036e+03
1.100000000000000006e-01 6.174839999999999218e-01 2.114045000000000130e+01 1.334325000000000045e+02 1.538130000000000109e+03
1.110000000000000014e-01 6.174254999999999605e-01 2.059004999999999797e+01 1.331519999999999868e+02 1.538049999999999955e+03
1.120000000000000023e-01 6.173655000000000115e-01 2.005359999999999943e+01 1.328709999999999809e+02 1.537964999999999918e+03
1.130000000000000032e-01 6.173029999999999351e-01 1.952844999999999942e+01 1.325869999999999891e+02 1.537880000000000109e+03
1.140000000000000041e-01 6.172370000000000356e-01 1.901160000000000139e+01 1.322964999999999804e+02 1.537789999999999964e+03
1.150000000000000050e-01 6.171670000000000211e-01 1.849994999999999834e+01 1.319960000000000093e+02 1.537700000000000045e+03
1.160000000000000059e-01 6.170919999999999739e-01 1.799030000000000129e+01 1.316829999999999927e+02 1.537605000000000018e+03
1.170000000000000068e-01 6.170124999999999638e-01 1.747975000000000279e+01 1.313530000000000086e+02 1.537509999999999991e+03
1.180000000000000077e-01 6.169264999999999333e-01 1.696529999999999916e+01 1.310039999999999907e+02 1.537400000000000091e+03
1.190000000000000085e-01 6.168335000000000345e-01 1.644470000000000098e+01 1.306329999999999814e+02 1.537295000000000073e+03
1.200000000000000094e-01 6.167340000000000044e-01 1.591580000000000084e+01 1.302390000000000043e+02 1.537180000000000064e+03
1.209999999999999964e-01 6.166285000000000238e-01 1.537705000000000055e+01 1.298199999999999932e+02 1.537059999999999945e+03
1.219999999999999973e-01 6.165159999999999529e-01 1.482750000000000057e+01 1.293770000000000095e+02 1.536934999999999945e+03
1.229999999999999982e-01 6.163980000000000015e-01 1.426675000000000004e+01 1.289104999999999848e+02 1.536800000000000182e+03
1.239999999999999991e-01 6.162745000000000584e-01 1.369510499999999809e+01 1.284230000000000018e+02 1.536659999999999854e+03
1.250000000000000000e-01 6.161465000000000414e-01 1.311332000000000164e+01 1.279159999999999968e+02 1.536514999999999873e+03
1.260000000000000009e-01 6.160155000000000491e-01 1.252286000000000143e+01 1.273940000000000055e+02 1.536365000000000009e+03
1.270000000000000018e-01 6.158820000000000405e-01 1.192567000000000021e+01 1.268619999999999948e+02 1.536215000000000146e+03
1.280000000000000027e-01 6.157479999999999620e-01 1.132428999999999952e+01 1.263250000000000028e+02 1.536059999999999945e+03
1.290000000000000036e-01 6.156150000000000233e-01 1.072156999999999982e+01 1.257880000000000109e+02 1.535904999999999973e+03
1.300000000000000044e-01 6.154844999999999899e-01 1.012068000000000012e+01 1.252579999999999956e+02 1.535750000000000000e+03
1.310000000000000053e-01 6.153580000000000716e-01 9.525104999999999933e+00 1.247404999999999973e+02 1.535599999999999909e+03
1.320000000000000062e-01 6.152374999999999927e-01 8.938320000000000931e+00 1.242429999999999950e+02 1.535454999999999927e+03
1.330000000000000071e-01 6.151235000000000452e-01 8.363945000000001073e+00 1.237704999999999984e+02 1.535315000000000055e+03
1.340000000000000080e-01 6.150185000000000235e-01 7.805310000000000414e+00 1.233290000000000077e+02 1.535184999999999945e+03
1.350000000000000089e-01 6.149225000000000385e-01 7.265670000000000073e+00 1.229240000000000066e+02 1.535059999999999945e+03
1.360000000000000098e-01 6.148375000000000368e-01 6.747865000000000002e+00 1.225594999999999999e+02 1.534954999999999927e+03
1.370000000000000107e-01 6.147635000000000183e-01 6.254355000000000331e+00 1.222390000000000043e+02 1.534849999999999909e+03
1.380000000000000115e-01 6.147015000000000118e-01 5.787115000000000009e+00 1.219650000000000034e+02 1.534764999999999873e+03
1.390000000000000124e-01 6.146510000000000584e-01 5.347590000000000288e+00 1.217390000000000043e+02 1.534684999999999945e+03
1.400000000000000133e-01 6.146130000000000759e-01 4.936659999999999826e+00 1.215614999999999952e+02 1.534625000000000000e+03
1.410000000000000142e-01 6.145860000000000767e-01 4.554649999999999643e+00 1.214314999999999998e+02 1.534579999999999927e+03
1.420000000000000151e-01 6.145704999999999085e-01 4.201324999999999754e+00 1.213474999999999966e+02 1.534539999999999964e+03
1.430000000000000160e-01 6.145644999999999580e-01 3.875950000000000006e+00 1.213064999999999998e+02 1.534514999999999873e+03
1.440000000000000169e-01 6.145685000000000731e-01 3.577339999999999964e+00 1.213050000000000068e+02 1.534505000000000109e+03
1.450000000000000178e-01 6.145800000000000152e-01 3.303919999999999746e+00 1.213385000000000105e+02 1.534509999999999991e+03
1.459999999999999909e-01 6.145985000000000475e-01 3.053819999999999979e+00 1.214020000000000010e+02 1.534515000000000100e+03
1.469999999999999918e-01 6.146224999999999605e-01 2.824924999999999908e+00 1.214909999999999997e+02 1.534534999999999854e+03
1.479999999999999927e-01 6.146510000000000584e-01 2.615005000000000024e+00 1.215995000000000061e+02 1.534554999999999836e+03
1.489999999999999936e-01 6.146829999999999794e-01 2.421730000000000160e+00 1.217224999999999966e+02 1.534579999999999927e+03
1.499999999999999944e-01 6.147160000000000402e-01 2.242795000000000094e+00 1.218539999999999992e+02 1.534610000000000127e+03
1.509999999999999953e-01 6.147500000000000187e-01 2.075924999999999798e+00 1.219904999999999973e+02 1.534644999999999982e+03
1.519999999999999962e-01 6.147834999999999273e-01 1.918960000000000221e+00 1.221260000000000048e+02 1.534679999999999836e+03
1.529999999999999971e-01 6.148154999999999593e-01 1.769880000000000120e+00 1.222574999999999932e+02 1.534720000000000027e+03
1.539999999999999980e-01 6.148454999999999337e-01 1.626829999999999998e+00 1.223804999999999978e+02 1.534750000000000000e+03
1.549999999999999989e-01 6.148724999999999330e-01 1.488140000000000018e+00 1.224915000000000020e+02 1.534779999999999973e+03
1.559999999999999998e-01 6.148959999999999981e-01 1.352354999999999974e+00 1.225889999999999986e+02 1.534804999999999836e+03
1.570000000000000007e-01 6.149160000000000181e-01 1.218224999999999891e+00 1.226700000000000017e+02 1.534829999999999927e+03
1.580000000000000016e-01 6.149314999999999642e-01 1.084722999999999882e+00 1.227334999999999923e+02 1.534849999999999909e+03
1.590000000000000024e-01 6.149419999999999886e-01 9.510549999999999837e-01 1.227775000000000034e+02 1.534865000000000009e+03
