# t [s], A [cm^2], U [cm/s], P [cPa], c [cm/s]
1.000000000000000021e-03 7.537305000000000810e-01 5.048499999999997434e-03 9.156454999999999700e+01 1.676634999999999991e+03
2.000000000000000042e-03 7.537199999999999456e-01 2.126299999999999371e-03 9.153374999999999773e+01 1.676634999999999991e+03
3.000000000000000062e-03 7.538009999999999433e-01 1.342169999999999752e-01 9.167789999999999395e+01 1.676664999999999964e+03
4.000000000000000083e-03 7.538439999999999586e-01 2.238378500000000049e-01 9.178149999999999409e+01 1.676684999999999945e+03
5.000000000000000104e-03 7.537754999999999317e-01 1.489890000000000381e-01 9.162305000000000632e+01 1.676650000000000091e+03
6.000000000000000125e-03 7.536819999999999631e-01 2.433400000000002228e-02 9.130289999999999395e+01 1.676585000000000036e+03
7.000000000000000146e-03 7.535859999999999781e-01 -1.170050000000000257e-01 9.089034999999999798e+01 1.676494999999999891e+03
8.000000000000000167e-03 7.534119999999999706e-01 -3.993249999999999300e-01 9.023169999999998936e+01 1.676355000000000018e+03
9.000000000000001055e-03 7.531484999999999985e-01 -8.424249999999999794e-01 8.925319999999999254e+01 1.676150000000000091e+03
1.000000000000000194e-02 7.527885000000000826e-01 -1.446759999999999824e+00 8.790694999999999482e+01 1.675859999999999900e+03
1.099999999999999936e-02 7.523009999999999975e-01 -2.243774999999999853e+00 8.610255000000000791e+01 1.675470000000000027e+03
1.200000000000000025e-02 7.516990000000000061e-01 -3.186564999999999870e+00 8.384399999999999409e+01 1.674964999999999918e+03
1.300000000000000114e-02 7.510749999999999371e-01 -4.096804999999999808e+00 8.133799999999999386e+01 1.674400000000000091e+03
1.400000000000000203e-02 7.505414999999999726e-01 -4.752586499999999603e+00 7.891515000000001123e+01 1.673819999999999936e+03
1.499999999999999944e-02 7.501625000000000654e-01 -5.010348000000000468e+00 7.685560000000000969e+01 1.673295000000000073e+03
1.600000000000000033e-02 7.499295000000000266e-01 -4.858884999999999899e+00 7.527039999999999509e+01 1.672860000000000127e+03
1.700000000000000122e-02 7.497774999999999856e-01 -4.398880000000000123e+00 7.408584999999999354e+01 1.672500000000000000e+03
1.800000000000000211e-02 7.496234999999999982e-01 -3.784100000000000019e+00 7.310349999999999682e+01 1.672190000000000055e+03
1.900000000000000300e-02 7.494000000000000661e-01 -3.155809999999999782e+00 7.209520000000000550e+01 1.671869999999999891e+03
2.000000000000000042e-02 7.490780000000000216e-01 -2.592724299999999982e+00 7.089490000000000691e+01 1.671525000000000091e+03
2.100000000000000130e-02 7.486729999999999219e-01 -2.094454999999999956e+00 6.945279999999999632e+01 1.671134999999999991e+03
2.200000000000000219e-02 7.482294999999999918e-01 -1.603760000000000074e+00 6.782954999999999757e+01 1.670704999999999927e+03
2.299999999999999961e-02 7.477934999999999999e-01 -1.052810000000000024e+00 6.614170000000000016e+01 1.670259999999999991e+03
2.400000000000000050e-02 7.473910000000000275e-01 -4.074900000000001299e-01 6.449094999999999800e+01 1.669815000000000055e+03
2.500000000000000139e-02 7.470155000000000545e-01 3.084800000000003095e-01 6.291089999999999804e+01 1.669380000000000109e+03
2.600000000000000228e-02 7.466329999999999911e-01 1.014034999999999798e+00 6.134565000000000623e+01 1.668950000000000045e+03
2.700000000000000316e-02 7.461900000000000199e-01 1.590775000000000050e+00 5.966285000000000593e+01 1.668494999999999891e+03
2.800000000000000058e-02 7.456350000000000477e-01 1.914324999999999832e+00 5.769115000000000038e+01 1.667980000000000018e+03
2.900000000000000147e-02 7.449289999999999523e-01 1.888649999999999718e+00 5.527304999999999779e+01 1.667380000000000109e+03
3.000000000000000236e-02 7.440629999999999189e-01 1.473785000000000345e+00 5.231680000000000064e+01 1.666660000000000082e+03
3.099999999999999978e-02 7.430609999999999715e-01 6.983049999999995094e-01 4.883214999999999861e+01 1.665835000000000036e+03
3.200000000000000067e-02 7.419755000000000100e-01 -3.478000000000003311e-01 4.493670000000000186e+01 1.664909999999999854e+03
3.300000000000000155e-02 7.408755000000000202e-01 -1.536109999999999864e+00 4.083435000000000059e+01 1.663924999999999955e+03
3.400000000000000244e-02 7.398314999999999753e-01 -2.728145000000000042e+00 3.677374999999999972e+01 1.662940000000000055e+03
3.500000000000000333e-02 7.389034999999999354e-01 -3.800695000000000157e+00 3.300480000000000302e+01 1.662000000000000000e+03
3.600000000000000422e-02 7.381355000000000555e-01 -4.661215000000000330e+00 2.974164999999999992e+01 1.661154999999999973e+03
3.700000000000000511e-02 7.375519999999999854e-01 -5.253047000000000466e+00 2.714025000000000176e+01 1.660454999999999927e+03
3.799999999999999906e-02 7.371609999999999552e-01 -5.552464999999999762e+00 2.529035000000000011e+01 1.659914999999999964e+03
3.899999999999999994e-02 7.369585000000000719e-01 -5.560080000000000133e+00 2.422010000000000218e+01 1.659559999999999945e+03
4.000000000000000083e-02 7.369319999999999204e-01 -5.290380000000000749e+00 2.391020000000000323e+01 1.659384999999999991e+03
4.100000000000000172e-02 7.370669999999999167e-01 -4.762005000000000265e+00 2.431125000000000114e+01 1.659384999999999991e+03
4.200000000000000261e-02 7.373490000000000322e-01 -3.991364999999999608e+00 2.536054999999999993e+01 1.659549999999999955e+03
4.300000000000000350e-02 7.377659999999999219e-01 -2.990669999999999717e+00 2.699360000000000070e+01 1.659865000000000009e+03
4.400000000000000439e-02 7.383060000000000178e-01 -1.770015000000000338e+00 2.914920000000000044e+01 1.660315000000000055e+03
4.499999999999999833e-02 7.389580000000000037e-01 -3.418950000000000600e-01 3.176805000000000234e+01 1.660894999999999982e+03
4.599999999999999922e-02 7.397065000000000445e-01 1.274140000000000050e+00 3.478860000000000241e+01 1.661575000000000045e+03
4.700000000000000011e-02 7.405355000000000132e-01 3.048420000000000130e+00 3.814189999999999969e+01 1.662349999999999909e+03
4.800000000000000100e-02 7.414214999999999556e-01 4.940839999999999677e+00 4.174940000000000140e+01 1.663200000000000045e+03
4.900000000000000189e-02 7.423420000000000574e-01 6.903000000000000469e+00 4.552340000000000231e+01 1.664099999999999909e+03
5.000000000000000278e-02 7.432710000000000150e-01 8.882297900000001079e+00 4.937115000000000009e+01 1.665029999999999973e+03
5.100000000000000366e-02 7.441865000000000840e-01 1.082692000000000121e+01 5.320090000000000430e+01 1.665974999999999909e+03
5.200000000000000455e-02 7.450689999999999813e-01 1.269023999999999930e+01 5.692900000000000205e+01 1.666910000000000082e+03
5.300000000000000544e-02 7.459020000000000650e-01 1.443471999999999866e+01 6.048635000000000161e+01 1.667815000000000055e+03
5.399999999999999939e-02 7.466779999999999529e-01 1.603369999999999962e+01 6.382269999999999754e+01 1.668679999999999836e+03
5.500000000000000028e-02 7.473935000000000439e-01 1.747200000000000131e+01 6.690954999999999586e+01 1.669494999999999891e+03
5.600000000000000117e-02 7.480480000000000462e-01 1.874555000000000149e+01 6.973919999999999675e+01 1.670250000000000000e+03
5.700000000000000205e-02 7.486490000000000089e-01 1.985904999999999987e+01 7.232319999999999993e+01 1.670954999999999927e+03
5.800000000000000294e-02 7.492039999999999811e-01 2.082455000000000211e+01 7.468895000000000550e+01 1.671605000000000018e+03
5.900000000000000383e-02 7.497240000000000570e-01 2.165944999999999965e+01 7.687534999999999741e+01 1.672204999999999927e+03
6.000000000000000472e-02 7.502204999999999568e-01 2.238454999999999728e+01 7.892879999999999541e+01 1.672775000000000091e+03
6.099999999999999867e-02 7.507055000000000256e-01 2.302280000000000015e+01 8.089969999999999573e+01 1.673325000000000045e+03
6.199999999999999956e-02 7.511909999999999421e-01 2.359769999999999968e+01 8.283840000000000714e+01 1.673855000000000018e+03
6.300000000000000044e-02 7.516874999999999529e-01 2.413199999999999790e+01 8.479194999999999993e+01 1.674389999999999873e+03
6.400000000000000133e-02 7.522039999999999837e-01 2.464620000000000033e+01 8.680095000000000027e+01 1.674930000000000064e+03
6.500000000000000222e-02 7.527459999999999152e-01 2.515684999999999860e+01 8.889629999999999654e+01 1.675485000000000127e+03
6.600000000000000311e-02 7.533170000000000144e-01 2.567555000000000121e+01 9.109714999999999918e+01 1.676065000000000055e+03
6.700000000000000400e-02 7.539169999999999483e-01 2.620790000000000219e+01 9.340879999999999939e+01 1.676664999999999964e+03
6.800000000000000488e-02 7.545410000000000172e-01 2.675290000000000035e+01 9.582210000000000605e+01 1.677289999999999964e+03
6.900000000000000577e-02 7.551824999999999788e-01 2.730360000000000298e+01 9.831435000000000457e+01 1.677940000000000055e+03
7.000000000000000666e-02 7.558304999999999607e-01 2.784769999999999968e+01 1.008503499999999917e+02 1.678594999999999800e+03
7.100000000000000755e-02 7.564744999999999386e-01 2.836874999999999858e+01 1.033865499999999997e+02 1.679255000000000109e+03
7.200000000000000844e-02 7.571004999999999541e-01 2.884819999999999851e+01 1.058725000000000023e+02 1.679900000000000091e+03
7.300000000000000933e-02 7.576964999999999950e-01 2.926640000000000086e+01 1.082564999999999884e+02 1.680534999999999854e+03
7.399999999999999634e-02 7.582499999999999796e-01 2.960490000000000066e+01 1.104890000000000043e+02 1.681130000000000109e+03
7.499999999999999722e-02 7.587515000000000231e-01 2.984709999999999752e+01 1.125245000000000033e+02 1.681684999999999945e+03
7.599999999999999811e-02 7.591915000000000191e-01 2.997964999999999947e+01 1.143245000000000005e+02 1.682180000000000064e+03
7.699999999999999900e-02 7.595655000000000046e-01 2.999314999999999998e+01 1.158624999999999972e+02 1.682614999999999782e+03
7.799999999999999989e-02 7.598700000000000454e-01 2.988250000000000028e+01 1.171204999999999927e+02 1.682985000000000127e+03
7.900000000000000078e-02 7.601040000000000019e-01 2.964705000000000013e+01 1.180914999999999964e+02 1.683284999999999854e+03
8.000000000000000167e-02 7.602694999999999315e-01 2.929060000000000130e+01 1.187795000000000130e+02 1.683510000000000218e+03
8.100000000000000255e-02 7.603720000000000478e-01 2.882115000000000293e+01 1.191989999999999981e+02 1.683670000000000073e+03
8.200000000000000344e-02 7.604159999999999808e-01 2.825045000000000073e+01 1.193729999999999905e+02 1.683759999999999991e+03
8.300000000000000433e-02 7.604104999999999892e-01 2.759319999999999951e+01 1.193315000000000055e+02 1.683795000000000073e+03
8.400000000000000522e-02 7.603640000000000398e-01 2.686674999999999969e+01 1.191094999999999970e+02 1.683784999999999854e+03
8.500000000000000611e-02 7.602864999999999762e-01 2.608984999999999843e+01 1.187469999999999999e+02 1.683730000000000018e+03
8.600000000000000699e-02 7.601869999999999461e-01 2.528204999999999814e+01 1.182844999999999942e+02 1.683644999999999982e+03
8.700000000000000788e-02 7.600759999999999739e-01 2.446274999999999977e+01 1.177630000000000052e+02 1.683539999999999964e+03
8.800000000000000877e-02 7.599620000000000264e-01 2.365015000000000001e+01 1.172189999999999941e+02 1.683420000000000073e+03
8.899999999999999578e-02 7.598525000000000418e-01 2.286054999999999993e+01 1.166880000000000024e+02 1.683299999999999955e+03
8.999999999999999667e-02 7.597544999999999993e-01 2.210770000000000124e+01 1.161974999999999909e+02 1.683179999999999836e+03
9.099999999999999756e-02 7.596724999999999728e-01 2.140205000000000268e+01 1.157715000000000032e+02 1.683069999999999936e+03
9.199999999999999845e-02 7.596089999999999787e-01 2.075059999999999860e+01 1.154230000000000018e+02 1.682980000000000018e+03
9.299999999999999933e-02 7.595655000000000046e-01 2.015659999999999741e+01 1.151599999999999966e+02 1.682900000000000091e+03
9.400000000000000022e-02 7.595404999999999518e-01 1.961974999999999980e+01 1.149830000000000041e+02 1.682845000000000027e+03
9.500000000000000111e-02 7.595330000000000137e-01 1.913629999999999853e+01 1.148845000000000027e+02 1.682809999999999945e+03
9.600000000000000200e-02 7.595380000000000464e-01 1.869960000000000022e+01 1.148524999999999920e+02 1.682784999999999854e+03
9.700000000000000289e-02 7.595520000000000049e-01 1.830044999999999789e+01 1.148689999999999998e+02 1.682779999999999973e+03
9.800000000000000377e-02 7.595684999999999798e-01 1.792790000000000106e+01 1.149110000000000014e+02 1.682779999999999973e+03
9.900000000000000466e-02 7.595815000000000206e-01 1.756970000000000098e+01 1.149560000000000031e+02 1.682779999999999973e+03
1.000000000000000056e-01 7.595859999999999834e-01 1.721325000000000216e+01 1.149780000000000086e+02 1.682779999999999973e+03
1.010000000000000064e-01 7.595754999999999590e-01 1.684609999999999985e+01 1.149544999999999959e+02 1.682769999999999982e+03
1.020000000000000073e-01 7.595460000000000544e-01 1.645694999999999908e+01 1.148619999999999948e+02 1.682744999999999891e+03
1.030000000000000082e-01 7.594920000000000559e-01 1.603600000000000136e+01 1.146825000000000045e+02 1.682704999999999927e+03
1.040000000000000091e-01 7.594119999999999759e-01 1.557574999999999932e+01 1.144014999999999986e+02 1.682634999999999991e+03
1.050000000000000100e-01 7.593035000000000201e-01 1.507124999999999915e+01 1.140099999999999909e+02 1.682549999999999955e+03
1.059999999999999970e-01 7.591665000000000774e-01 1.452069999999999972e+01 1.135049999999999955e+02 1.682424999999999955e+03
1.069999999999999979e-01 7.590030000000000943e-01 1.392530000000000001e+01 1.128894999999999982e+02 1.682284999999999854e+03
1.079999999999999988e-01 7.588160000000000460e-01 1.328937999999999953e+01 1.121730000000000018e+02 1.682115000000000009e+03
1.089999999999999997e-01 7.586094999999999366e-01 1.262022999999999939e+01 1.113704999999999927e+02 1.681925000000000182e+03
1.100000000000000006e-01 7.583899999999998975e-01 1.192766500000000107e+01 1.105035000000000025e+02 1.681715000000000146e+03
1.110000000000000014e-01 7.581624999999999615e-01 1.122334500000000013e+01 1.095939999999999941e+02 1.681489999999999782e+03
1.120000000000000023e-01 7.579339999999999966e-01 1.052048500000000075e+01 1.086709999999999923e+02 1.681259999999999991e+03
1.130000000000000032e-01 7.577125000000000110e-01 9.832884999999999209e+00 1.077614999999999981e+02 1.681030000000000200e+03
1.140000000000000041e-01 7.575045000000000250e-01 9.174440000000000595e+00 1.068935000000000031e+02 1.680809999999999945e+03
1.150000000000000050e-01 7.573159999999999892e-01 8.558089999999999975e+00 1.060935000000000059e+02 1.680605000000000018e+03
1.160000000000000059e-01 7.571520000000000472e-01 7.995570000000000732e+00 1.053859999999999957e+02 1.680414999999999964e+03
1.170000000000000068e-01 7.570170000000000510e-01 7.496570000000000178e+00 1.047890000000000015e+02 1.680250000000000000e+03
1.180000000000000077e-01 7.569145000000000456e-01 7.068270000000000053e+00 1.043174999999999955e+02 1.680115000000000009e+03
1.190000000000000085e-01 7.568444999999999201e-01 6.715284999999999727e+00 1.039805000000000064e+02 1.680005000000000109e+03
1.200000000000000094e-01 7.568090000000000650e-01 6.439315000000000566e+00 1.037804999999999893e+02 1.679934999999999945e+03
1.209999999999999964e-01 7.568055000000000199e-01 6.239264999999999617e+00 1.037145000000000010e+02 1.679894999999999982e+03
1.219999999999999973e-01 7.568314999999999904e-01 6.111430000000000362e+00 1.037750000000000057e+02 1.679889999999999873e+03
1.229999999999999982e-01 7.568835000000000424e-01 6.049800000000000288e+00 1.039490000000000123e+02 1.679910000000000082e+03
1.239999999999999991e-01 7.569574999999999498e-01 6.046445000000000292e+00 1.042195000000000107e+02 1.679960000000000036e+03
1.250000000000000000e-01 7.570479999999999432e-01 6.092005000000000337e+00 1.045685000000000002e+02 1.680029999999999973e+03
1.260000000000000009e-01 7.571505000000000596e-01 6.176169999999999938e+00 1.049735000000000014e+02 1.680115000000000009e+03
1.270000000000000018e-01 7.572590000000000154e-01 6.288190000000000168e+00 1.054149999999999920e+02 1.680215000000000146e+03
1.280000000000000027e-01 7.573689999999999589e-01 6.417324999999999946e+00 1.058709999999999951e+02 1.680319999999999936e+03
1.290000000000000036e-01 7.574760000000000382e-01 6.553300000000000125e+00 1.063215000000000003e+02 1.680425000000000182e+03
1.300000000000000044e-01 7.575760000000000272e-01 6.686645000000000394e+00 1.067510000000000048e+02 1.680529999999999973e+03
1.310000000000000053e-01 7.576659999999999506e-01 6.809004999999999974e+00 1.071424999999999983e+02 1.680625000000000000e+03
1.320000000000000062e-01 7.577430000000000554e-01 6.913375000000000270e+00 1.074860000000000042e+02 1.680714999999999918e+03
1.330000000000000071e-01 7.578054999999999097e-01 6.994234999999999758e+00 1.077719999999999914e+02 1.680789999999999964e+03
1.340000000000000080e-01 7.578525000000000400e-01 7.047645000000000159e+00 1.079960000000000093e+02 1.680849999999999909e+03
1.350000000000000089e-01 7.578840000000000021e-01 7.071260000000000545e+00 1.081560000000000059e+02 1.680900000000000091e+03
1.360000000000000098e-01 7.579009999999999359e-01 7.064289999999999736e+00 1.082514999999999930e+02 1.680934999999999945e+03
1.370000000000000107e-01 7.579040000000000221e-01 7.027400000000000091e+00 1.082879999999999967e+02 1.680954999999999927e+03
1.380000000000000115e-01 7.578945000000000265e-01 6.962544999999999540e+00 1.082699999999999960e+02 1.680960000000000036e+03
1.390000000000000124e-01 7.578749999999999654e-01 6.872815000000000119e+00 1.082060000000000031e+02 1.680949999999999818e+03
1.400000000000000133e-01 7.578475000000000072e-01 6.762179999999999858e+00 1.081049999999999898e+02 1.680934999999999945e+03
1.410000000000000142e-01 7.578145000000000575e-01 6.635264999999999525e+00 1.079759999999999991e+02 1.680909999999999854e+03
1.420000000000000151e-01 7.577789999999999804e-01 6.497065000000000090e+00 1.078299999999999983e+02 1.680875000000000000e+03
1.430000000000000160e-01 7.577424999999999855e-01 6.352695000000000647e+00 1.076760000000000019e+02 1.680844999999999800e+03
1.440000000000000169e-01 7.577080000000000481e-01 6.207129999999999370e+00 1.075234999999999985e+02 1.680809999999999945e+03
1.450000000000000178e-01 7.576765000000000860e-01 6.064930000000000376e+00 1.073810000000000002e+02 1.680779999999999973e+03
1.459999999999999909e-01 7.576499999999999346e-01 5.930064999999999920e+00 1.072545000000000073e+02 1.680744999999999891e+03
1.469999999999999918e-01 7.576289999999999969e-01 5.805730000000000501e+00 1.071495000000000033e+02 1.680720000000000027e+03
1.479999999999999927e-01 7.576140000000000096e-01 5.694234999999999935e+00 1.070679999999999978e+02 1.680695000000000164e+03
1.489999999999999936e-01 7.576049999999999729e-01 5.596964999999999968e+00 1.070109999999999957e+02 1.680679999999999836e+03
1.499999999999999944e-01 7.576019999999999976e-01 5.514355000000000118e+00 1.069784999999999968e+02 1.680670000000000073e+03
1.509999999999999953e-01 7.576039999999999441e-01 5.445994999999999919e+00 1.069669999999999987e+02 1.680664999999999964e+03
1.519999999999999962e-01 7.576095000000000468e-01 5.390710000000000335e+00 1.069729999999999990e+02 1.680664999999999964e+03
1.529999999999999971e-01 7.576175000000000548e-01 5.346734999999999793e+00 1.069909999999999997e+02 1.680664999999999964e+03
1.539999999999999980e-01 7.576260000000000217e-01 5.311899999999999622e+00 1.070159999999999911e+02 1.680670000000000073e+03
1.549999999999999989e-01 7.576339999999999186e-01 5.283780000000000143e+00 1.070409999999999968e+02 1.680675000000000182e+03
1.559999999999999998e-01 7.576399999999999801e-01 5.259930000000000661e+00 1.070614999999999952e+02 1.680675000000000182e+03
1.570000000000000007e-01 7.576430000000000664e-01 5.237985000000000113e+00 1.070715000000000003e+02 1.680680000000000064e+03
1.580000000000000016e-01 7.576414999999999678e-01 5.215854999999999464e+00 1.070670000000000073e+02 1.680674999999999955e+03
1.590000000000000024e-01 7.576350000000000584e-01 5.191810000000000258e+00 1.070450000000000017e+02 1.680670000000000073e+03
