# t [s], A [cm^2], U [cm/s], P [cPa], c [cm/s]
1.000000000000000021e-03 6.107990000000000919e-01 4.566500000000001114e-03 1.062965000000000089e+02 1.588219999999999800e+03
2.000000000000000042e-03 6.107924999999999605e-01 6.454550000000000738e-03 1.062710000000000008e+02 1.588210000000000036e+03
3.000000000000000062e-03 6.108664999999999790e-01 1.435225499999999987e-01 1.064155000000000086e+02 1.588244999999999891e+03
4.000000000000000083e-03 6.109005000000000685e-01 2.243594999999999895e-01 1.065064999999999884e+02 1.588275000000000091e+03
5.000000000000000104e-03 6.108415000000000372e-01 1.412925000000000153e-01 1.063430000000000035e+02 1.588235000000000127e+03
6.000000000000000125e-03 6.107575000000000642e-01 4.744499999999984841e-03 1.060099999999999909e+02 1.588164999999999964e+03
7.000000000000000146e-03 6.106650000000000134e-01 -1.608450000000000157e-01 1.055600000000000023e+02 1.588065000000000055e+03
8.000000000000000167e-03 6.105005000000000015e-01 -4.755399999999999627e-01 1.048460000000000036e+02 1.587909999999999854e+03
9.000000000000001055e-03 6.102544999999999220e-01 -9.536949999999998484e-01 1.037950000000000017e+02 1.587675000000000182e+03
1.000000000000000194e-02 6.099250000000000504e-01 -1.581989999999999785e+00 1.023720500000000015e+02 1.587349999999999909e+03
1.099999999999999936e-02 6.094865000000000421e-01 -2.385190000000000143e+00 1.004975499999999897e+02 1.586914999999999964e+03
1.200000000000000025e-02 6.089390000000000081e-01 -3.331505000000000383e+00 9.815455000000000041e+01 1.586360000000000127e+03
1.300000000000000114e-02 6.083499999999999464e-01 -4.260720000000000063e+00 9.550825000000000387e+01 1.585719999999999800e+03
1.400000000000000203e-02 6.078179999999999694e-01 -4.945056000000000118e+00 9.287224999999999397e+01 1.585049999999999955e+03
1.499999999999999944e-02 6.074144999999999683e-01 -5.210459000000000174e+00 9.055529999999998836e+01 1.584424999999999955e+03
1.600000000000000033e-02 6.071505000000000374e-01 -5.010259999999999714e+00 8.872644999999999982e+01 1.583894999999999982e+03
1.700000000000000122e-02 6.069830000000000503e-01 -4.424265000000000114e+00 8.736759999999999593e+01 1.583450000000000045e+03
1.800000000000000211e-02 6.068405000000000049e-01 -3.610549999999999926e+00 8.630734999999999957e+01 1.583074999999999818e+03
1.900000000000000300e-02 6.066525000000000389e-01 -2.739486499999999936e+00 8.530330000000000723e+01 1.582724999999999909e+03
2.000000000000000042e-02 6.063749999999999973e-01 -1.933153999999999817e+00 8.413890000000000668e+01 1.582345000000000027e+03
2.100000000000000130e-02 6.060045000000000570e-01 -1.231390000000000207e+00 8.269925000000000637e+01 1.581914999999999964e+03
2.200000000000000219e-02 6.055694999999999828e-01 -5.986050000000002758e-01 8.099349999999999739e+01 1.581420000000000073e+03
2.299999999999999961e-02 6.051140000000000407e-01 3.557999999999994500e-02 7.911985000000001378e+01 1.580900000000000091e+03
2.400000000000000050e-02 6.046704999999999997e-01 7.266650000000001164e-01 7.719814999999999827e+01 1.580349999999999909e+03
2.500000000000000139e-02 6.042499999999999538e-01 1.480259999999999909e+00 7.530639999999999645e+01 1.579799999999999955e+03
2.600000000000000228e-02 6.038350000000000106e-01 2.241655000000000175e+00 7.344355000000000189e+01 1.579255000000000109e+03
2.700000000000000316e-02 6.033899999999999819e-01 2.907529999999999504e+00 7.152479999999999905e+01 1.578694999999999936e+03
2.800000000000000058e-02 6.028704999999999758e-01 3.352529999999999788e+00 6.940575000000001182e+01 1.578095000000000027e+03
2.900000000000000147e-02 6.022354999999999237e-01 3.462219999999999409e+00 6.692510000000000048e+01 1.577420000000000073e+03
3.000000000000000236e-02 6.014634999999999287e-01 3.164449999999999985e+00 6.395574999999999477e+01 1.576634999999999991e+03
3.099999999999999978e-02 6.005579999999999252e-01 2.450380000000000003e+00 6.044865000000000066e+01 1.575730000000000018e+03
3.200000000000000067e-02 5.995494999999999575e-01 1.378949999999999676e+00 5.645709999999999695e+01 1.574714999999999918e+03
3.300000000000000155e-02 5.984895000000000076e-01 6.419999999999959073e-02 5.213419999999999987e+01 1.573610000000000127e+03
3.400000000000000244e-02 5.974405000000000410e-01 -1.349549999999999805e+00 4.770645000000000380e+01 1.572470000000000027e+03
3.500000000000000333e-02 5.964650000000000230e-01 -2.714505000000000834e+00 4.343449999999999989e+01 1.571345000000000027e+03
3.600000000000000422e-02 5.956160000000000343e-01 -3.901384999999999437e+00 3.957269999999999754e+01 1.570300000000000182e+03
3.700000000000000511e-02 5.949324999999999752e-01 -4.812939999999999330e+00 3.633700000000000330e+01 1.569384999999999991e+03
3.799999999999999906e-02 5.944384999999999808e-01 -5.387815500000000313e+00 3.388424999999999443e+01 1.568650000000000091e+03
3.899999999999999994e-02 5.941425000000000178e-01 -5.597849999999999326e+00 3.230530000000000257e+01 1.568119999999999891e+03
4.000000000000000083e-02 5.940415000000000001e-01 -5.440464999999999662e+00 3.162875000000000014e+01 1.567815000000000055e+03
4.100000000000000172e-02 5.941269999999999607e-01 -4.929310000000000080e+00 3.183279999999999887e+01 1.567740000000000009e+03
4.200000000000000261e-02 5.943834999999999535e-01 -4.085955499999999851e+00 3.286140000000000327e+01 1.567875000000000000e+03
4.300000000000000350e-02 5.947955000000000325e-01 -2.934194999999999887e+00 3.463880000000000337e+01 1.568224999999999909e+03
4.400000000000000439e-02 5.953459999999999308e-01 -1.498129999999999740e+00 3.708100000000000307e+01 1.568750000000000000e+03
4.499999999999999833e-02 5.960179999999999367e-01 1.965950000000002973e-01 4.010125000000000028e+01 1.569445000000000164e+03
4.599999999999999922e-02 5.967949999999999644e-01 2.119674999999999976e+00 4.361110000000000042e+01 1.570279999999999973e+03
4.700000000000000011e-02 5.976559999999999651e-01 4.233119999999999550e+00 4.751839999999999975e+01 1.571240000000000009e+03
4.800000000000000100e-02 5.985785000000000133e-01 6.489634999999999820e+00 5.172494999999999266e+01 1.572289999999999964e+03
4.900000000000000189e-02 5.995395000000000030e-01 8.833489999999999398e+00 5.612634999999999508e+01 1.573414999999999964e+03
5.000000000000000278e-02 6.005130000000000745e-01 1.120314049999999995e+01 6.061419999999999675e+01 1.574575000000000045e+03
5.100000000000000366e-02 6.014740000000000641e-01 1.353591499999999925e+01 6.508015000000000327e+01 1.575744999999999891e+03
5.200000000000000455e-02 6.024015000000000342e-01 1.577249999999999908e+01 6.942284999999999684e+01 1.576909999999999854e+03
5.300000000000000544e-02 6.032759999999999234e-01 1.786192499999999939e+01 7.355405000000000371e+01 1.578039999999999964e+03
5.399999999999999939e-02 6.040855000000000530e-01 1.976454999999999984e+01 7.740475000000000705e+01 1.579110000000000127e+03
5.500000000000000028e-02 6.048225000000000406e-01 2.145394999999999897e+01 8.092900000000000205e+01 1.580115000000000009e+03
5.600000000000000117e-02 6.054855000000000098e-01 2.291760000000000019e+01 8.410540000000000305e+01 1.581034999999999854e+03
5.700000000000000205e-02 6.060765000000000180e-01 2.415500000000000114e+01 8.693594999999999118e+01 1.581869999999999891e+03
5.800000000000000294e-02 6.066044999999999909e-01 2.517665000000000219e+01 8.944355000000000189e+01 1.582630000000000109e+03
5.900000000000000383e-02 6.070780000000000065e-01 2.600084999999999980e+01 9.166759999999999309e+01 1.583315000000000055e+03
6.000000000000000472e-02 6.075094999999999246e-01 2.665225000000000222e+01 9.365925000000000011e+01 1.583934999999999945e+03
6.099999999999999867e-02 6.079109999999999792e-01 2.715930000000000177e+01 9.547700000000000387e+01 1.584505000000000109e+03
6.199999999999999956e-02 6.082959999999999479e-01 2.755270000000000152e+01 9.718240000000000123e+01 1.585039999999999964e+03
6.300000000000000044e-02 6.086765000000000647e-01 2.786449999999999960e+01 9.883689999999999998e+01 1.585554999999999836e+03
6.400000000000000133e-02 6.090659999999999963e-01 2.812619999999999720e+01 1.004985000000000070e+02 1.586055000000000064e+03
6.500000000000000222e-02 6.094735000000000014e-01 2.836749999999999972e+01 1.022189999999999941e+02 1.586574999999999818e+03
6.600000000000000311e-02 6.099084999999999646e-01 2.861500000000000199e+01 1.040404999999999944e+02 1.587105000000000018e+03
6.700000000000000400e-02 6.103754999999999598e-01 2.889020000000000010e+01 1.059964999999999975e+02 1.587664999999999964e+03
6.800000000000000488e-02 6.108784999999999910e-01 2.920805000000000007e+01 1.081030000000000086e+02 1.588259999999999991e+03
6.900000000000000577e-02 6.114159999999999595e-01 2.957594999999999885e+01 1.103644999999999925e+02 1.588889999999999873e+03
7.000000000000000666e-02 6.119844999999999313e-01 2.999279999999999902e+01 1.127665000000000077e+02 1.589554999999999836e+03
7.100000000000000755e-02 6.125745000000000218e-01 3.044960000000000377e+01 1.152810000000000059e+02 1.590250000000000000e+03
7.200000000000000844e-02 6.131765000000000132e-01 3.092984999999999829e+01 1.178650000000000091e+02 1.590960000000000036e+03
7.300000000000000933e-02 6.137770000000000170e-01 3.141125000000000256e+01 1.204645000000000010e+02 1.591684999999999945e+03
7.399999999999999634e-02 6.143615000000000048e-01 3.186785000000000068e+01 1.230174999999999983e+02 1.592394999999999982e+03
7.499999999999999722e-02 6.149164999999999770e-01 3.227159999999999940e+01 1.254604999999999961e+02 1.593085000000000036e+03
7.599999999999999811e-02 6.154275000000000162e-01 3.259494999999999720e+01 1.277284999999999968e+02 1.593740000000000009e+03
7.699999999999999900e-02 6.158820000000000405e-01 3.281255000000000166e+01 1.297644999999999982e+02 1.594335000000000036e+03
7.799999999999999989e-02 6.162704999999999433e-01 3.290290000000000248e+01 1.315174999999999841e+02 1.594860000000000127e+03
7.900000000000000078e-02 6.165855000000000086e-01 3.284940000000000282e+01 1.329490000000000123e+02 1.595305000000000064e+03
8.000000000000000167e-02 6.168214999999999115e-01 3.264144999999999897e+01 1.340345000000000084e+02 1.595660000000000082e+03
8.100000000000000255e-02 6.169795000000000140e-01 3.227464999999999407e+01 1.347620000000000005e+02 1.595929999999999836e+03
8.200000000000000344e-02 6.170584999999999543e-01 3.175084999999999980e+01 1.351334999999999980e+02 1.596099999999999909e+03
8.300000000000000433e-02 6.170640000000000569e-01 3.107779999999999632e+01 1.351659999999999968e+02 1.596179999999999836e+03
8.400000000000000522e-02 6.170029999999999681e-01 3.026865000000000094e+01 1.348860000000000241e+02 1.596170000000000073e+03
8.500000000000000611e-02 6.168839999999999879e-01 2.934140000000000015e+01 1.343309999999999889e+02 1.596074999999999818e+03
8.600000000000000699e-02 6.167165000000000008e-01 2.831754999999999711e+01 1.335464999999999804e+02 1.595925000000000182e+03
8.700000000000000788e-02 6.165125000000000188e-01 2.722139999999999915e+01 1.325824999999999818e+02 1.595710000000000036e+03
8.800000000000000877e-02 6.162840000000000540e-01 2.607869999999999777e+01 1.314915000000000020e+02 1.595454999999999927e+03
8.899999999999999578e-02 6.160410000000000608e-01 2.491569999999999752e+01 1.303274999999999864e+02 1.595174999999999955e+03
8.999999999999999667e-02 6.157960000000000100e-01 2.375764999999999816e+01 1.291410000000000196e+02 1.594869999999999891e+03
9.099999999999999756e-02 6.155580000000000496e-01 2.262815000000000154e+01 1.279800000000000040e+02 1.594569999999999936e+03
9.199999999999999845e-02 6.153349999999999653e-01 2.154790000000000205e+01 1.268840000000000003e+02 1.594275000000000091e+03
9.299999999999999933e-02 6.151349999999999874e-01 2.053389999999999915e+01 1.258875000000000028e+02 1.594000000000000000e+03
9.400000000000000022e-02 6.149620000000000086e-01 1.959900000000000020e+01 1.250144999999999982e+02 1.593755000000000109e+03
9.500000000000000111e-02 6.148190000000000044e-01 1.875140000000000029e+01 1.242804999999999893e+02 1.593530000000000200e+03
9.600000000000000200e-02 6.147055000000000158e-01 1.799465000000000003e+01 1.236920000000000073e+02 1.593349999999999909e+03
9.700000000000000289e-02 6.146225000000000716e-01 1.732760000000000034e+01 1.232454999999999927e+02 1.593204999999999927e+03
9.800000000000000377e-02 6.145659999999999457e-01 1.674480000000000146e+01 1.229310000000000116e+02 1.593090000000000146e+03
9.900000000000000466e-02 6.145309999999999384e-01 1.623709999999999809e+01 1.227295000000000016e+02 1.593005000000000109e+03
1.000000000000000056e-01 6.145125000000000171e-01 1.579210000000000136e+01 1.226170000000000044e+02 1.592944999999999936e+03
1.010000000000000064e-01 6.145045000000000091e-01 1.539494999999999969e+01 1.225664999999999907e+02 1.592909999999999854e+03
1.020000000000000073e-01 6.144990000000000174e-01 1.502925000000000111e+01 1.225444999999999993e+02 1.592880000000000109e+03
1.030000000000000082e-01 6.144905000000000506e-01 1.467794999999999916e+01 1.225209999999999866e+02 1.592855000000000018e+03
1.040000000000000091e-01 6.144709999999999894e-01 1.432410000000000139e+01 1.224629999999999939e+02 1.592824999999999818e+03
1.050000000000000100e-01 6.144350000000000644e-01 1.395195000000000007e+01 1.223425000000000011e+02 1.592784999999999854e+03
1.059999999999999970e-01 6.143775000000000208e-01 1.354734999999999978e+01 1.221340000000000003e+02 1.592730000000000018e+03
1.069999999999999979e-01 6.142939999999998957e-01 1.309895000000000032e+01 1.218179999999999978e+02 1.592644999999999982e+03
1.079999999999999988e-01 6.141834999999999933e-01 1.259834500000000013e+01 1.213795000000000073e+02 1.592534999999999854e+03
1.089999999999999997e-01 6.140434999999999643e-01 1.204063999999999979e+01 1.208120000000000118e+02 1.592389999999999873e+03
1.100000000000000006e-01 6.138749999999999485e-01 1.142478499999999997e+01 1.201140000000000043e+02 1.592210000000000036e+03
1.110000000000000014e-01 6.136805000000000732e-01 1.075333499999999987e+01 1.192934999999999945e+02 1.592005000000000109e+03
1.120000000000000023e-01 6.134630000000000916e-01 1.003254499999999894e+01 1.183635000000000019e+02 1.591764999999999873e+03
1.130000000000000032e-01 6.132279999999999953e-01 9.271914999999999907e+00 1.173439999999999941e+02 1.591505000000000109e+03
1.140000000000000041e-01 6.129809999999999981e-01 8.483940000000000481e+00 1.162590000000000003e+02 1.591220000000000027e+03
1.150000000000000050e-01 6.127285000000000093e-01 7.683069999999999844e+00 1.151380000000000052e+02 1.590920000000000073e+03
1.160000000000000059e-01 6.124775000000000080e-01 6.885540000000000660e+00 1.140114999999999981e+02 1.590619999999999891e+03
1.170000000000000068e-01 6.122354999999999325e-01 6.108049999999999535e+00 1.129114999999999895e+02 1.590320000000000164e+03
1.180000000000000077e-01 6.120090000000000252e-01 5.367445000000000022e+00 1.118700000000000045e+02 1.590029999999999973e+03
1.190000000000000085e-01 6.118040000000000145e-01 4.679495000000000182e+00 1.109159999999999968e+02 1.589764999999999873e+03
1.200000000000000094e-01 6.116265000000000729e-01 4.058365000000000222e+00 1.100759999999999934e+02 1.589519999999999982e+03
1.209999999999999964e-01 6.114804999999999824e-01 3.515880000000000116e+00 1.093710000000000093e+02 1.589315000000000055e+03
1.219999999999999973e-01 6.113690000000000513e-01 3.061014999999999819e+00 1.088174999999999955e+02 1.589134999999999991e+03
1.229999999999999982e-01 6.112934999999999341e-01 2.699514999999999887e+00 1.084234999999999900e+02 1.589005000000000109e+03
1.239999999999999991e-01 6.112535000000000052e-01 2.433754999999999669e+00 1.081935000000000002e+02 1.588914999999999964e+03
1.250000000000000000e-01 6.112484999999999724e-01 2.262704999999999966e+00 1.081239999999999952e+02 1.588865000000000009e+03
1.260000000000000009e-01 6.112765000000000004e-01 2.182100000000000151e+00 1.082044999999999959e+02 1.588855000000000018e+03
1.270000000000000018e-01 6.113319999999999865e-01 2.184765000000000068e+00 1.084209999999999923e+02 1.588880000000000109e+03
1.280000000000000027e-01 6.114109999999999268e-01 2.261050000000000004e+00 1.087545000000000073e+02 1.588945000000000164e+03
1.290000000000000036e-01 6.115094999999999281e-01 2.399345000000000283e+00 1.091820000000000022e+02 1.589030000000000200e+03
1.300000000000000044e-01 6.116209999999999702e-01 2.586619999999999919e+00 1.096779999999999973e+02 1.589139999999999873e+03
1.310000000000000053e-01 6.117399999999999505e-01 2.809054999999999858e+00 1.102180000000000035e+02 1.589269999999999982e+03
1.320000000000000062e-01 6.118609999999999882e-01 3.052589999999999915e+00 1.107754999999999939e+02 1.589404999999999973e+03
1.330000000000000071e-01 6.119780000000000220e-01 3.303499999999999659e+00 1.113265000000000100e+02 1.589545000000000073e+03
1.340000000000000080e-01 6.120875000000000066e-01 3.548869999999999969e+00 1.118479999999999990e+02 1.589680000000000064e+03
1.350000000000000089e-01 6.121849999999999792e-01 3.777050000000000018e+00 1.123209999999999980e+02 1.589805000000000064e+03
1.360000000000000098e-01 6.122670000000000057e-01 3.978010000000000268e+00 1.127295000000000016e+02 1.589914999999999964e+03
1.370000000000000107e-01 6.123319999999999874e-01 4.143584999999999852e+00 1.130614999999999952e+02 1.590009999999999991e+03
1.380000000000000115e-01 6.123775000000000190e-01 4.267689999999999984e+00 1.133075000000000045e+02 1.590090000000000146e+03
1.390000000000000124e-01 6.124034999999999895e-01 4.346389999999999532e+00 1.134645000000000010e+02 1.590139999999999873e+03
1.400000000000000133e-01 6.124110000000000387e-01 4.377919999999999590e+00 1.135310000000000059e+02 1.590170000000000073e+03
1.410000000000000142e-01 6.123994999999999855e-01 4.362594999999999779e+00 1.135120000000000005e+02 1.590184999999999945e+03
1.420000000000000151e-01 6.123709999999999987e-01 4.302665000000000184e+00 1.134129999999999967e+02 1.590170000000000073e+03
1.430000000000000160e-01 6.123290000000000122e-01 4.202090000000000103e+00 1.132429999999999950e+02 1.590139999999999873e+03
1.440000000000000169e-01 6.122749999999999027e-01 4.066279999999999895e+00 1.130140000000000100e+02 1.590089999999999918e+03
1.450000000000000178e-01 6.122119999999999784e-01 3.901749999999999829e+00 1.127385000000000019e+02 1.590029999999999973e+03
1.459999999999999909e-01 6.121440000000000214e-01 3.715800000000000214e+00 1.124309999999999974e+02 1.589960000000000036e+03
1.469999999999999918e-01 6.120725000000000193e-01 3.516115000000000101e+00 1.121045000000000016e+02 1.589880000000000109e+03
1.479999999999999927e-01 6.120014999999999761e-01 3.310424999999999951e+00 1.117725000000000080e+02 1.589795000000000073e+03
1.489999999999999936e-01 6.119334999999999081e-01 3.106130000000000280e+00 1.114484999999999957e+02 1.589720000000000027e+03
1.499999999999999944e-01 6.118699999999999140e-01 2.909984999999999822e+00 1.111419999999999959e+02 1.589634999999999991e+03
1.509999999999999953e-01 6.118129999999999402e-01 2.727815000000000101e+00 1.108629999999999995e+02 1.589559999999999945e+03
1.519999999999999962e-01 6.117645000000000444e-01 2.564329999999999998e+00 1.106169999999999902e+02 1.589490000000000009e+03
1.529999999999999971e-01 6.117245000000000044e-01 2.422944999999999904e+00 1.104085000000000036e+02 1.589430000000000064e+03
1.539999999999999980e-01 6.116930000000000422e-01 2.305724999999999802e+00 1.102390000000000043e+02 1.589380000000000109e+03
1.549999999999999989e-01 6.116690000000000182e-01 2.213379999999999903e+00 1.101069999999999993e+02 1.589340000000000146e+03
1.559999999999999998e-01 6.116525000000000434e-01 2.145334999999999770e+00 1.100099999999999909e+02 1.589309999999999945e+03
1.570000000000000007e-01 6.116420000000000190e-01 2.099860000000000060e+00 1.099420000000000073e+02 1.589279999999999973e+03
1.580000000000000016e-01 6.116349999999999287e-01 2.074234999999999829e+00 1.098965000000000032e+02 1.589259999999999991e+03
1.590000000000000024e-01 6.116310000000000358e-01 2.064985000000000070e+00 1.098659999999999997e+02 1.589250000000000000e+03
