# t [s], A [cm^2], U [cm/s], P [cPa], c [cm/s]
1.000000000000000021e-03 6.387540000000000440e-01 5.227849999999999164e-03 1.063215000000000003e+02 1.710755000000000109e+03
2.000000000000000042e-03 6.387484999999999413e-01 7.221749999999999003e-03 1.062965000000000089e+02 1.710750000000000000e+03
3.000000000000000062e-03 6.388190000000000257e-01 1.414682999999999913e-01 1.064530000000000030e+02 1.710785000000000082e+03
4.000000000000000083e-03 6.388500000000000290e-01 2.178519999999999901e-01 1.065484999999999900e+02 1.710809999999999945e+03
5.000000000000000104e-03 6.387929999999999442e-01 1.366989999999999872e-01 1.063785000000000025e+02 1.710775000000000091e+03
6.000000000000000125e-03 6.387209999999999832e-01 1.720800000000000107e-02 1.060554999999999950e+02 1.710704999999999927e+03
7.000000000000000146e-03 6.386389999999999567e-01 -1.345250000000000057e-01 1.056140000000000043e+02 1.710605000000000018e+03
8.000000000000000167e-03 6.384889999999999732e-01 -4.308850000000000735e-01 1.049014999999999986e+02 1.710444999999999936e+03
9.000000000000001055e-03 6.382615000000000371e-01 -8.889350000000000307e-01 1.038420000000000130e+02 1.710204999999999927e+03
1.000000000000000194e-02 6.379434999999999967e-01 -1.521455000000000002e+00 1.023644000000000034e+02 1.709864999999999782e+03
1.099999999999999936e-02 6.375124999999999265e-01 -2.349289999999999878e+00 1.003813000000000102e+02 1.709400000000000091e+03
1.200000000000000025e-02 6.369944999999999080e-01 -3.293544999999999945e+00 9.793665000000000020e+01 1.708809999999999945e+03
1.300000000000000114e-02 6.364719999999999267e-01 -4.156699999999999839e+00 9.527824999999999989e+01 1.708154999999999973e+03
1.400000000000000203e-02 6.360325000000000006e-01 -4.727955500000000200e+00 9.274269999999999925e+01 1.707500000000000000e+03
1.499999999999999944e-02 6.357154999999999889e-01 -4.892657999999999952e+00 9.058404999999999063e+01 1.706894999999999982e+03
1.600000000000000033e-02 6.355024999999999702e-01 -4.666294999999999860e+00 8.887664999999999793e+01 1.706380000000000109e+03
1.700000000000000122e-02 6.353374999999999995e-01 -4.161554999999999893e+00 8.752109999999998990e+01 1.705945000000000164e+03
1.800000000000000211e-02 6.351575000000000415e-01 -3.526060000000000194e+00 8.631539999999999679e+01 1.705535000000000082e+03
1.900000000000000300e-02 6.349164999999999948e-01 -2.880899000000000321e+00 8.505115000000000691e+01 1.705125000000000000e+03
2.000000000000000042e-02 6.346024999999999583e-01 -2.281230499999999939e+00 8.359604999999999109e+01 1.704674999999999955e+03
2.100000000000000130e-02 6.342339999999999645e-01 -1.712334999999999940e+00 8.193014999999999759e+01 1.704184999999999945e+03
2.200000000000000219e-02 6.338449999999999918e-01 -1.119165000000000187e+00 8.012594999999998890e+01 1.703664999999999964e+03
2.299999999999999961e-02 6.334670000000000023e-01 -4.505949999999998568e-01 7.828940000000000055e+01 1.703119999999999891e+03
2.400000000000000050e-02 6.331104999999999094e-01 3.044400000000000439e-01 7.649615000000000009e+01 1.702590000000000146e+03
2.500000000000000139e-02 6.327644999999999520e-01 1.102250000000000174e+00 7.475010000000000332e+01 1.702065000000000055e+03
2.600000000000000228e-02 6.323969999999999869e-01 1.851754999999999818e+00 7.297400000000000375e+01 1.701529999999999973e+03
2.700000000000000316e-02 6.319690000000000030e-01 2.438085000000000058e+00 7.103045000000000186e+01 1.700965000000000146e+03
2.800000000000000058e-02 6.314440000000000053e-01 2.753814999999999902e+00 6.876420000000000243e+01 1.700325000000000045e+03
2.900000000000000147e-02 6.308025000000000437e-01 2.729210000000000136e+00 6.605324999999999136e+01 1.699590000000000146e+03
3.000000000000000236e-02 6.300490000000000812e-01 2.352600000000000247e+00 6.285280000000000200e+01 1.698744999999999891e+03
3.099999999999999978e-02 6.292109999999999648e-01 1.674274999999999736e+00 5.921844999999999715e+01 1.697799999999999955e+03
3.200000000000000067e-02 6.283360000000000056e-01 7.937450000000003669e-01 5.530120000000000147e+01 1.696780000000000200e+03
3.300000000000000155e-02 6.274774999999999103e-01 -1.645000000000003126e-01 5.131884999999999764e+01 1.695730000000000018e+03
3.400000000000000244e-02 6.266890000000000516e-01 -1.076130000000000031e+00 4.751505000000000223e+01 1.694704999999999927e+03
3.500000000000000333e-02 6.260130000000000416e-01 -1.836850000000000094e+00 4.412024999999999864e+01 1.693764999999999873e+03
3.600000000000000422e-02 6.254779999999999784e-01 -2.372904999999999820e+00 4.132139999999999702e+01 1.692960000000000036e+03
3.700000000000000511e-02 6.250999999999999890e-01 -2.642514999999999947e+00 3.924649999999999750e+01 1.692324999999999818e+03
3.799999999999999906e-02 6.248814999999999786e-01 -2.630774500000000238e+00 3.796200000000000330e+01 1.691880000000000109e+03
3.899999999999999994e-02 6.248195000000000832e-01 -2.340790000000000148e+00 3.748085000000000377e+01 1.691640000000000100e+03
4.000000000000000083e-02 6.249050000000000438e-01 -1.784346999999999905e+00 3.777745000000000175e+01 1.691605000000000018e+03
4.100000000000000172e-02 6.251269999999999882e-01 -9.746099999999999763e-01 3.880360000000000298e+01 1.691764999999999873e+03
4.200000000000000261e-02 6.254770000000000607e-01 7.740000000000035740e-02 4.050175000000000125e+01 1.692115000000000009e+03
4.300000000000000350e-02 6.259455000000000435e-01 1.362424999999999997e+00 4.281255000000000166e+01 1.692630000000000109e+03
4.400000000000000439e-02 6.265220000000000233e-01 2.869670000000000165e+00 4.567645000000000266e+01 1.693309999999999945e+03
4.499999999999999833e-02 6.271955000000000169e-01 4.582670000000000243e+00 4.903100000000000591e+01 1.694130000000000109e+03
4.599999999999999922e-02 6.279524999999999135e-01 6.475780000000000314e+00 5.280695000000000050e+01 1.695069999999999936e+03
4.700000000000000011e-02 6.287749999999999728e-01 8.513371499999999870e+00 5.692539999999999623e+01 1.696125000000000000e+03
4.800000000000000100e-02 6.296439999999999815e-01 1.065074200000000104e+01 6.129785000000000394e+01 1.697250000000000000e+03
4.900000000000000189e-02 6.305389999999999606e-01 1.283761999999999937e+01 6.582885000000000275e+01 1.698440000000000055e+03
5.000000000000000278e-02 6.314400000000000013e-01 1.502247000000000021e+01 7.042159999999999798e+01 1.699664999999999964e+03
5.100000000000000366e-02 6.323285000000000711e-01 1.715692999999999913e+01 7.498484999999999445e+01 1.700894999999999982e+03
5.200000000000000455e-02 6.331895000000000717e-01 1.919964999999999833e+01 7.943895000000000550e+01 1.702119999999999891e+03
5.300000000000000544e-02 6.340144999999999254e-01 2.111895000000000167e+01 8.372159999999999513e+01 1.703305000000000064e+03
5.399999999999999939e-02 6.347959999999999159e-01 2.289359999999999928e+01 8.779149999999999920e+01 1.704460000000000036e+03
5.500000000000000028e-02 6.355325000000000557e-01 2.451304999999999978e+01 9.162694999999999368e+01 1.705559999999999945e+03
5.600000000000000117e-02 6.362269999999999870e-01 2.597579999999999956e+01 9.522739999999998872e+01 1.706599999999999909e+03
5.700000000000000205e-02 6.368834999999999358e-01 2.728810000000000002e+01 9.860859999999999559e+01 1.707595000000000027e+03
5.800000000000000294e-02 6.375090000000001034e-01 2.846179999999999666e+01 1.018003500000000088e+02 1.708534999999999854e+03
5.900000000000000383e-02 6.381109999999999838e-01 2.951259999999999906e+01 1.048401499999999942e+02 1.709434999999999945e+03
6.000000000000000472e-02 6.386985000000000579e-01 3.045850000000000080e+01 1.077704999999999984e+02 1.710304999999999836e+03
6.099999999999999867e-02 6.392789999999999306e-01 3.131804999999999950e+01 1.106345000000000027e+02 1.711155000000000200e+03
6.199999999999999956e-02 6.398599999999999843e-01 3.210909999999999798e+01 1.134720000000000084e+02 1.711994999999999891e+03
6.300000000000000044e-02 6.404469999999999885e-01 3.284720000000000084e+01 1.163170000000000073e+02 1.712825000000000045e+03
6.400000000000000133e-02 6.410430000000000295e-01 3.354449999999999932e+01 1.191924999999999955e+02 1.713664999999999964e+03
6.500000000000000222e-02 6.416500000000000536e-01 3.420879999999999654e+01 1.221110000000000042e+02 1.714514999999999873e+03
6.600000000000000311e-02 6.422665000000000735e-01 3.484279999999999688e+01 1.250715000000000146e+02 1.715369999999999891e+03
6.700000000000000400e-02 6.428880000000000150e-01 3.544395000000000095e+01 1.280604999999999905e+02 1.716234999999999900e+03
6.800000000000000488e-02 6.435079999999999689e-01 3.600504999999999711e+01 1.310525000000000091e+02 1.717095000000000027e+03
6.900000000000000577e-02 6.441189999999999971e-01 3.651484999999999559e+01 1.340115000000000123e+02 1.717950000000000045e+03
7.000000000000000666e-02 6.447119999999999518e-01 3.695949999999999847e+01 1.368949999999999818e+02 1.718785000000000082e+03
7.100000000000000755e-02 6.452769999999999895e-01 3.732375000000000398e+01 1.396550000000000011e+02 1.719599999999999909e+03
7.200000000000000844e-02 6.458059999999999912e-01 3.759250000000000114e+01 1.422464999999999975e+02 1.720365000000000009e+03
7.300000000000000933e-02 6.462885000000000435e-01 3.775209999999999866e+01 1.446240000000000236e+02 1.721075000000000045e+03
7.399999999999999634e-02 6.467184999999999739e-01 3.779125000000000512e+01 1.467504999999999882e+02 1.721724999999999909e+03
7.499999999999999722e-02 6.470914999999999306e-01 3.770194999999999652e+01 1.485945000000000107e+02 1.722299999999999955e+03
7.599999999999999811e-02 6.474035000000000206e-01 3.748015000000000185e+01 1.501379999999999768e+02 1.722795000000000073e+03
7.699999999999999900e-02 6.476534999999999931e-01 3.712579999999999814e+01 1.513700000000000045e+02 1.723204999999999927e+03
7.799999999999999989e-02 6.478420000000000289e-01 3.664289999999999736e+01 1.522920000000000016e+02 1.723529999999999973e+03
7.900000000000000078e-02 6.479729999999999102e-01 3.603965000000000174e+01 1.529150000000000205e+02 1.723775000000000091e+03
8.000000000000000167e-02 6.480494999999999450e-01 3.532755000000000223e+01 1.532584999999999980e+02 1.723940000000000055e+03
8.100000000000000255e-02 6.480785000000000018e-01 3.452134999999999820e+01 1.533520000000000039e+02 1.724030000000000200e+03
8.200000000000000344e-02 6.480660000000000309e-01 3.363809999999999434e+01 1.532284999999999968e+02 1.724050000000000182e+03
8.300000000000000433e-02 6.480200000000000404e-01 3.269669999999999987e+01 1.529265000000000043e+02 1.724019999999999982e+03
8.400000000000000522e-02 6.479485000000000383e-01 3.171669999999999590e+01 1.524869999999999948e+02 1.723944999999999936e+03
8.500000000000000611e-02 6.478599999999999914e-01 3.071775000000000233e+01 1.519519999999999982e+02 1.723835000000000036e+03
8.600000000000000699e-02 6.477614999999999901e-01 2.971870000000000189e+01 1.513605000000000018e+02 1.723700000000000045e+03
8.700000000000000788e-02 6.476599999999999024e-01 2.873649999999999949e+01 1.507495000000000118e+02 1.723550000000000182e+03
8.800000000000000877e-02 6.475614999999999011e-01 2.778569999999999851e+01 1.501499999999999773e+02 1.723400000000000091e+03
8.899999999999999578e-02 6.474699999999999900e-01 2.687785000000000224e+01 1.495879999999999939e+02 1.723250000000000000e+03
8.999999999999999667e-02 6.473889999999999922e-01 2.602100000000000080e+01 1.490825000000000102e+02 1.723110000000000127e+03
9.099999999999999756e-02 6.473200000000000065e-01 2.521950000000000003e+01 1.486435000000000173e+02 1.722985000000000127e+03
9.199999999999999845e-02 6.472634999999999916e-01 2.447379999999999711e+01 1.482744999999999891e+02 1.722869999999999891e+03
9.299999999999999933e-02 6.472175000000000011e-01 2.378125000000000000e+01 1.479714999999999918e+02 1.722769999999999982e+03
9.400000000000000022e-02 6.471795000000000186e-01 2.313584999999999781e+01 1.477244999999999777e+02 1.722690000000000055e+03
9.500000000000000111e-02 6.471469999999999168e-01 2.252935000000000088e+01 1.475185000000000173e+02 1.722619999999999891e+03
9.600000000000000200e-02 6.471154999999999546e-01 2.195145000000000124e+01 1.473335000000000150e+02 1.722555000000000064e+03
9.700000000000000289e-02 6.470810000000000173e-01 2.139090000000000202e+01 1.471475000000000080e+02 1.722490000000000009e+03
9.800000000000000377e-02 6.470389999999999198e-01 2.083589999999999876e+01 1.469390000000000214e+02 1.722425000000000182e+03
9.900000000000000466e-02 6.469850000000000323e-01 2.027494999999999692e+01 1.466850000000000023e+02 1.722349999999999909e+03
1.000000000000000056e-01 6.469154999999999767e-01 1.969774999999999920e+01 1.463659999999999854e+02 1.722259999999999991e+03
1.010000000000000064e-01 6.468279999999999585e-01 1.909534999999999982e+01 1.459650000000000034e+02 1.722144999999999982e+03
1.020000000000000073e-01 6.467209999999999903e-01 1.846095000000000041e+01 1.454705000000000155e+02 1.722009999999999991e+03
1.030000000000000082e-01 6.465925000000000145e-01 1.779019999999999868e+01 1.448745000000000118e+02 1.721855000000000018e+03
1.040000000000000091e-01 6.464434999999999487e-01 1.708164999999999978e+01 1.441750000000000114e+02 1.721670000000000073e+03
1.050000000000000100e-01 6.462750000000000439e-01 1.633634999999999948e+01 1.433770000000000095e+02 1.721460000000000036e+03
1.059999999999999970e-01 6.460890000000000244e-01 1.555835000000000079e+01 1.424889999999999759e+02 1.721219999999999800e+03
1.069999999999999979e-01 6.458900000000000752e-01 1.475430000000000064e+01 1.415260000000000105e+02 1.720970000000000027e+03
1.079999999999999988e-01 6.456809999999999494e-01 1.393290499999999810e+01 1.405074999999999932e+02 1.720695000000000164e+03
1.089999999999999997e-01 6.454675000000000828e-01 1.310475500000000082e+01 1.394549999999999841e+02 1.720409999999999854e+03
1.100000000000000006e-01 6.452545000000000641e-01 1.228169000000000111e+01 1.383940000000000055e+02 1.720115000000000009e+03
1.110000000000000014e-01 6.450469999999999260e-01 1.147621499999999983e+01 1.373509999999999991e+02 1.719829999999999927e+03
1.120000000000000023e-01 6.448499999999999233e-01 1.070063999999999993e+01 1.363505000000000109e+02 1.719549999999999955e+03
1.130000000000000032e-01 6.446680000000000188e-01 9.966844999999999288e+00 1.354174999999999898e+02 1.719279999999999973e+03
1.140000000000000041e-01 6.445054999999999534e-01 9.285339999999999705e+00 1.345724999999999909e+02 1.719034999999999854e+03
1.150000000000000050e-01 6.443659999999999943e-01 8.664979999999999905e+00 1.338329999999999984e+02 1.718815000000000055e+03
1.160000000000000059e-01 6.442499999999999893e-01 8.112429999999999808e+00 1.332130000000000223e+02 1.718625000000000000e+03
1.170000000000000068e-01 6.441605000000000247e-01 7.632064999999999877e+00 1.327194999999999823e+02 1.718465000000000146e+03
1.180000000000000077e-01 6.440964999999999607e-01 7.225654999999999717e+00 1.323559999999999945e+02 1.718340000000000146e+03
1.190000000000000085e-01 6.440569999999999906e-01 6.892485000000000639e+00 1.321184999999999832e+02 1.718250000000000000e+03
1.200000000000000094e-01 6.440405000000000157e-01 6.629519999999999413e+00 1.320010000000000048e+02 1.718190000000000055e+03
1.209999999999999964e-01 6.440445000000000197e-01 6.431630000000000180e+00 1.319909999999999854e+02 1.718164999999999964e+03
1.219999999999999973e-01 6.440660000000000274e-01 6.292009999999999437e+00 1.320734999999999957e+02 1.718159999999999854e+03
1.229999999999999982e-01 6.441004999999999647e-01 6.202515000000000001e+00 1.322314999999999827e+02 1.718179999999999836e+03
1.239999999999999991e-01 6.441445000000000087e-01 6.154160000000000075e+00 1.324459999999999980e+02 1.718220000000000027e+03
1.250000000000000000e-01 6.441945000000000032e-01 6.137549999999999173e+00 1.326974999999999909e+02 1.718269999999999982e+03
1.260000000000000009e-01 6.442470000000000141e-01 6.143295000000000172e+00 1.329675000000000011e+02 1.718329999999999927e+03
1.270000000000000018e-01 6.442980000000000373e-01 6.162359999999999616e+00 1.332379999999999995e+02 1.718394999999999982e+03
1.280000000000000027e-01 6.443455000000000155e-01 6.186420000000000030e+00 1.334934999999999832e+02 1.718460000000000036e+03
1.290000000000000036e-01 6.443864999999999732e-01 6.208079999999999821e+00 1.337210000000000036e+02 1.718519999999999982e+03
1.300000000000000044e-01 6.444195000000000340e-01 6.221070000000000100e+00 1.339099999999999966e+02 1.718565000000000055e+03
1.310000000000000053e-01 6.444425000000000292e-01 6.220369999999999955e+00 1.340525000000000091e+02 1.718605000000000018e+03
1.320000000000000062e-01 6.444559999999999178e-01 6.202259999999999884e+00 1.341435000000000173e+02 1.718634999999999991e+03
1.330000000000000071e-01 6.444585000000000452e-01 6.164339999999999264e+00 1.341820000000000164e+02 1.718650000000000091e+03
1.340000000000000080e-01 6.444509999999999961e-01 6.105459999999999887e+00 1.341670000000000016e+02 1.718650000000000091e+03
1.350000000000000089e-01 6.444339999999999513e-01 6.025660000000000238e+00 1.341020000000000039e+02 1.718639999999999873e+03
1.360000000000000098e-01 6.444090000000000096e-01 5.926040000000000418e+00 1.339925000000000068e+02 1.718619999999999891e+03
1.370000000000000107e-01 6.443764999999999077e-01 5.808595000000000397e+00 1.338425000000000011e+02 1.718585000000000036e+03
1.380000000000000115e-01 6.443384999999999252e-01 5.676050000000000040e+00 1.336605000000000132e+02 1.718539999999999964e+03
1.390000000000000124e-01 6.442965000000000497e-01 5.531634999999999636e+00 1.334530000000000030e+02 1.718490000000000009e+03
1.400000000000000133e-01 6.442514999999999770e-01 5.378910000000000302e+00 1.332289999999999850e+02 1.718434999999999945e+03
1.410000000000000142e-01 6.442054999999999865e-01 5.221535000000000259e+00 1.329950000000000045e+02 1.718375000000000000e+03
1.420000000000000151e-01 6.441594999999999960e-01 5.063035000000000174e+00 1.327579999999999814e+02 1.718309999999999945e+03
1.430000000000000160e-01 6.441144999999999232e-01 4.906649999999999956e+00 1.325244999999999891e+02 1.718250000000000000e+03
1.440000000000000169e-01 6.440719999999999779e-01 4.755164999999999864e+00 1.322980000000000018e+02 1.718190000000000055e+03
1.450000000000000178e-01 6.440315000000000900e-01 4.610769999999999591e+00 1.320829999999999984e+02 1.718130000000000109e+03
1.459999999999999909e-01 6.439939999999999554e-01 4.475025000000000475e+00 1.318799999999999955e+02 1.718069999999999936e+03
1.469999999999999918e-01 6.439589999999999481e-01 4.348789999999999267e+00 1.316904999999999859e+02 1.718019999999999982e+03
1.479999999999999927e-01 6.439259999999999984e-01 4.232269999999999754e+00 1.315124999999999886e+02 1.717965000000000146e+03
1.489999999999999936e-01 6.438945000000000363e-01 4.125125000000000597e+00 1.313439999999999941e+02 1.717914999999999964e+03
1.499999999999999944e-01 6.438639999999999919e-01 4.026534999999999975e+00 1.311809999999999832e+02 1.717869999999999891e+03
1.509999999999999953e-01 6.438329999999999886e-01 3.935354999999999492e+00 1.310204999999999984e+02 1.717825000000000045e+03
1.519999999999999962e-01 6.438014999999999155e-01 3.850295000000000023e+00 1.308584999999999923e+02 1.717779999999999973e+03
1.529999999999999971e-01 6.437690000000000357e-01 3.770040000000000280e+00 1.306910000000000025e+02 1.717724999999999909e+03
1.539999999999999980e-01 6.437334999999999585e-01 3.693425000000000402e+00 1.305149999999999864e+02 1.717674999999999955e+03
1.549999999999999989e-01 6.436965000000000048e-01 3.619530000000000136e+00 1.303280000000000030e+02 1.717625000000000000e+03
1.559999999999999998e-01 6.436560000000000059e-01 3.547770000000000312e+00 1.301279999999999859e+02 1.717569999999999936e+03
1.570000000000000007e-01 6.436129999999999907e-01 3.477965000000000195e+00 1.299155000000000086e+02 1.717509999999999991e+03
1.580000000000000016e-01 6.435679999999999179e-01 3.410350000000000215e+00 1.296910000000000025e+02 1.717445000000000164e+03
1.590000000000000024e-01 6.435204999999999398e-01 3.345539999999999736e+00 1.294575000000000102e+02 1.717380000000000109e+03
