# t [s], A [cm^2], U [cm/s], P [cPa], c [cm/s]
1.000000000000000021e-03 1.692199999999999815e-01 1.889750000000000041e-01 9.758724999999999739e+01 2.115065000000000055e+03
2.000000000000000042e-03 1.691819999999999991e-01 1.562876999999999850e+00 9.463095000000001278e+01 2.114670000000000073e+03
3.000000000000000062e-03 1.690699999999999981e-01 3.330315000000000136e+00 9.037514999999999077e+01 2.113565000000000055e+03
4.000000000000000083e-03 1.689105000000000190e-01 5.348241050000000385e+00 8.549430000000000973e+01 2.112025000000000091e+03
5.000000000000000104e-03 1.687359999999999971e-01 7.551470000000000127e+00 8.088065000000000282e+01 2.110349999999999909e+03
6.000000000000000125e-03 1.685655000000000070e-01 9.792670000000001096e+00 7.697379999999999711e+01 2.108730000000000018e+03
7.000000000000000146e-03 1.684049999999999991e-01 1.185075499999999948e+01 7.364929999999999666e+01 2.107244999999999891e+03
8.000000000000000167e-03 1.682564999999999755e-01 1.359758500000000048e+01 7.064834999999999354e+01 2.105890000000000327e+03
9.000000000000001055e-03 1.681245000000000100e-01 1.504960000000000164e+01 6.798019999999999641e+01 2.104694999999999709e+03
1.000000000000000194e-02 1.680114999999999803e-01 1.624859999999999971e+01 6.574819999999999709e+01 2.103699999999999818e+03
1.099999999999999936e-02 1.679184999999999983e-01 1.721705000000000041e+01 6.396795000000000186e+01 2.102885000000000218e+03
1.200000000000000025e-02 1.678445000000000076e-01 1.797554999999999836e+01 6.260269999999999868e+01 2.102244999999999891e+03
1.300000000000000114e-02 1.677874999999999783e-01 1.853204999999999814e+01 6.156940000000000168e+01 2.101755000000000109e+03
1.400000000000000203e-02 1.677414999999999878e-01 1.888385000000000247e+01 6.072764999999999702e+01 2.101369999999999891e+03
1.499999999999999944e-02 1.677040000000000197e-01 1.906535000000000224e+01 5.999150000000000205e+01 2.101065000000000055e+03
1.600000000000000033e-02 1.676759999999999917e-01 1.918630000000000280e+01 5.948080000000000211e+01 2.100840000000000146e+03
1.700000000000000122e-02 1.676650000000000085e-01 1.940279999999999916e+01 5.951919999999999789e+01 2.100760000000000218e+03
1.800000000000000211e-02 1.676809999999999967e-01 1.983910000000000196e+01 6.044355000000000189e+01 2.100904999999999745e+03
1.900000000000000300e-02 1.677259999999999862e-01 2.051749999999999829e+01 6.236700000000000443e+01 2.101300000000000182e+03
2.000000000000000042e-02 1.677974999999999883e-01 2.134325000000000117e+01 6.506015000000000725e+01 2.101944999999999709e+03
2.100000000000000130e-02 1.678840000000000054e-01 2.214580000000000126e+01 6.801054999999999495e+01 2.102715000000000146e+03
2.200000000000000219e-02 1.679694999999999938e-01 2.274875000000000114e+01 7.061145000000000493e+01 2.103494999999999891e+03
2.299999999999999961e-02 1.680389999999999939e-01 2.303399999999999892e+01 7.237754999999999939e+01 2.104144999999999982e+03
2.400000000000000050e-02 1.680834999999999968e-01 2.297550000000000026e+01 7.309479999999999222e+01 2.104574999999999818e+03
2.500000000000000139e-02 1.681004999999999860e-01 2.263530000000000086e+01 7.285634999999999195e+01 2.104760000000000218e+03
2.600000000000000228e-02 1.680960000000000232e-01 2.212870000000000203e+01 7.198545000000000016e+01 2.104744999999999891e+03
2.700000000000000316e-02 1.680785000000000196e-01 2.157594999999999885e+01 7.088980000000000814e+01 2.104594999999999800e+03
2.800000000000000058e-02 1.680570000000000119e-01 2.106085000000000207e+01 6.991009999999999991e+01 2.104409999999999854e+03
2.900000000000000147e-02 1.680380000000000207e-01 2.060864999999999725e+01 6.921705000000000041e+01 2.104235000000000127e+03
3.000000000000000236e-02 1.680229999999999779e-01 2.018849999999999767e+01 6.878405000000000769e+01 2.104099999999999909e+03
3.099999999999999978e-02 1.680099999999999927e-01 1.973470000000000013e+01 6.843184999999999718e+01 2.103980000000000018e+03
3.200000000000000067e-02 1.679940000000000044e-01 1.917820000000000036e+01 6.792050000000000409e+01 2.103840000000000146e+03
3.300000000000000155e-02 1.679694999999999938e-01 1.847760000000000247e+01 6.705465000000000941e+01 2.103625000000000000e+03
3.400000000000000244e-02 1.679329999999999989e-01 1.763990000000000080e+01 6.576865000000000805e+01 2.103310000000000400e+03
3.500000000000000333e-02 1.678870000000000084e-01 1.672599999999999909e+01 6.416615000000000180e+01 2.102904999999999745e+03
3.600000000000000422e-02 1.678354999999999986e-01 1.583699999999999974e+01 6.250150000000000006e+01 2.102449999999999818e+03
3.700000000000000511e-02 1.677885000000000071e-01 1.508830000000000027e+01 6.111034999999999684e+01 2.102019999999999982e+03
3.799999999999999906e-02 1.677534999999999998e-01 1.457835000000000036e+01 6.031350000000000477e+01 2.101694999999999709e+03
3.899999999999999994e-02 1.677385000000000126e-01 1.436329999999999885e+01 6.032605000000000217e+01 2.101545000000000073e+03
4.000000000000000083e-02 1.677480000000000082e-01 1.444369999999999976e+01 6.119989999999999952e+01 2.101605000000000018e+03
4.100000000000000172e-02 1.677815000000000001e-01 1.476640000000000086e+01 6.281194999999999595e+01 2.101885000000000218e+03
4.200000000000000261e-02 1.678334999999999966e-01 1.523814999999999920e+01 6.489605000000000246e+01 2.102329999999999927e+03
4.300000000000000350e-02 1.678955000000000031e-01 1.574584999999999901e+01 6.710444999999999993e+01 2.102875000000000000e+03
4.400000000000000439e-02 1.679585000000000106e-01 1.617810000000000059e+01 6.907914999999999850e+01 2.103440000000000055e+03
4.499999999999999833e-02 1.680114999999999803e-01 1.644274999999999665e+01 7.051599999999999113e+01 2.103920000000000073e+03
4.599999999999999922e-02 1.680470000000000019e-01 1.647820000000000107e+01 7.120889999999999986e+01 2.104260000000000218e+03
4.700000000000000011e-02 1.680610000000000159e-01 1.625659999999999883e+01 7.106825000000000614e+01 2.104394999999999982e+03
4.800000000000000100e-02 1.680504999999999916e-01 1.578105000000000047e+01 7.011454999999999416e+01 2.104315000000000055e+03
4.900000000000000189e-02 1.680165000000000131e-01 1.507740000000000080e+01 6.845275000000000887e+01 2.104025000000000091e+03
5.000000000000000278e-02 1.679614999999999858e-01 1.418469999999999942e+01 6.623709999999999809e+01 2.103550000000000182e+03
5.100000000000000366e-02 1.678904999999999981e-01 1.314649999999999963e+01 6.363625000000000398e+01 2.102920000000000073e+03
5.200000000000000455e-02 1.678069999999999840e-01 1.200431000000000026e+01 6.080610000000000070e+01 2.102175000000000182e+03
5.300000000000000544e-02 1.677160000000000040e-01 1.079473499999999930e+01 5.787449999999999761e+01 2.101364999999999782e+03
5.399999999999999939e-02 1.676205000000000056e-01 9.549644999999999939e+00 5.493845000000000312e+01 2.100505000000000109e+03
5.500000000000000028e-02 1.675234999999999919e-01 8.297879999999999256e+00 5.207065000000000055e+01 2.099635000000000218e+03
5.600000000000000117e-02 1.674279999999999935e-01 7.068610000000000504e+00 4.933044999999999902e+01 2.098769999999999982e+03
5.700000000000000205e-02 1.673359999999999848e-01 5.893230000000000857e+00 4.677615000000000123e+01 2.097944999999999709e+03
5.800000000000000294e-02 1.672500000000000098e-01 4.807010000000000005e+00 4.447344999999999970e+01 2.097164999999999964e+03
5.900000000000000383e-02 1.671730000000000160e-01 3.848650000000000126e+00 4.249915000000000020e+01 2.096465000000000146e+03
6.000000000000000472e-02 1.671070000000000055e-01 3.058555000000000135e+00 4.093944999999999368e+01 2.095860000000000127e+03
6.099999999999999867e-02 1.670555000000000234e-01 2.475910499999999903e+00 3.988304999999999723e+01 2.095380000000000109e+03
6.199999999999999956e-02 1.670210000000000028e-01 2.135330000000000172e+00 3.941214999999999691e+01 2.095055000000000291e+03
6.300000000000000044e-02 1.670070000000000165e-01 2.063654999999999795e+00 3.959250000000000114e+01 2.094904999999999745e+03
6.400000000000000133e-02 1.670145000000000102e-01 2.277439999999999909e+00 4.046490000000000009e+01 2.094949999999999818e+03
6.500000000000000222e-02 1.670444999999999847e-01 2.781474999999999920e+00 4.204035000000000366e+01 2.095194999999999709e+03
6.600000000000000311e-02 1.670979999999999965e-01 3.568519999999999914e+00 4.429760000000000275e+01 2.095650000000000091e+03
6.700000000000000400e-02 1.671735000000000027e-01 4.620000000000000107e+00 4.718525000000000347e+01 2.096305000000000291e+03
6.800000000000000488e-02 1.672695000000000154e-01 5.907580000000000275e+00 5.062619999999999720e+01 2.097149999999999636e+03
6.900000000000000577e-02 1.673835000000000184e-01 7.395345000000000724e+00 5.452410000000000423e+01 2.098159999999999854e+03
7.000000000000000666e-02 1.675129999999999952e-01 9.042144999999999655e+00 5.877040000000000219e+01 2.099309999999999945e+03
7.100000000000000755e-02 1.676540000000000252e-01 1.080436000000000085e+01 6.325254999999999939e+01 2.100569999999999709e+03
7.200000000000000844e-02 1.678034999999999943e-01 1.263813999999999993e+01 6.786074999999999591e+01 2.101909999999999854e+03
7.300000000000000933e-02 1.679575000000000096e-01 1.450225000000000009e+01 7.249519999999999698e+01 2.103295000000000073e+03
7.399999999999999634e-02 1.681134999999999990e-01 1.635970000000000013e+01 7.707094999999999629e+01 2.104710000000000036e+03
7.499999999999999722e-02 1.682675000000000143e-01 1.817975000000000207e+01 8.152275000000000205e+01 2.106109999999999673e+03
7.599999999999999811e-02 1.684194999999999998e-01 1.993909999999999982e+01 8.580674999999999386e+01 2.107494999999999891e+03
7.699999999999999900e-02 1.685670000000000224e-01 2.162185000000000201e+01 8.990149999999999864e+01 2.108840000000000146e+03
7.799999999999999989e-02 1.687089999999999979e-01 2.321999999999999886e+01 9.380639999999999645e+01 2.110149999999999636e+03
7.900000000000000078e-02 1.688459999999999961e-01 2.473205000000000098e+01 9.753820000000000334e+01 2.111405000000000200e+03
8.000000000000000167e-02 1.689780000000000171e-01 2.616199999999999903e+01 1.011259500000000031e+02 2.112625000000000000e+03
8.100000000000000255e-02 1.691064999999999929e-01 2.751749999999999829e+01 1.046066000000000003e+02 2.113809999999999945e+03
8.200000000000000344e-02 1.692315000000000069e-01 2.880835000000000079e+01 1.080185000000000031e+02 2.114965000000000146e+03
8.300000000000000433e-02 1.693549999999999778e-01 3.004459999999999908e+01 1.113970000000000056e+02 2.116105000000000018e+03
8.400000000000000522e-02 1.694775000000000031e-01 3.123545000000000016e+01 1.147709999999999866e+02 2.117239999999999782e+03
8.500000000000000611e-02 1.695995000000000141e-01 3.238810000000000144e+01 1.181589999999999918e+02 2.118364999999999782e+03
8.600000000000000699e-02 1.697219999999999840e-01 3.350719999999999743e+01 1.215695000000000050e+02 2.119500000000000000e+03
8.700000000000000788e-02 1.698445000000000094e-01 3.459445000000000192e+01 1.249989999999999952e+02 2.120635000000000218e+03
8.800000000000000877e-02 1.699669999999999792e-01 3.564880000000000138e+01 1.284350000000000023e+02 2.121775000000000091e+03
8.899999999999999578e-02 1.700900000000000190e-01 3.666640000000000299e+01 1.318574999999999875e+02 2.122914999999999964e+03
8.999999999999999667e-02 1.702120000000000022e-01 3.764119999999999777e+01 1.352390000000000043e+02 2.124045000000000073e+03
9.099999999999999756e-02 1.703319999999999834e-01 3.856539999999999679e+01 1.385490000000000066e+02 2.125159999999999854e+03
9.199999999999999845e-02 1.704495000000000038e-01 3.942969999999999686e+01 1.417540000000000191e+02 2.126250000000000000e+03
9.299999999999999933e-02 1.705630000000000202e-01 4.022400000000000375e+01 1.448195000000000050e+02 2.127309999999999945e+03
9.400000000000000022e-02 1.706710000000000171e-01 4.093784999999999741e+01 1.477115000000000009e+02 2.128319999999999709e+03
9.500000000000000111e-02 1.707734999999999947e-01 4.156094999999999828e+01 1.503990000000000009e+02 2.129279999999999745e+03
9.600000000000000200e-02 1.708689999999999931e-01 4.208364999999999867e+01 1.528530000000000086e+02 2.130170000000000073e+03
9.700000000000000289e-02 1.709565000000000112e-01 4.249750000000000227e+01 1.550495000000000232e+02 2.130994999999999891e+03
9.800000000000000377e-02 1.710349999999999926e-01 4.279585000000000150e+01 1.569689999999999941e+02 2.131730000000000018e+03
9.900000000000000466e-02 1.711039999999999783e-01 4.297404999999999831e+01 1.585980000000000132e+02 2.132385000000000218e+03
1.000000000000000056e-01 1.711630000000000096e-01 4.303029999999999688e+01 1.599314999999999998e+02 2.132949999999999818e+03
1.010000000000000064e-01 1.712124999999999897e-01 4.296549999999999869e+01 1.609710000000000036e+02 2.133420000000000073e+03
1.020000000000000073e-01 1.712515000000000009e-01 4.278369999999999607e+01 1.617255000000000109e+02 2.133795000000000073e+03
1.030000000000000082e-01 1.712815000000000032e-01 4.249179999999999779e+01 1.622135000000000105e+02 2.134090000000000146e+03
1.040000000000000091e-01 1.713020000000000098e-01 4.209955000000000069e+01 1.624569999999999936e+02 2.134289999999999964e+03
1.050000000000000100e-01 1.713149999999999951e-01 4.161889999999999645e+01 1.624875000000000114e+02 2.134420000000000073e+03
1.059999999999999970e-01 1.713200000000000001e-01 4.106354999999999933e+01 1.623365000000000009e+02 2.134474999999999909e+03
1.069999999999999979e-01 1.713189999999999991e-01 4.044835000000000491e+01 1.620414999999999850e+02 2.134479999999999563e+03
1.079999999999999988e-01 1.713135000000000074e-01 3.978860000000000241e+01 1.616374999999999886e+02 2.134430000000000291e+03
1.089999999999999997e-01 1.713034999999999974e-01 3.909919999999999618e+01 1.611595000000000084e+02 2.134345000000000255e+03
1.100000000000000006e-01 1.712905000000000122e-01 3.839450000000000074e+01 1.606399999999999864e+02 2.134229999999999563e+03
1.110000000000000014e-01 1.712759999999999838e-01 3.768730000000000047e+01 1.601064999999999827e+02 2.134100000000000364e+03
1.120000000000000023e-01 1.712604999999999822e-01 3.698870000000000147e+01 1.595835000000000150e+02 2.133960000000000036e+03
1.130000000000000032e-01 1.712449999999999806e-01 3.630764999999999532e+01 1.590865000000000009e+02 2.133815000000000055e+03
1.140000000000000041e-01 1.712299999999999933e-01 3.565075000000000216e+01 1.586290000000000191e+02 2.133675000000000182e+03
1.150000000000000050e-01 1.712155000000000205e-01 3.502205000000000013e+01 1.582155000000000200e+02 2.133539999999999964e+03
1.160000000000000059e-01 1.712025000000000075e-01 3.442324999999999591e+01 1.578455000000000155e+02 2.133414999999999964e+03
1.170000000000000068e-01 1.711904999999999955e-01 3.385345000000000226e+01 1.575134999999999934e+02 2.133300000000000182e+03
1.180000000000000077e-01 1.711795000000000122e-01 3.330935000000000201e+01 1.572079999999999984e+02 2.133190000000000055e+03
1.190000000000000085e-01 1.711685000000000012e-01 3.278605000000000302e+01 1.569130000000000109e+02 2.133085000000000036e+03
1.200000000000000094e-01 1.711575000000000180e-01 3.227665000000000362e+01 1.566100000000000136e+02 2.132980000000000018e+03
1.209999999999999964e-01 1.711459999999999926e-01 3.177335000000000065e+01 1.562785000000000082e+02 2.132875000000000000e+03
1.219999999999999973e-01 1.711340000000000083e-01 3.126754999999999995e+01 1.558965000000000032e+02 2.132760000000000218e+03
1.229999999999999982e-01 1.711189999999999933e-01 3.075065000000000026e+01 1.554414999999999907e+02 2.132625000000000000e+03
1.239999999999999991e-01 1.711020000000000041e-01 3.021424999999999983e+01 1.548949999999999818e+02 2.132465000000000146e+03
1.250000000000000000e-01 1.710820000000000118e-01 2.965109999999999957e+01 1.542400000000000091e+02 2.132274999999999636e+03
1.260000000000000009e-01 1.710585000000000022e-01 2.905514999999999759e+01 1.534635000000000105e+02 2.132055000000000291e+03
1.270000000000000018e-01 1.710305000000000020e-01 2.842229999999999990e+01 1.525579999999999927e+02 2.131800000000000182e+03
1.280000000000000027e-01 1.709984999999999977e-01 2.775029999999999930e+01 1.515204999999999984e+02 2.131500000000000000e+03
1.290000000000000036e-01 1.709620000000000029e-01 2.703940000000000055e+01 1.503555000000000064e+02 2.131164999999999964e+03
1.300000000000000044e-01 1.709215000000000040e-01 2.629204999999999970e+01 1.490715000000000146e+02 2.130795000000000073e+03
1.310000000000000053e-01 1.708770000000000011e-01 2.551290000000000191e+01 1.476839999999999975e+02 2.130385000000000218e+03
1.320000000000000062e-01 1.708294999999999952e-01 2.470889999999999986e+01 1.462129999999999939e+02 2.129944999999999709e+03
1.330000000000000071e-01 1.707790000000000141e-01 2.388864999999999839e+01 1.446829999999999927e+02 2.129480000000000018e+03
1.340000000000000080e-01 1.707265000000000033e-01 2.306224999999999881e+01 1.431214999999999975e+02 2.128994999999999891e+03
1.350000000000000089e-01 1.706730000000000191e-01 2.224074999999999847e+01 1.415570000000000164e+02 2.128505000000000109e+03
1.360000000000000098e-01 1.706199999999999939e-01 2.143549999999999756e+01 1.400199999999999818e+02 2.128010000000000218e+03
1.370000000000000107e-01 1.705674999999999830e-01 2.065784999999999982e+01 1.385394999999999754e+02 2.127524999999999636e+03
1.380000000000000115e-01 1.705170000000000019e-01 1.991835000000000022e+01 1.371405000000000030e+02 2.127050000000000182e+03
1.390000000000000124e-01 1.704689999999999817e-01 1.922660000000000124e+01 1.358470000000000084e+02 2.126605000000000018e+03
1.400000000000000133e-01 1.704245000000000065e-01 1.859049999999999869e+01 1.346775000000000091e+02 2.126190000000000055e+03
1.410000000000000142e-01 1.703839999999999799e-01 1.801624999999999943e+01 1.336450000000000102e+02 2.125809999999999945e+03
1.420000000000000151e-01 1.703479999999999994e-01 1.750800000000000267e+01 1.327579999999999814e+02 2.125470000000000255e+03
1.430000000000000160e-01 1.703164999999999818e-01 1.706779999999999831e+01 1.320199999999999818e+02 2.125170000000000073e+03
1.440000000000000169e-01 1.702894999999999825e-01 1.669579999999999842e+01 1.314284999999999854e+02 2.124925000000000182e+03
1.450000000000000178e-01 1.702680000000000027e-01 1.639034999999999798e+01 1.309780000000000086e+02 2.124715000000000146e+03
1.459999999999999909e-01 1.702509999999999857e-01 1.614809999999999945e+01 1.306580000000000155e+02 2.124550000000000182e+03
1.469999999999999918e-01 1.702385000000000148e-01 1.596434999999999960e+01 1.304565000000000055e+02 2.124425000000000182e+03
1.479999999999999927e-01 1.702295000000000058e-01 1.583339999999999925e+01 1.303580000000000041e+02 2.124335000000000036e+03
1.489999999999999936e-01 1.702239999999999864e-01 1.574870000000000125e+01 1.303480000000000132e+02 2.124279999999999745e+03
1.499999999999999944e-01 1.702219999999999844e-01 1.570350000000000179e+01 1.304089999999999918e+02 2.124250000000000000e+03
1.509999999999999953e-01 1.702220000000000122e-01 1.569050000000000011e+01 1.305255000000000223e+02 2.124250000000000000e+03
1.519999999999999962e-01 1.702239999999999864e-01 1.570274999999999821e+01 1.306829999999999927e+02 2.124264999999999873e+03
1.529999999999999971e-01 1.702275000000000038e-01 1.573359999999999914e+01 1.308665000000000020e+02 2.124289999999999964e+03
1.539999999999999980e-01 1.702319999999999944e-01 1.577669999999999817e+01 1.310635000000000048e+02 2.124335000000000036e+03
1.549999999999999989e-01 1.702374999999999861e-01 1.582644999999999946e+01 1.312640000000000100e+02 2.124380000000000109e+03
1.559999999999999998e-01 1.702430000000000054e-01 1.587780000000000058e+01 1.314590000000000032e+02 2.124430000000000291e+03
1.570000000000000007e-01 1.702489999999999837e-01 1.592689999999999984e+01 1.316405000000000030e+02 2.124484999999999673e+03
1.580000000000000016e-01 1.702539999999999887e-01 1.597034999999999982e+01 1.318044999999999902e+02 2.124529999999999745e+03
1.590000000000000024e-01 1.702589999999999937e-01 1.600609999999999999e+01 1.319480000000000075e+02 2.124579999999999927e+03
