# t [s], A [cm^2], U [cm/s], P [cPa], c [cm/s]
1.000000000000000021e-03 6.370789999999999509e-01 6.671299999999998065e-03 1.014555000000000007e+02 1.680009999999999991e+03
2.000000000000000042e-03 6.370664999999999800e-01 -5.462944999999999433e-03 1.014224999999999994e+02 1.680000000000000000e+03
3.000000000000000062e-03 6.371130000000000404e-01 7.846340000000000259e-02 1.015165000000000077e+02 1.680025000000000091e+03
4.000000000000000083e-03 6.371644999999999115e-01 1.822340500000000085e-01 1.016490000000000009e+02 1.680059999999999945e+03
5.000000000000000104e-03 6.371435000000000848e-01 1.701478499999999894e-01 1.016055000000000064e+02 1.680049999999999955e+03
6.000000000000000125e-03 6.370750000000000579e-01 7.063000000000002609e-02 1.013810000000000002e+02 1.679994999999999891e+03
7.000000000000000146e-03 6.370214999999999073e-01 -9.157499999999985096e-03 1.011159999999999997e+02 1.679934999999999945e+03
8.000000000000000167e-03 6.369449999999999834e-01 -1.430075000000000096e-01 1.007454999999999927e+02 1.679845000000000027e+03
9.000000000000001055e-03 6.368134999999999213e-01 -3.975400000000000045e-01 1.001675999999999931e+02 1.679704999999999927e+03
1.000000000000000194e-02 6.366254999999999553e-01 -7.716450000000001364e-01 9.934805000000000064e+01 1.679515000000000100e+03
1.099999999999999936e-02 6.363639999999999297e-01 -1.289150000000000240e+00 9.821805000000000518e+01 1.679240000000000009e+03
1.200000000000000025e-02 6.360120000000000218e-01 -1.966035000000000199e+00 9.670850000000000080e+01 1.678875000000000000e+03
1.300000000000000114e-02 6.355979999999999963e-01 -2.727520000000000167e+00 9.486820000000000164e+01 1.678420000000000073e+03
1.400000000000000203e-02 6.351914999999999090e-01 -3.414914999999999701e+00 9.288775000000001114e+01 1.677909999999999854e+03
1.499999999999999944e-02 6.348549999999999471e-01 -3.872063499999999880e+00 9.099875000000000114e+01 1.677409999999999854e+03
1.600000000000000033e-02 6.346125000000000238e-01 -4.019815999999999612e+00 8.935939999999999372e+01 1.676940000000000055e+03
1.700000000000000122e-02 6.344440000000000079e-01 -3.873234500000000136e+00 8.800059999999999150e+01 1.676529999999999973e+03
1.800000000000000211e-02 6.343019999999999214e-01 -3.514100000000000001e+00 8.684049999999999159e+01 1.676154999999999973e+03
1.900000000000000300e-02 6.341379999999999795e-01 -3.046125500000000041e+00 8.573749999999999716e+01 1.675800000000000182e+03
2.000000000000000042e-02 6.339185000000000514e-01 -2.553527499999999950e+00 8.455389999999999873e+01 1.675420000000000073e+03
2.100000000000000130e-02 6.336340000000000305e-01 -2.075324999999999864e+00 8.320625000000001137e+01 1.675000000000000000e+03
2.200000000000000219e-02 6.332994999999999042e-01 -1.601394999999999902e+00 8.168819999999999482e+01 1.674550000000000182e+03
2.299999999999999961e-02 6.329449999999999799e-01 -1.089055000000000106e+00 8.005930000000000746e+01 1.674065000000000055e+03
2.400000000000000050e-02 6.326005000000000100e-01 -4.911749999999996952e-01 7.841055000000000064e+01 1.673570000000000164e+03
2.500000000000000139e-02 6.322829999999999284e-01 2.169699999999998852e-01 7.682104999999999961e+01 1.673085000000000036e+03
2.600000000000000228e-02 6.319904999999998996e-01 1.021749999999999936e+00 7.532495000000000118e+01 1.672619999999999891e+03
2.700000000000000316e-02 6.317064999999999486e-01 1.869385000000000296e+00 7.389650000000000318e+01 1.672164999999999964e+03
2.800000000000000058e-02 6.314009999999999900e-01 2.676339999999999719e+00 7.245444999999999425e+01 1.671720000000000027e+03
2.900000000000000147e-02 6.310394999999999754e-01 3.348034999999999872e+00 7.088349999999999795e+01 1.671240000000000009e+03
3.000000000000000236e-02 6.305954999999999755e-01 3.801320000000000476e+00 6.906584999999999752e+01 1.670704999999999927e+03
3.099999999999999978e-02 6.300569999999999782e-01 3.985085000000000210e+00 6.691620000000000346e+01 1.670105000000000018e+03
3.200000000000000067e-02 6.294299999999999340e-01 3.893305000000000238e+00 6.440954999999999586e+01 1.669420000000000073e+03
3.300000000000000155e-02 6.287404999999999244e-01 3.565354999999999830e+00 6.159279999999999688e+01 1.668655000000000200e+03
3.400000000000000244e-02 6.280255000000000143e-01 3.074409999999999865e+00 5.857639999999999958e+01 1.667845000000000027e+03
3.500000000000000333e-02 6.273269999999999680e-01 2.508920000000000261e+00 5.551135000000000019e+01 1.667005000000000109e+03
3.600000000000000422e-02 6.266819999999999613e-01 1.953935000000000421e+00 5.256015000000000015e+01 1.666190000000000055e+03
3.700000000000000511e-02 6.261189999999999811e-01 1.478099999999999969e+00 4.987109999999999843e+01 1.665429999999999836e+03
3.799999999999999906e-02 6.256545000000000023e-01 1.127285000000000093e+00 4.756085000000000207e+01 1.664750000000000000e+03
3.899999999999999994e-02 6.252964999999999218e-01 9.248149999999997206e-01 4.570595000000000141e+01 1.664184999999999945e+03
4.000000000000000083e-02 6.250450000000000728e-01 8.761799999999997368e-01 4.434425000000000239e+01 1.663750000000000000e+03
4.100000000000000172e-02 6.248930000000000318e-01 9.760099999999999332e-01 4.348109999999999786e+01 1.663444999999999936e+03
4.200000000000000261e-02 6.248354999999999881e-01 1.215432049999999986e+00 4.310065000000000168e+01 1.663265000000000100e+03
4.300000000000000350e-02 6.248664999999999914e-01 1.588035000000000085e+00 4.317685000000000173e+01 1.663220000000000027e+03
4.400000000000000439e-02 6.249814999999999676e-01 2.093153000000000041e+00 4.368330000000000268e+01 1.663295000000000073e+03
4.499999999999999833e-02 6.251784999999999703e-01 2.735918999999999990e+00 4.459814999999999685e+01 1.663490000000000009e+03
4.599999999999999922e-02 6.254579999999999584e-01 3.524615400000000065e+00 4.590500000000000114e+01 1.663795000000000073e+03
4.700000000000000011e-02 6.258179999999999854e-01 4.466440650000000012e+00 4.758970000000000056e+01 1.664204999999999927e+03
4.800000000000000100e-02 6.262554999999999650e-01 5.563217999999999996e+00 4.963535000000000252e+01 1.664724999999999909e+03
4.900000000000000189e-02 6.267650000000000166e-01 6.808494500000000116e+00 5.201735000000000042e+01 1.665335000000000036e+03
5.000000000000000278e-02 6.273370000000000335e-01 8.186075000000000657e+00 5.470035000000000025e+01 1.666034999999999854e+03
5.100000000000000366e-02 6.279585000000000861e-01 9.671134999999999593e+00 5.763739999999999952e+01 1.666819999999999936e+03
5.200000000000000455e-02 6.286160000000000636e-01 1.123245999999999967e+01 6.077179999999999893e+01 1.667660000000000082e+03
5.300000000000000544e-02 6.292945000000000899e-01 1.283555499999999938e+01 6.404085000000000605e+01 1.668545000000000073e+03
5.399999999999999939e-02 6.299805000000000543e-01 1.444605499999999942e+01 6.738094999999999857e+01 1.669465000000000146e+03
5.500000000000000028e-02 6.306620000000000559e-01 1.603302500000000208e+01 7.073250000000000171e+01 1.670400000000000091e+03
5.600000000000000117e-02 6.313290000000000290e-01 1.757094999999999985e+01 7.404444999999999766e+01 1.671335000000000036e+03
5.700000000000000205e-02 6.319764999999999411e-01 1.904100000000000037e+01 7.727734999999999843e+01 1.672255000000000109e+03
5.800000000000000294e-02 6.326005000000000100e-01 2.043124999999999858e+01 8.040484999999999616e+01 1.673155000000000200e+03
5.900000000000000383e-02 6.332005000000000550e-01 2.173595000000000255e+01 8.341364999999998986e+01 1.674030000000000200e+03
6.000000000000000472e-02 6.337779999999999525e-01 2.295474999999999710e+01 8.630214999999999748e+01 1.674880000000000109e+03
6.099999999999999867e-02 6.343365000000000808e-01 2.409094999999999942e+01 8.907849999999999113e+01 1.675704999999999927e+03
6.199999999999999956e-02 6.348799999999999999e-01 2.515075000000000216e+01 9.175790000000000646e+01 1.676494999999999891e+03
6.300000000000000044e-02 6.354119999999999768e-01 2.614160000000000039e+01 9.435965000000000202e+01 1.677269999999999982e+03
6.400000000000000133e-02 6.359375000000000444e-01 2.707155000000000200e+01 9.690540000000000020e+01 1.678029999999999973e+03
6.500000000000000222e-02 6.364604999999999846e-01 2.794829999999999970e+01 9.941595000000000937e+01 1.678779999999999973e+03
6.600000000000000311e-02 6.369834999999999248e-01 2.877830000000000155e+01 1.019093000000000018e+02 1.679519999999999982e+03
6.700000000000000400e-02 6.375085000000000335e-01 2.956644999999999968e+01 1.043985000000000127e+02 1.680255000000000109e+03
6.800000000000000488e-02 6.380365000000000064e-01 3.031524999999999892e+01 1.068919999999999959e+02 1.680994999999999891e+03
6.900000000000000577e-02 6.385665000000000369e-01 3.102485000000000070e+01 1.093905000000000030e+02 1.681735000000000127e+03
7.000000000000000666e-02 6.390964999999999563e-01 3.169280000000000186e+01 1.118880000000000052e+02 1.682474999999999909e+03
7.100000000000000755e-02 6.396224999999999827e-01 3.231475000000000364e+01 1.143729999999999905e+02 1.683210000000000036e+03
7.200000000000000844e-02 6.401405000000000012e-01 3.288445000000000107e+01 1.168280000000000030e+02 1.683940000000000055e+03
7.300000000000000933e-02 6.406460000000000488e-01 3.339480000000000359e+01 1.192309999999999945e+02 1.684650000000000091e+03
7.399999999999999634e-02 6.411339999999999817e-01 3.383844999999999459e+01 1.215600000000000023e+02 1.685349999999999909e+03
7.499999999999999722e-02 6.415999999999999481e-01 3.420830000000000126e+01 1.237899999999999920e+02 1.686019999999999982e+03
7.599999999999999811e-02 6.420384999999999565e-01 3.449824999999999875e+01 1.259004999999999939e+02 1.686659999999999854e+03
7.699999999999999900e-02 6.424475000000000602e-01 3.470350000000000534e+01 1.278710000000000093e+02 1.687259999999999991e+03
7.799999999999999989e-02 6.428224999999999634e-01 3.482075000000000387e+01 1.296845000000000141e+02 1.687820000000000164e+03
7.900000000000000078e-02 6.431625000000000814e-01 3.484829999999999472e+01 1.313294999999999959e+02 1.688340000000000146e+03
8.000000000000000167e-02 6.434659999999999824e-01 3.478610000000000468e+01 1.327975000000000136e+02 1.688805000000000064e+03
8.100000000000000255e-02 6.437319999999999709e-01 3.463559999999999661e+01 1.340854999999999961e+02 1.689214999999999918e+03
8.200000000000000344e-02 6.439619999999999234e-01 3.439995000000000402e+01 1.351929999999999836e+02 1.689579999999999927e+03
8.300000000000000433e-02 6.441565000000000207e-01 3.408384999999999820e+01 1.361240000000000236e+02 1.689889999999999873e+03
8.400000000000000522e-02 6.443174999999999875e-01 3.369325000000000614e+01 1.368874999999999886e+02 1.690154999999999973e+03
8.500000000000000611e-02 6.444464999999999222e-01 3.323574999999999591e+01 1.374945000000000164e+02 1.690369999999999891e+03
8.600000000000000699e-02 6.445484999999999687e-01 3.272005000000000052e+01 1.379585000000000150e+02 1.690539999999999964e+03
8.700000000000000788e-02 6.446255000000000734e-01 3.215605000000000047e+01 1.382965000000000089e+02 1.690674999999999955e+03
8.800000000000000877e-02 6.446825000000000472e-01 3.155420000000000158e+01 1.385264999999999986e+02 1.690775000000000091e+03
8.899999999999999578e-02 6.447224999999999762e-01 3.092549999999999955e+01 1.386684999999999945e+02 1.690845000000000027e+03
8.999999999999999667e-02 6.447499999999999343e-01 3.028079999999999927e+01 1.387419999999999902e+02 1.690894999999999982e+03
9.099999999999999756e-02 6.447689999999999255e-01 2.963050000000000139e+01 1.387660000000000196e+02 1.690920000000000073e+03
9.199999999999999845e-02 6.447825000000000362e-01 2.898400000000000176e+01 1.387590000000000146e+02 1.690934999999999945e+03
9.299999999999999933e-02 6.447935000000000194e-01 2.834924999999999784e+01 1.387355000000000018e+02 1.690945000000000164e+03
9.400000000000000022e-02 6.448039999999999328e-01 2.773239999999999839e+01 1.387075000000000102e+02 1.690950000000000045e+03
9.500000000000000111e-02 6.448154999999999859e-01 2.713769999999999882e+01 1.386845000000000141e+02 1.690949999999999818e+03
9.600000000000000200e-02 6.448279999999999568e-01 2.656714999999999804e+01 1.386719999999999970e+02 1.690950000000000045e+03
9.700000000000000289e-02 6.448420000000000263e-01 2.602089999999999748e+01 1.386694999999999993e+02 1.690945000000000164e+03
9.800000000000000377e-02 6.448559999999999848e-01 2.549715000000000131e+01 1.386759999999999877e+02 1.690944999999999936e+03
9.900000000000000466e-02 6.448690000000000255e-01 2.499239999999999995e+01 1.386850000000000023e+02 1.690950000000000045e+03
1.000000000000000056e-01 6.448785000000000212e-01 2.450205000000000055e+01 1.386889999999999930e+02 1.690945000000000164e+03
1.010000000000000064e-01 6.448829999999999840e-01 2.402040000000000219e+01 1.386769999999999925e+02 1.690945000000000164e+03
1.020000000000000073e-01 6.448789999999999800e-01 2.354149999999999920e+01 1.386379999999999768e+02 1.690929999999999836e+03
1.030000000000000082e-01 6.448650000000000215e-01 2.305900000000000105e+01 1.385610000000000070e+02 1.690909999999999854e+03
1.040000000000000091e-01 6.448384999999999811e-01 2.256689999999999685e+01 1.384345000000000141e+02 1.690880000000000109e+03
1.050000000000000100e-01 6.447985000000000522e-01 2.205975000000000108e+01 1.382485000000000070e+02 1.690829999999999927e+03
1.059999999999999970e-01 6.447424999999999962e-01 2.153289999999999793e+01 1.379950000000000045e+02 1.690759999999999991e+03
1.069999999999999979e-01 6.446700000000000763e-01 2.098284999999999911e+01 1.376680000000000064e+02 1.690670000000000073e+03
1.079999999999999988e-01 6.445810000000000706e-01 2.040745000000000076e+01 1.372634999999999934e+02 1.690565000000000055e+03
1.089999999999999997e-01 6.444745000000000612e-01 1.980604999999999905e+01 1.367814999999999941e+02 1.690434999999999945e+03
1.100000000000000006e-01 6.443535000000000235e-01 1.917960000000000065e+01 1.362244999999999777e+02 1.690284999999999854e+03
1.110000000000000014e-01 6.442179999999999573e-01 1.853085000000000093e+01 1.355985000000000014e+02 1.690119999999999891e+03
1.120000000000000023e-01 6.440710000000000601e-01 1.786384999999999934e+01 1.349124999999999943e+02 1.689929999999999836e+03
1.130000000000000032e-01 6.439155000000000850e-01 1.718430000000000035e+01 1.341790000000000020e+02 1.689724999999999909e+03
1.140000000000000041e-01 6.437539999999999374e-01 1.649905000000000044e+01 1.334110000000000014e+02 1.689514999999999873e+03
1.150000000000000050e-01 6.435904999999999543e-01 1.581579999999999941e+01 1.326250000000000000e+02 1.689289999999999964e+03
1.160000000000000059e-01 6.434284999999999588e-01 1.514284999999999926e+01 1.318375000000000057e+02 1.689069999999999936e+03
1.170000000000000068e-01 6.432714999999999961e-01 1.448864999999999981e+01 1.310664999999999907e+02 1.688849999999999909e+03
1.180000000000000077e-01 6.431234999999999591e-01 1.386159999999999926e+01 1.303284999999999911e+02 1.688630000000000109e+03
1.190000000000000085e-01 6.429865000000000164e-01 1.326941499999999863e+01 1.296384999999999934e+02 1.688429999999999836e+03
1.200000000000000094e-01 6.428644999999999499e-01 1.271904999999999930e+01 1.290120000000000005e+02 1.688240000000000009e+03
1.209999999999999964e-01 6.427585000000000104e-01 1.221623999999999910e+01 1.284599999999999795e+02 1.688075000000000045e+03
1.219999999999999973e-01 6.426705000000000334e-01 1.176529999999999987e+01 1.279910000000000139e+02 1.687925000000000182e+03
1.229999999999999982e-01 6.426020000000000065e-01 1.136908999999999992e+01 1.276115000000000066e+02 1.687799999999999955e+03
1.239999999999999991e-01 6.425520000000000120e-01 1.102881000000000000e+01 1.273234999999999957e+02 1.687699999999999818e+03
1.250000000000000000e-01 6.425205000000000499e-01 1.074405499999999947e+01 1.271260000000000048e+02 1.687630000000000109e+03
1.260000000000000009e-01 6.425064999999999804e-01 1.051304999999999978e+01 1.270165000000000077e+02 1.687575000000000045e+03
1.270000000000000018e-01 6.425085000000000379e-01 1.033256499999999889e+01 1.269879999999999995e+02 1.687549999999999955e+03
1.280000000000000027e-01 6.425239999999999840e-01 1.019836499999999901e+01 1.270314999999999941e+02 1.687545000000000073e+03
1.290000000000000036e-01 6.425509999999999833e-01 1.010527499999999890e+01 1.271375000000000028e+02 1.687554999999999836e+03
1.300000000000000044e-01 6.425875000000000892e-01 1.004773499999999942e+01 1.272949999999999875e+02 1.687585000000000036e+03
1.310000000000000053e-01 6.426304999999999934e-01 1.001976000000000155e+01 1.274919999999999902e+02 1.687630000000000109e+03
1.320000000000000062e-01 6.426780000000000825e-01 1.001550500000000099e+01 1.277169999999999987e+02 1.687679999999999836e+03
1.330000000000000071e-01 6.427279999999999660e-01 1.002924499999999952e+01 1.279600000000000080e+02 1.687739999999999782e+03
1.340000000000000080e-01 6.427785000000000304e-01 1.005561499999999953e+01 1.282104999999999961e+02 1.687805000000000064e+03
1.350000000000000089e-01 6.428285000000000249e-01 1.008995499999999979e+01 1.284615000000000009e+02 1.687869999999999891e+03
1.360000000000000098e-01 6.428760000000000030e-01 1.012802500000000094e+01 1.287050000000000125e+02 1.687929999999999836e+03
1.370000000000000107e-01 6.429205000000000059e-01 1.016636499999999899e+01 1.289370000000000118e+02 1.688000000000000000e+03
1.380000000000000115e-01 6.429620000000000335e-01 1.020222499999999854e+01 1.291529999999999916e+02 1.688059999999999945e+03
1.390000000000000124e-01 6.430000000000000160e-01 1.023347499999999854e+01 1.293509999999999991e+02 1.688115000000000009e+03
1.400000000000000133e-01 6.430339999999999945e-01 1.025863000000000014e+01 1.295305000000000177e+02 1.688164999999999964e+03
1.410000000000000142e-01 6.430639999999999690e-01 1.027683500000000016e+01 1.296915000000000191e+02 1.688215000000000146e+03
1.420000000000000151e-01 6.430919999999999970e-01 1.028774500000000103e+01 1.298365000000000009e+02 1.688259999999999991e+03
1.430000000000000160e-01 6.431164999999999798e-01 1.029153499999999966e+01 1.299664999999999964e+02 1.688299999999999955e+03
1.440000000000000169e-01 6.431394999999999751e-01 1.028886500000000126e+01 1.300844999999999914e+02 1.688335000000000036e+03
1.450000000000000178e-01 6.431609999999999827e-01 1.028054500000000004e+01 1.301945000000000050e+02 1.688369999999999891e+03
1.459999999999999909e-01 6.431815000000000726e-01 1.026787000000000027e+01 1.302984999999999900e+02 1.688404999999999973e+03
1.469999999999999918e-01 6.432025000000000103e-01 1.025211000000000006e+01 1.304004999999999939e+02 1.688429999999999836e+03
1.479999999999999927e-01 6.432240000000000180e-01 1.023474500000000020e+01 1.305039999999999907e+02 1.688469999999999800e+03
1.489999999999999936e-01 6.432474999999999721e-01 1.021711499999999972e+01 1.306115000000000066e+02 1.688500000000000000e+03
1.499999999999999944e-01 6.432724999999999138e-01 1.020044499999999843e+01 1.307255000000000109e+02 1.688535000000000082e+03
1.509999999999999953e-01 6.432990000000000652e-01 1.018581000000000003e+01 1.308474999999999966e+02 1.688570000000000164e+03
1.519999999999999962e-01 6.433284999999999698e-01 1.017400999999999911e+01 1.309795000000000016e+02 1.688610000000000127e+03
1.529999999999999971e-01 6.433599999999999319e-01 1.016540999999999961e+01 1.311215000000000259e+02 1.688650000000000091e+03
1.539999999999999980e-01 6.433929999999999927e-01 1.016026000000000096e+01 1.312719999999999914e+02 1.688690000000000055e+03
1.549999999999999989e-01 6.434279999999999999e-01 1.015830500000000036e+01 1.314314999999999998e+02 1.688740000000000009e+03
1.559999999999999998e-01 6.434640000000000359e-01 1.015913000000000110e+01 1.315975000000000250e+02 1.688789999999999964e+03
1.570000000000000007e-01 6.435014999999999485e-01 1.016214500000000065e+01 1.317680000000000007e+02 1.688835000000000036e+03
1.580000000000000016e-01 6.435379999999999434e-01 1.016650500000000079e+01 1.319399999999999977e+02 1.688884999999999991e+03
1.590000000000000024e-01 6.435750000000000082e-01 1.017143499999999889e+01 1.321109999999999900e+02 1.688934999999999945e+03
