# t [s], A [cm^2], U [cm/s], P [cPa], c [cm/s]
1.000000000000000021e-03 1.592974999999999808e-01 2.329525000000000068e-01 9.871415000000000362e+01 1.891880000000000109e+03
2.000000000000000042e-03 1.592655000000000043e-01 1.713828499999999977e+00 9.583474999999999966e+01 1.891590000000000146e+03
3.000000000000000062e-03 1.591555000000000053e-01 3.575558000000000014e+00 9.188454999999999018e+01 1.890650000000000091e+03
4.000000000000000083e-03 1.589924999999999811e-01 5.665486849999999741e+00 8.735650000000001114e+01 1.889284999999999854e+03
5.000000000000000104e-03 1.588065000000000171e-01 7.927630000000000621e+00 8.301300000000000523e+01 1.887744999999999891e+03
6.000000000000000125e-03 1.586195000000000244e-01 1.024812000000000012e+01 7.927805000000000746e+01 1.886204999999999927e+03
7.000000000000000146e-03 1.584409999999999985e-01 1.244909999999999961e+01 7.613400000000000034e+01 1.884759999999999991e+03
8.000000000000000167e-03 1.582735000000000114e-01 1.438946999999999932e+01 7.335450000000000159e+01 1.883420000000000073e+03
9.000000000000001055e-03 1.581199999999999828e-01 1.604524999999999935e+01 7.084659999999999513e+01 1.882215000000000146e+03
1.000000000000000194e-02 1.579844999999999999e-01 1.745190000000000197e+01 6.867125000000000057e+01 1.881164999999999964e+03
1.099999999999999936e-02 1.578685000000000227e-01 1.863465000000000060e+01 6.686974999999999625e+01 1.880275000000000091e+03
1.200000000000000025e-02 1.577719999999999956e-01 1.960879999999999868e+01 6.542224999999999113e+01 1.879534999999999854e+03
1.300000000000000114e-02 1.576929999999999998e-01 2.038940000000000197e+01 6.428690000000000282e+01 1.878944999999999936e+03
1.400000000000000203e-02 1.576299999999999923e-01 2.098404999999999987e+01 6.339770000000000039e+01 1.878485000000000127e+03
1.499999999999999944e-02 1.575785000000000102e-01 2.139904999999999902e+01 6.266719999999999402e+01 1.878110000000000127e+03
1.600000000000000033e-02 1.575370000000000104e-01 2.166734999999999900e+01 6.205149999999999721e+01 1.877815000000000055e+03
1.700000000000000122e-02 1.575054999999999927e-01 2.186890000000000001e+01 6.162784999999999513e+01 1.877590000000000146e+03
1.800000000000000211e-02 1.574884999999999757e-01 2.211455000000000126e+01 6.159434999999999860e+01 1.877480000000000018e+03
1.900000000000000300e-02 1.574920000000000209e-01 2.250034999999999741e+01 6.217295000000000016e+01 1.877525000000000091e+03
2.000000000000000042e-02 1.575215000000000087e-01 2.306380000000000052e+01 6.347670000000000101e+01 1.877755000000000109e+03
2.100000000000000130e-02 1.575759999999999939e-01 2.376529999999999987e+01 6.542369999999999663e+01 1.878175000000000182e+03
2.200000000000000219e-02 1.576484999999999970e-01 2.450234999999999985e+01 6.773914999999999509e+01 1.878740000000000009e+03
2.299999999999999961e-02 1.577294999999999947e-01 2.514654999999999774e+01 7.003610000000000468e+01 1.879369999999999891e+03
2.400000000000000050e-02 1.578069999999999751e-01 2.558520000000000039e+01 7.193340000000000600e+01 1.879985000000000127e+03
2.500000000000000139e-02 1.578689999999999816e-01 2.575369999999999848e+01 7.316374999999999318e+01 1.880490000000000009e+03
2.600000000000000228e-02 1.579109999999999958e-01 2.564860000000000184e+01 7.363700000000000045e+01 1.880835000000000036e+03
2.700000000000000316e-02 1.579309999999999881e-01 2.532065000000000055e+01 7.344299999999999784e+01 1.881019999999999982e+03
2.800000000000000058e-02 1.579320000000000168e-01 2.485229999999999961e+01 7.280060000000000286e+01 1.881049999999999955e+03
2.900000000000000147e-02 1.579209999999999781e-01 2.432874999999999943e+01 7.197440000000000282e+01 1.880974999999999909e+03
3.000000000000000236e-02 1.579045000000000032e-01 2.381329999999999814e+01 7.119169999999999732e+01 1.880855000000000018e+03
3.099999999999999978e-02 1.578875000000000139e-01 2.333340000000000103e+01 7.058359999999998990e+01 1.880724999999999909e+03
3.200000000000000067e-02 1.578729999999999856e-01 2.288009999999999877e+01 7.016550000000000864e+01 1.880615000000000009e+03
3.300000000000000155e-02 1.578610000000000013e-01 2.241900000000000048e+01 6.985560000000000969e+01 1.880519999999999982e+03
3.400000000000000244e-02 1.578485000000000027e-01 2.190719999999999956e+01 6.951984999999999104e+01 1.880420000000000073e+03
3.500000000000000333e-02 1.578320000000000001e-01 2.131145000000000067e+01 6.902750000000000341e+01 1.880295000000000073e+03
3.600000000000000422e-02 1.578089999999999771e-01 2.062259999999999849e+01 6.830100000000000193e+01 1.880125000000000000e+03
3.700000000000000511e-02 1.577790000000000026e-01 1.986274999999999835e+01 6.734784999999999400e+01 1.879894999999999982e+03
3.799999999999999906e-02 1.577425000000000077e-01 1.908324999999999960e+01 6.626689999999999259e+01 1.879615000000000009e+03
3.899999999999999994e-02 1.577045000000000252e-01 1.835454999999999970e+01 6.522795000000000698e+01 1.879325000000000045e+03
4.000000000000000083e-02 1.576700000000000046e-01 1.775065000000000026e+01 6.443104999999999905e+01 1.879054999999999836e+03
4.100000000000000172e-02 1.576460000000000083e-01 1.733234999999999815e+01 6.405780000000000030e+01 1.878865000000000009e+03
4.200000000000000261e-02 1.576380000000000003e-01 1.713380000000000081e+01 6.422679999999999723e+01 1.878789999999999964e+03
4.300000000000000350e-02 1.576474999999999960e-01 1.715514999999999901e+01 6.496494999999998754e+01 1.878855000000000018e+03
4.400000000000000439e-02 1.576759999999999828e-01 1.736290000000000333e+01 6.620095000000000596e+01 1.879054999999999836e+03
4.499999999999999833e-02 1.577199999999999991e-01 1.769650000000000034e+01 6.777879999999998972e+01 1.879384999999999991e+03
4.599999999999999922e-02 1.577735000000000110e-01 1.807889999999999731e+01 6.948714999999999975e+01 1.879789999999999964e+03
4.700000000000000011e-02 1.578309999999999991e-01 1.842930000000000135e+01 7.109565000000000623e+01 1.880230000000000018e+03
4.800000000000000100e-02 1.578839999999999966e-01 1.867405000000000115e+01 7.239109999999999445e+01 1.880639999999999873e+03
4.900000000000000189e-02 1.579260000000000108e-01 1.875520000000000209e+01 7.320574999999999477e+01 1.880974999999999909e+03
5.000000000000000278e-02 1.579519999999999813e-01 1.863555000000000206e+01 7.343455000000000155e+01 1.881180000000000064e+03
5.100000000000000366e-02 1.579585000000000017e-01 1.829914999999999736e+01 7.304009999999999536e+01 1.881240000000000009e+03
5.200000000000000455e-02 1.579435000000000144e-01 1.774964999999999904e+01 7.204675000000000296e+01 1.881139999999999873e+03
5.300000000000000544e-02 1.579079999999999928e-01 1.700549999999999784e+01 7.052639999999999532e+01 1.880875000000000000e+03
5.399999999999999939e-02 1.578539999999999943e-01 1.609505000000000052e+01 6.858070000000000732e+01 1.880464999999999918e+03
5.500000000000000028e-02 1.577844999999999942e-01 1.505194999999999972e+01 6.632375000000000398e+01 1.879934999999999945e+03
5.600000000000000117e-02 1.577029999999999821e-01 1.391090000000000160e+01 6.386745000000000516e+01 1.879304999999999836e+03
5.700000000000000205e-02 1.576124999999999887e-01 1.270582499999999904e+01 6.131289999999999907e+01 1.878610000000000127e+03
5.800000000000000294e-02 1.575165000000000037e-01 1.146877500000000083e+01 5.874639999999999418e+01 1.877869999999999891e+03
5.900000000000000383e-02 1.574190000000000034e-01 1.023037499999999866e+01 5.624065000000000225e+01 1.877110000000000127e+03
6.000000000000000472e-02 1.573229999999999906e-01 9.020530000000000825e+00 5.385800000000000409e+01 1.876360000000000127e+03
6.099999999999999867e-02 1.572295000000000220e-01 7.869410000000000238e+00 5.165564999999999429e+01 1.875639999999999873e+03
6.199999999999999956e-02 1.571425000000000183e-01 6.807895000000000252e+00 4.968939999999999912e+01 1.874954999999999927e+03
6.300000000000000044e-02 1.570639999999999814e-01 5.867670000000000385e+00 4.801640000000000441e+01 1.874340000000000146e+03
6.400000000000000133e-02 1.569955000000000100e-01 5.080465000000000231e+00 4.669530000000000314e+01 1.873799999999999955e+03
6.500000000000000222e-02 1.569409999999999972e-01 4.476745000000000196e+00 4.578430000000000177e+01 1.873365000000000009e+03
6.600000000000000311e-02 1.569019999999999859e-01 4.084049999999999514e+00 4.533780000000000143e+01 1.873049999999999955e+03
6.700000000000000400e-02 1.568809999999999927e-01 3.925190000000000179e+00 4.540155000000000030e+01 1.872875000000000000e+03
6.800000000000000488e-02 1.568789999999999907e-01 4.016600000000000392e+00 4.600860000000000127e+01 1.872840000000000146e+03
6.900000000000000577e-02 1.568984999999999963e-01 4.367110000000000269e+00 4.717555000000000121e+01 1.872970000000000027e+03
7.000000000000000666e-02 1.569389999999999952e-01 4.977265000000000050e+00 4.890019999999999811e+01 1.873264999999999873e+03
7.100000000000000755e-02 1.570004999999999873e-01 5.839235000000000397e+00 5.116124999999999545e+01 1.873730000000000018e+03
7.200000000000000844e-02 1.570834999999999870e-01 6.937335000000000029e+00 5.391899999999999693e+01 1.874355000000000018e+03
7.300000000000000933e-02 1.571859999999999924e-01 8.249000000000000554e+00 5.711834999999999951e+01 1.875130000000000109e+03
7.399999999999999634e-02 1.573060000000000014e-01 9.746030000000001081e+00 6.069185000000000230e+01 1.876049999999999955e+03
7.499999999999999722e-02 1.574405000000000110e-01 1.139627000000000123e+01 6.456395000000000550e+01 1.877090000000000146e+03
7.599999999999999811e-02 1.575880000000000059e-01 1.316496499999999870e+01 6.865529999999999688e+01 1.878224999999999909e+03
7.699999999999999900e-02 1.577454999999999830e-01 1.501660000000000039e+01 7.288660000000000139e+01 1.879440000000000055e+03
7.799999999999999989e-02 1.579090000000000216e-01 1.691615000000000180e+01 7.718260000000000787e+01 1.880715000000000146e+03
7.900000000000000078e-02 1.580770000000000231e-01 1.883075000000000188e+01 8.147504999999999598e+01 1.882025000000000091e+03
8.000000000000000167e-02 1.582459999999999978e-01 2.073075000000000045e+01 8.570570000000000732e+01 1.883345000000000027e+03
8.100000000000000255e-02 1.584145000000000136e-01 2.259084999999999965e+01 8.982835000000000036e+01 1.884670000000000073e+03
8.200000000000000344e-02 1.585799999999999987e-01 2.439065000000000083e+01 9.380995000000000061e+01 1.885974999999999909e+03
8.300000000000000433e-02 1.587419999999999942e-01 2.611534999999999940e+01 9.763024999999998954e+01 1.887250000000000000e+03
8.400000000000000522e-02 1.588984999999999981e-01 2.775565000000000282e+01 1.012846499999999992e+02 1.888490000000000009e+03
8.500000000000000611e-02 1.590499999999999969e-01 2.930734999999999957e+01 1.047771500000000060e+02 1.889694999999999936e+03
8.600000000000000699e-02 1.591960000000000042e-01 3.077100000000000080e+01 1.081250000000000000e+02 1.890855000000000018e+03
8.700000000000000788e-02 1.593370000000000064e-01 3.215104999999999791e+01 1.113499999999999943e+02 1.891984999999999900e+03
8.800000000000000877e-02 1.594740000000000046e-01 3.345445000000000135e+01 1.144805000000000064e+02 1.893074999999999818e+03
8.899999999999999578e-02 1.596079999999999999e-01 3.468989999999999441e+01 1.175434999999999945e+02 1.894150000000000091e+03
8.999999999999999667e-02 1.597390000000000199e-01 3.586655000000000371e+01 1.205674999999999955e+02 1.895195000000000164e+03
9.099999999999999756e-02 1.598684999999999967e-01 3.699320000000000164e+01 1.235734999999999957e+02 1.896230000000000018e+03
9.199999999999999845e-02 1.599975000000000147e-01 3.807724999999999937e+01 1.265794999999999959e+02 1.897265000000000100e+03
9.299999999999999933e-02 1.601255000000000039e-01 3.912420000000000186e+01 1.295945000000000107e+02 1.898295000000000073e+03
9.400000000000000022e-02 1.602540000000000076e-01 4.013714999999999833e+01 1.326204999999999927e+02 1.899325000000000045e+03
9.500000000000000111e-02 1.603819999999999968e-01 4.111690000000000111e+01 1.356519999999999868e+02 1.900349999999999909e+03
9.600000000000000200e-02 1.605105000000000004e-01 4.206165000000000020e+01 1.386759999999999877e+02 1.901375000000000000e+03
9.700000000000000289e-02 1.606380000000000030e-01 4.296739999999999782e+01 1.416750000000000114e+02 1.902405000000000200e+03
9.800000000000000377e-02 1.607640000000000180e-01 4.382800000000000296e+01 1.446254999999999882e+02 1.903414999999999964e+03
9.900000000000000466e-02 1.608879999999999755e-01 4.463599999999999568e+01 1.475010000000000048e+02 1.904414999999999964e+03
1.000000000000000056e-01 1.610090000000000132e-01 4.538254999999999484e+01 1.502740000000000009e+02 1.905385000000000218e+03
1.010000000000000064e-01 1.611255000000000048e-01 4.605830000000000268e+01 1.529144999999999754e+02 1.906325000000000045e+03
1.020000000000000073e-01 1.612375000000000058e-01 4.665390000000000015e+01 1.553974999999999795e+02 1.907230000000000018e+03
1.030000000000000082e-01 1.613430000000000142e-01 4.715995000000000203e+01 1.576955000000000098e+02 1.908079999999999927e+03
1.040000000000000091e-01 1.614410000000000012e-01 4.756810000000000116e+01 1.597860000000000014e+02 1.908875000000000000e+03
1.050000000000000100e-01 1.615305000000000213e-01 4.787099999999999511e+01 1.616494999999999891e+02 1.909605000000000018e+03
1.059999999999999970e-01 1.616119999999999779e-01 4.806275000000000119e+01 1.632715000000000032e+02 1.910264999999999873e+03
1.069999999999999979e-01 1.616834999999999800e-01 4.813940000000000197e+01 1.646410000000000196e+02 1.910849999999999909e+03
1.079999999999999988e-01 1.617454999999999865e-01 4.809884999999999877e+01 1.657535000000000025e+02 1.911360000000000127e+03
1.089999999999999997e-01 1.617969999999999964e-01 4.794140000000000157e+01 1.666095000000000255e+02 1.911784999999999854e+03
1.100000000000000006e-01 1.618384999999999962e-01 4.766949999999999932e+01 1.672124999999999773e+02 1.912130000000000109e+03
1.110000000000000014e-01 1.618700000000000139e-01 4.728804999999999836e+01 1.675755000000000052e+02 1.912394999999999982e+03
1.120000000000000023e-01 1.618919999999999804e-01 4.680400000000000205e+01 1.677125000000000057e+02 1.912585000000000036e+03
1.130000000000000032e-01 1.619045000000000067e-01 4.622655000000000314e+01 1.676435000000000173e+02 1.912695000000000164e+03
1.140000000000000041e-01 1.619094999999999840e-01 4.556624999999999659e+01 1.673915000000000077e+02 1.912744999999999891e+03
1.150000000000000050e-01 1.619059999999999944e-01 4.483530000000000371e+01 1.669839999999999804e+02 1.912724999999999909e+03
1.160000000000000059e-01 1.618959999999999844e-01 4.404670000000000130e+01 1.664470000000000027e+02 1.912654999999999973e+03
1.170000000000000068e-01 1.618809999999999971e-01 4.321389999999999532e+01 1.658100000000000023e+02 1.912539999999999964e+03
1.180000000000000077e-01 1.618610000000000049e-01 4.235034999999999883e+01 1.650994999999999777e+02 1.912384999999999991e+03
1.190000000000000085e-01 1.618374999999999952e-01 4.146900000000000119e+01 1.643425000000000011e+02 1.912204999999999927e+03
1.200000000000000094e-01 1.618114999999999970e-01 4.058204999999999529e+01 1.635625000000000000e+02 1.911994999999999891e+03
1.209999999999999964e-01 1.617844999999999978e-01 3.970035000000000025e+01 1.627805000000000177e+02 1.911780000000000200e+03
1.219999999999999973e-01 1.617554999999999965e-01 3.883329999999999416e+01 1.620140000000000100e+02 1.911550000000000182e+03
1.229999999999999982e-01 1.617279999999999829e-01 3.798850000000000193e+01 1.612760000000000105e+02 1.911325000000000045e+03
1.239999999999999991e-01 1.617000000000000104e-01 3.717170000000000130e+01 1.605745000000000005e+02 1.911095000000000027e+03
1.250000000000000000e-01 1.616724999999999968e-01 3.638660000000000139e+01 1.599155000000000086e+02 1.910875000000000000e+03
1.260000000000000009e-01 1.616469999999999851e-01 3.563499999999999801e+01 1.592984999999999900e+02 1.910664999999999964e+03
1.270000000000000018e-01 1.616219999999999879e-01 3.491655000000000086e+01 1.587205000000000155e+02 1.910470000000000027e+03
1.280000000000000027e-01 1.615979999999999916e-01 3.422950000000000159e+01 1.581739999999999782e+02 1.910269999999999982e+03
1.290000000000000036e-01 1.615754999999999830e-01 3.357010000000000360e+01 1.576490000000000009e+02 1.910089999999999918e+03
1.300000000000000044e-01 1.615530000000000022e-01 3.293345000000000056e+01 1.571329999999999814e+02 1.909904999999999973e+03
1.310000000000000053e-01 1.615309999999999802e-01 3.231360000000000099e+01 1.566114999999999782e+02 1.909720000000000027e+03
1.320000000000000062e-01 1.615084999999999993e-01 3.170380000000000109e+01 1.560695000000000050e+02 1.909539999999999964e+03
1.330000000000000071e-01 1.614855000000000040e-01 3.109700000000000131e+01 1.554904999999999973e+02 1.909349999999999909e+03
1.340000000000000080e-01 1.614605000000000068e-01 3.048594999999999899e+01 1.548594999999999970e+02 1.909150000000000091e+03
1.350000000000000089e-01 1.614340000000000219e-01 2.986390000000000100e+01 1.541634999999999991e+02 1.908934999999999945e+03
1.360000000000000098e-01 1.614045000000000063e-01 2.922475000000000023e+01 1.533890000000000100e+02 1.908700000000000045e+03
1.370000000000000107e-01 1.613725000000000021e-01 2.856340000000000146e+01 1.525274999999999750e+02 1.908440000000000055e+03
1.380000000000000115e-01 1.613370000000000082e-01 2.787575000000000003e+01 1.515720000000000027e+02 1.908154999999999973e+03
1.390000000000000124e-01 1.612974999999999826e-01 2.715944999999999965e+01 1.505199999999999818e+02 1.907845000000000027e+03
1.400000000000000133e-01 1.612550000000000094e-01 2.641349999999999909e+01 1.493714999999999975e+02 1.907500000000000000e+03
1.410000000000000142e-01 1.612085000000000046e-01 2.563875000000000171e+01 1.481320000000000050e+02 1.907130000000000109e+03
1.420000000000000151e-01 1.611585000000000101e-01 2.483765000000000001e+01 1.468095000000000141e+02 1.906730000000000018e+03
1.430000000000000160e-01 1.611055000000000126e-01 2.401424999999999699e+01 1.454155000000000086e+02 1.906305000000000064e+03
1.440000000000000169e-01 1.610495000000000121e-01 2.317419999999999902e+01 1.439650000000000034e+02 1.905860000000000127e+03
1.450000000000000178e-01 1.609915000000000096e-01 2.232435000000000258e+01 1.424759999999999991e+02 1.905400000000000091e+03
1.459999999999999909e-01 1.609315000000000051e-01 2.147259999999999991e+01 1.409669999999999845e+02 1.904920000000000073e+03
1.469999999999999918e-01 1.608709999999999862e-01 2.062765000000000271e+01 1.394600000000000080e+02 1.904434999999999945e+03
1.479999999999999927e-01 1.608104999999999951e-01 1.979844999999999899e+01 1.379755000000000109e+02 1.903950000000000045e+03
1.489999999999999936e-01 1.607500000000000040e-01 1.899419999999999931e+01 1.365345000000000084e+02 1.903470000000000027e+03
1.499999999999999944e-01 1.606914999999999871e-01 1.822364999999999924e+01 1.351569999999999823e+02 1.903000000000000000e+03
1.509999999999999953e-01 1.606354999999999866e-01 1.749500000000000099e+01 1.338600000000000136e+02 1.902550000000000182e+03
1.519999999999999962e-01 1.605820000000000025e-01 1.681535000000000224e+01 1.326600000000000250e+02 1.902119999999999891e+03
1.529999999999999971e-01 1.605320000000000080e-01 1.619085000000000107e+01 1.315695000000000050e+02 1.901715000000000146e+03
1.539999999999999980e-01 1.604865000000000042e-01 1.562609999999999921e+01 1.305964999999999918e+02 1.901344999999999800e+03
1.549999999999999989e-01 1.604444999999999899e-01 1.512424999999999997e+01 1.297475000000000023e+02 1.901009999999999991e+03
1.559999999999999998e-01 1.604079999999999950e-01 1.468690000000000140e+01 1.290240000000000009e+02 1.900704999999999927e+03
1.570000000000000007e-01 1.603755000000000042e-01 1.431414999999999971e+01 1.284245000000000232e+02 1.900450000000000045e+03
1.580000000000000016e-01 1.603485000000000049e-01 1.400459999999999994e+01 1.279445000000000050e+02 1.900224999999999909e+03
1.590000000000000024e-01 1.603255000000000097e-01 1.375550000000000139e+01 1.275775000000000006e+02 1.900035000000000082e+03
