# t [s], A [cm^2], U [cm/s], P [cPa], c [cm/s]
1.000000000000000021e-03 6.774089999999999279e-01 6.336500000000001853e-03 9.665085000000000548e+01 1.693069999999999936e+03
2.000000000000000042e-03 6.773964999999999570e-01 -3.099326500000000074e-03 9.661629999999999541e+01 1.693059999999999945e+03
3.000000000000000062e-03 6.774590000000000334e-01 1.083681999999999979e-01 9.674035000000000650e+01 1.693085000000000036e+03
4.000000000000000083e-03 6.775065000000000115e-01 2.088270000000000126e-01 9.686294999999999789e+01 1.693110000000000127e+03
5.000000000000000104e-03 6.774605000000000210e-01 1.604278000000000093e-01 9.675279999999999347e+01 1.693095000000000027e+03
6.000000000000000125e-03 6.773804999999999410e-01 4.585649999999996673e-02 9.647005000000000052e+01 1.693029999999999973e+03
7.000000000000000146e-03 6.773120000000000251e-01 -5.921999999999999487e-02 9.613219999999999743e+01 1.692960000000000036e+03
8.000000000000000167e-03 6.771920000000000162e-01 -2.700200000000000378e-01 9.561010000000000275e+01 1.692855000000000018e+03
9.000000000000001055e-03 6.770015000000000338e-01 -6.268949999999999800e-01 9.481555000000000177e+01 1.692694999999999936e+03
1.000000000000000194e-02 6.767374999999999918e-01 -1.125944999999999974e+00 9.370980000000000132e+01 1.692465000000000146e+03
1.099999999999999936e-02 6.763744999999999896e-01 -1.799705000000000332e+00 9.220499999999999829e+01 1.692150000000000091e+03
1.200000000000000025e-02 6.759100000000000108e-01 -2.631664999999999921e+00 9.026649999999999352e+01 1.691735000000000127e+03
1.300000000000000114e-02 6.754054999999999920e-01 -3.484515000000000029e+00 8.803525000000000489e+01 1.691250000000000000e+03
1.400000000000000203e-02 6.749514999999999265e-01 -4.157944500000000154e+00 8.578870000000000573e+01 1.690739999999999782e+03
1.499999999999999944e-02 6.746099999999999319e-01 -4.501279000000000252e+00 8.378985000000000127e+01 1.690260000000000218e+03
1.600000000000000033e-02 6.743850000000000122e-01 -4.476525000000000531e+00 8.216814999999999714e+01 1.689840000000000146e+03
1.700000000000000122e-02 6.742314999999999836e-01 -4.150884999999999714e+00 8.089055000000000462e+01 1.689485000000000127e+03
1.800000000000000211e-02 6.740855000000000041e-01 -3.648855000000000182e+00 7.980660000000000309e+01 1.689164999999999964e+03
1.900000000000000300e-02 6.738914999999999766e-01 -3.095152500000000195e+00 7.872679999999999723e+01 1.688849999999999909e+03
2.000000000000000042e-02 6.736210000000000253e-01 -2.568940449999999931e+00 7.750219999999998777e+01 1.688514999999999873e+03
2.100000000000000130e-02 6.732820000000000471e-01 -2.083415000000000017e+00 7.607644999999999413e+01 1.688139999999999873e+03
2.200000000000000219e-02 6.729060000000000041e-01 -1.597034999999999982e+00 7.449179999999999779e+01 1.687730000000000018e+03
2.299999999999999961e-02 6.725335000000000063e-01 -1.048605000000000231e+00 7.285075000000000500e+01 1.687304999999999836e+03
2.400000000000000050e-02 6.721909999999999830e-01 -3.969949999999999868e-01 7.125694999999998913e+01 1.686890000000000100e+03
2.500000000000000139e-02 6.718819999999999792e-01 3.521149999999999558e-01 6.976324999999999932e+01 1.686485000000000127e+03
2.600000000000000228e-02 6.715854999999999464e-01 1.139915000000000012e+00 6.834485000000000809e+01 1.686099999999999909e+03
2.700000000000000316e-02 6.712614999999999554e-01 1.866545000000000121e+00 6.690170000000000528e+01 1.685704999999999927e+03
2.800000000000000058e-02 6.708665000000000322e-01 2.415719999999999867e+00 6.528499999999999659e+01 1.685289999999999964e+03
2.900000000000000147e-02 6.703630000000000422e-01 2.684950000000000614e+00 6.334069999999999823e+01 1.684809999999999945e+03
3.000000000000000236e-02 6.697334999999999816e-01 2.613589999999999858e+00 6.095714999999999861e+01 1.684235000000000127e+03
3.099999999999999978e-02 6.689875000000000682e-01 2.200170000000000403e+00 5.810430000000000206e+01 1.683579999999999927e+03
3.200000000000000067e-02 6.681599999999999762e-01 1.502815000000000456e+00 5.484919999999999618e+01 1.682824999999999818e+03
3.300000000000000155e-02 6.673025000000000206e-01 6.231099999999996086e-01 5.134470000000000312e+01 1.682014999999999873e+03
3.400000000000000244e-02 6.664719999999999533e-01 -3.192750000000001975e-01 4.779710000000000036e+01 1.681184999999999945e+03
3.500000000000000333e-02 6.657184999999999908e-01 -1.211114999999999942e+00 4.442624999999999602e+01 1.680380000000000109e+03
3.600000000000000422e-02 6.650804999999999634e-01 -1.962799999999999656e+00 4.142980000000000018e+01 1.679639999999999873e+03
3.700000000000000511e-02 6.645799999999999486e-01 -2.515839999999999854e+00 3.895990000000000464e+01 1.679014999999999873e+03
3.799999999999999906e-02 6.642269999999999008e-01 -2.841994999999999827e+00 3.711240000000000094e+01 1.678509999999999991e+03
3.899999999999999994e-02 6.640194999999999848e-01 -2.936533499999999908e+00 3.592880000000000251e+01 1.678159999999999854e+03
4.000000000000000083e-02 6.639490000000000114e-01 -2.808650000000000091e+00 3.540694999999999482e+01 1.677954999999999927e+03
4.100000000000000172e-02 6.640059999999999851e-01 -2.471950000000000092e+00 3.551614999999999611e+01 1.677904999999999973e+03
4.200000000000000261e-02 6.641810000000000214e-01 -1.937226000000000115e+00 3.621280000000000143e+01 1.677994999999999891e+03
4.300000000000000350e-02 6.644660000000000011e-01 -1.209229999999999805e+00 3.745244999999999891e+01 1.678220000000000027e+03
4.400000000000000439e-02 6.648570000000000313e-01 -2.876099999999999213e-01 3.919565000000000055e+01 1.678570000000000164e+03
4.499999999999999833e-02 6.653489999999999682e-01 8.289450000000000429e-01 4.140749999999999886e+01 1.679039999999999964e+03
4.599999999999999922e-02 6.659370000000000012e-01 2.137399999999999967e+00 4.405315000000000225e+01 1.679619999999999891e+03
4.700000000000000011e-02 6.666100000000000358e-01 3.625819999999999599e+00 4.709159999999999968e+01 1.680295000000000073e+03
4.800000000000000100e-02 6.673565000000000191e-01 5.271144999999999747e+00 5.047080000000000410e+01 1.681059999999999945e+03
4.900000000000000189e-02 6.681595000000000173e-01 7.039395000000000735e+00 5.412610000000000099e+01 1.681900000000000091e+03
5.000000000000000278e-02 6.689990000000000103e-01 8.888357500000001465e+00 5.798144999999999527e+01 1.682800000000000182e+03
5.100000000000000366e-02 6.698560000000000070e-01 1.077176000000000045e+01 6.195370000000000488e+01 1.683735000000000127e+03
5.200000000000000455e-02 6.707110000000000571e-01 1.264357000000000042e+01 6.595940000000000225e+01 1.684695000000000164e+03
5.300000000000000544e-02 6.715480000000000338e-01 1.446228499999999961e+01 6.992069999999999652e+01 1.685654999999999973e+03
5.399999999999999939e-02 6.723540000000000072e-01 1.619401999999999830e+01 7.377185000000000059e+01 1.686595000000000027e+03
5.500000000000000028e-02 6.731225000000000680e-01 1.781394999999999840e+01 7.746299999999999386e+01 1.687515000000000100e+03
5.600000000000000117e-02 6.738474999999999326e-01 1.930675000000000097e+01 8.096200000000000330e+01 1.688394999999999982e+03
5.700000000000000205e-02 6.745299999999999629e-01 2.066584999999999894e+01 8.425475000000000136e+01 1.689234999999999900e+03
5.800000000000000294e-02 6.751724999999999532e-01 2.189179999999999993e+01 8.734284999999999854e+01 1.690034999999999854e+03
5.900000000000000383e-02 6.757790000000000186e-01 2.299105000000000132e+01 9.024125000000000796e+01 1.690789999999999964e+03
6.000000000000000472e-02 6.763565000000000271e-01 2.397395000000000209e+01 9.297485000000000355e+01 1.691505000000000109e+03
6.099999999999999867e-02 6.769125000000000281e-01 2.485379999999999967e+01 9.557439999999999714e+01 1.692184999999999945e+03
6.199999999999999956e-02 6.774534999999999307e-01 2.564515000000000100e+01 9.807460000000000377e+01 1.692845000000000027e+03
6.300000000000000044e-02 6.779865000000000475e-01 2.636270000000000024e+01 1.005104000000000042e+02 1.693480000000000018e+03
6.400000000000000133e-02 6.785179999999999545e-01 2.702064999999999984e+01 1.029120499999999936e+02 1.694110000000000127e+03
6.500000000000000222e-02 6.790519999999999889e-01 2.763080000000000069e+01 1.053059999999999974e+02 1.694735000000000127e+03
6.600000000000000311e-02 6.795919999999999739e-01 2.820199999999999818e+01 1.077110000000000127e+02 1.695355000000000018e+03
6.700000000000000400e-02 6.801379999999999093e-01 2.873939999999999984e+01 1.101334999999999980e+02 1.695980000000000018e+03
6.800000000000000488e-02 6.806875000000000009e-01 2.924385000000000190e+01 1.125720000000000027e+02 1.696605000000000018e+03
6.900000000000000577e-02 6.812374999999999403e-01 2.971220000000000283e+01 1.150134999999999934e+02 1.697230000000000018e+03
7.000000000000000666e-02 6.817805000000000115e-01 3.013765000000000072e+01 1.174364999999999952e+02 1.697855000000000018e+03
7.100000000000000755e-02 6.823110000000000008e-01 3.051105000000000089e+01 1.198114999999999952e+02 1.698464999999999918e+03
7.200000000000000844e-02 6.828205000000000524e-01 3.082169999999999987e+01 1.221045000000000016e+02 1.699059999999999945e+03
7.300000000000000933e-02 6.833009999999999362e-01 3.105850000000000222e+01 1.242810000000000059e+02 1.699625000000000000e+03
7.399999999999999634e-02 6.837455000000000060e-01 3.121140000000000114e+01 1.263064999999999998e+02 1.700159999999999854e+03
7.499999999999999722e-02 6.841490000000000071e-01 3.127175000000000082e+01 1.281494999999999891e+02 1.700650000000000091e+03
7.599999999999999811e-02 6.845045000000000712e-01 3.123310000000000031e+01 1.297839999999999918e+02 1.701090000000000146e+03
7.699999999999999900e-02 6.848099999999999188e-01 3.109159999999999968e+01 1.311920000000000073e+02 1.701480000000000018e+03
7.799999999999999989e-02 6.850629999999999775e-01 3.084615000000000151e+01 1.323595000000000255e+02 1.701815000000000055e+03
7.900000000000000078e-02 6.852635000000000254e-01 3.049840000000000373e+01 1.332824999999999989e+02 1.702090000000000146e+03
8.000000000000000167e-02 6.854120000000000212e-01 3.005260000000000176e+01 1.339635000000000105e+02 1.702305000000000064e+03
8.100000000000000255e-02 6.855109999999999815e-01 2.951580000000000226e+01 1.344114999999999895e+02 1.702454999999999927e+03
8.200000000000000344e-02 6.855649999999999800e-01 2.889714999999999634e+01 1.346424999999999841e+02 1.702555000000000064e+03
8.300000000000000433e-02 6.855780000000000207e-01 2.820810000000000173e+01 1.346759999999999877e+02 1.702605000000000018e+03
8.400000000000000522e-02 6.855560000000000542e-01 2.746174999999999855e+01 1.345384999999999991e+02 1.702610000000000127e+03
8.500000000000000611e-02 6.855050000000000310e-01 2.667235000000000156e+01 1.342579999999999814e+02 1.702569999999999936e+03
8.600000000000000699e-02 6.854309999999999015e-01 2.585510000000000019e+01 1.338650000000000091e+02 1.702500000000000000e+03
8.700000000000000788e-02 6.853424999999999656e-01 2.502505000000000024e+01 1.333909999999999911e+02 1.702409999999999854e+03
8.800000000000000877e-02 6.852445000000000341e-01 2.419704999999999728e+01 1.328675000000000068e+02 1.702300000000000182e+03
8.899999999999999578e-02 6.851430000000000575e-01 2.338445000000000107e+01 1.323224999999999909e+02 1.702174999999999955e+03
8.999999999999999667e-02 6.850439999999999863e-01 2.259894999999999854e+01 1.317824999999999989e+02 1.702049999999999955e+03
9.099999999999999756e-02 6.849509999999999765e-01 2.185000000000000142e+01 1.312704999999999984e+02 1.701924999999999955e+03
9.199999999999999845e-02 6.848674999999999624e-01 2.114424999999999955e+01 1.308019999999999925e+02 1.701809999999999945e+03
9.299999999999999933e-02 6.847950000000000426e-01 2.048539999999999850e+01 1.303885000000000218e+02 1.701699999999999818e+03
9.400000000000000022e-02 6.847339999999999538e-01 1.987434999999999974e+01 1.300364999999999895e+02 1.701605000000000018e+03
9.500000000000000111e-02 6.846845000000000292e-01 1.930904999999999916e+01 1.297445000000000164e+02 1.701525000000000091e+03
9.600000000000000200e-02 6.846444999999999892e-01 1.878509999999999991e+01 1.295095000000000027e+02 1.701454999999999927e+03
9.700000000000000289e-02 6.846114999999999284e-01 1.829589999999999961e+01 1.293195000000000050e+02 1.701400000000000091e+03
9.800000000000000377e-02 6.845835000000000115e-01 1.783330000000000126e+01 1.291634999999999991e+02 1.701349999999999909e+03
9.900000000000000466e-02 6.845554999999999835e-01 1.738800000000000168e+01 1.290244999999999891e+02 1.701304999999999836e+03
1.000000000000000056e-01 6.845250000000000501e-01 1.695019999999999882e+01 1.288865000000000123e+02 1.701264999999999873e+03
1.010000000000000064e-01 6.844875000000000265e-01 1.651004999999999967e+01 1.287324999999999875e+02 1.701215000000000146e+03
1.020000000000000073e-01 6.844405000000000072e-01 1.605825000000000102e+01 1.285450000000000159e+02 1.701164999999999964e+03
1.030000000000000082e-01 6.843810000000000171e-01 1.558644999999999925e+01 1.283094999999999857e+02 1.701105000000000018e+03
1.040000000000000091e-01 6.843069999999999986e-01 1.508780000000000143e+01 1.280144999999999982e+02 1.701034999999999854e+03
1.050000000000000100e-01 6.842169999999999641e-01 1.455744999999999933e+01 1.276514999999999986e+02 1.700949999999999818e+03
1.059999999999999970e-01 6.841105000000000658e-01 1.399249999999999972e+01 1.272160000000000082e+02 1.700845000000000027e+03
1.069999999999999979e-01 6.839880000000000404e-01 1.339249500000000026e+01 1.267074999999999960e+02 1.700730000000000018e+03
1.079999999999999988e-01 6.838515000000000565e-01 1.275947000000000031e+01 1.261299999999999955e+02 1.700595000000000027e+03
1.089999999999999997e-01 6.837035000000000196e-01 1.209770999999999930e+01 1.254935000000000116e+02 1.700440000000000055e+03
1.100000000000000006e-01 6.835465000000000568e-01 1.141366499999999995e+01 1.248105000000000047e+02 1.700279999999999973e+03
1.110000000000000014e-01 6.833854999999999791e-01 1.071558999999999884e+01 1.240974999999999966e+02 1.700110000000000127e+03
1.120000000000000023e-01 6.832240000000000535e-01 1.001309999999999967e+01 1.233735000000000070e+02 1.699934999999999945e+03
1.130000000000000032e-01 6.830674999999999386e-01 9.316819999999999879e+00 1.226589999999999918e+02 1.699764999999999873e+03
1.140000000000000041e-01 6.829205000000000414e-01 8.637529999999999930e+00 1.219754999999999967e+02 1.699595000000000027e+03
1.150000000000000050e-01 6.827864999999999629e-01 7.986005000000000464e+00 1.213435000000000059e+02 1.699434999999999945e+03
1.160000000000000059e-01 6.826710000000000278e-01 7.372104999999999464e+00 1.207820000000000107e+02 1.699289999999999964e+03
1.170000000000000068e-01 6.825759999999999605e-01 6.804634999999999323e+00 1.203079999999999927e+02 1.699164999999999964e+03
1.180000000000000077e-01 6.825045000000000694e-01 6.290664999999999729e+00 1.199344999999999999e+02 1.699065000000000055e+03
1.190000000000000085e-01 6.824580000000000091e-01 5.835354999999999848e+00 1.196694999999999993e+02 1.698985000000000127e+03
1.200000000000000094e-01 6.824360000000000426e-01 5.441720000000000113e+00 1.195190000000000055e+02 1.698929999999999836e+03
1.209999999999999964e-01 6.824394999999999767e-01 5.110554999999999737e+00 1.194819999999999993e+02 1.698904999999999973e+03
1.219999999999999973e-01 6.824654999999999472e-01 4.840500000000000469e+00 1.195540000000000020e+02 1.698910000000000082e+03
1.229999999999999982e-01 6.825129999999999253e-01 4.628194999999999837e+00 1.197265000000000015e+02 1.698929999999999836e+03
1.239999999999999991e-01 6.825784999999999769e-01 4.468560000000000088e+00 1.199869999999999948e+02 1.698980000000000018e+03
1.250000000000000000e-01 6.826579999999999870e-01 4.355114999999999625e+00 1.203220000000000027e+02 1.699045000000000073e+03
1.260000000000000009e-01 6.827484999999999804e-01 4.280375000000000263e+00 1.207125000000000057e+02 1.699130000000000109e+03
1.270000000000000018e-01 6.828449999999999243e-01 4.236245000000000260e+00 1.211419999999999959e+02 1.699224999999999909e+03
1.280000000000000027e-01 6.829445000000000654e-01 4.214420000000000499e+00 1.215925000000000011e+02 1.699329999999999927e+03
1.290000000000000036e-01 6.830435000000000256e-01 4.206724999999999604e+00 1.220469999999999970e+02 1.699429999999999836e+03
1.300000000000000044e-01 6.831384999999999819e-01 4.205445000000000100e+00 1.224885000000000019e+02 1.699535000000000082e+03
1.310000000000000053e-01 6.832264999999999588e-01 4.203574999999999839e+00 1.229039999999999964e+02 1.699634999999999991e+03
1.320000000000000062e-01 6.833050000000000512e-01 4.195005000000000095e+00 1.232814999999999941e+02 1.699730000000000018e+03
1.330000000000000071e-01 6.833735000000000781e-01 4.174680000000000391e+00 1.236109999999999900e+02 1.699809999999999945e+03
1.340000000000000080e-01 6.834294999999999121e-01 4.138634999999999842e+00 1.238864999999999981e+02 1.699884999999999991e+03
1.350000000000000089e-01 6.834724999999999273e-01 4.084064999999999834e+00 1.241034999999999968e+02 1.699945000000000164e+03
1.360000000000000098e-01 6.835035000000000416e-01 4.009290000000000020e+00 1.242609999999999957e+02 1.699990000000000009e+03
1.370000000000000107e-01 6.835210000000000452e-01 3.913695000000000146e+00 1.243590000000000089e+02 1.700025000000000091e+03
1.380000000000000115e-01 6.835275000000000656e-01 3.797639999999999905e+00 1.244000000000000057e+02 1.700039999999999964e+03
1.390000000000000124e-01 6.835229999999999917e-01 3.662349999999999994e+00 1.243880000000000052e+02 1.700045000000000073e+03
1.400000000000000133e-01 6.835089999999999222e-01 3.509780000000000122e+00 1.243284999999999911e+02 1.700039999999999964e+03
1.410000000000000142e-01 6.834864999999999968e-01 3.342455000000000176e+00 1.242270000000000039e+02 1.700025000000000091e+03
1.420000000000000151e-01 6.834575000000000511e-01 3.163300000000000001e+00 1.240910000000000082e+02 1.700000000000000000e+03
1.430000000000000160e-01 6.834234999999999616e-01 2.975459999999999994e+00 1.239265000000000043e+02 1.699964999999999918e+03
1.440000000000000169e-01 6.833845000000000613e-01 2.782150000000000123e+00 1.237400000000000091e+02 1.699920000000000073e+03
1.450000000000000178e-01 6.833439999999999515e-01 2.586465000000000014e+00 1.235384999999999991e+02 1.699875000000000000e+03
1.459999999999999909e-01 6.833004999999999773e-01 2.391249999999999876e+00 1.233259999999999934e+02 1.699829999999999927e+03
1.469999999999999918e-01 6.832575000000000731e-01 2.198984999999999967e+00 1.231069999999999993e+02 1.699775000000000091e+03
1.479999999999999927e-01 6.832130000000000702e-01 2.011670000000000069e+00 1.228849999999999909e+02 1.699724999999999909e+03
1.489999999999999936e-01 6.831685000000000674e-01 1.830797999999999925e+00 1.226614999999999895e+02 1.699670000000000073e+03
1.499999999999999944e-01 6.831234999999999946e-01 1.657320499999999974e+00 1.224369999999999976e+02 1.699615000000000009e+03
1.509999999999999953e-01 6.830789999999999917e-01 1.491695500000000063e+00 1.222119999999999891e+02 1.699559999999999945e+03
1.519999999999999962e-01 6.830330000000000013e-01 1.333919999999999995e+00 1.219844999999999970e+02 1.699505000000000109e+03
1.529999999999999971e-01 6.829855000000000231e-01 1.183641999999999861e+00 1.217524999999999977e+02 1.699445000000000164e+03
1.539999999999999980e-01 6.829365000000000574e-01 1.040248999999999979e+00 1.215134999999999934e+02 1.699384999999999991e+03
1.549999999999999989e-01 6.828849999999999643e-01 9.030299999999999994e-01 1.212655000000000030e+02 1.699324999999999818e+03
1.559999999999999998e-01 6.828300000000000480e-01 7.712535299999999650e-01 1.210060000000000002e+02 1.699259999999999991e+03
1.570000000000000007e-01 6.827719999999999345e-01 6.443130000000000246e-01 1.207325000000000017e+02 1.699195000000000164e+03
1.580000000000000016e-01 6.827104999999999979e-01 5.217999999999999305e-01 1.204440000000000026e+02 1.699119999999999891e+03
1.590000000000000024e-01 6.826449999999999463e-01 4.035779999999999923e-01 1.201405000000000030e+02 1.699045000000000073e+03
