# t [s], A [cm^2], U [cm/s], P [cPa], c [cm/s]
1.000000000000000021e-03 5.438790000000000013e-01 4.203499999999998904e-03 1.089474999999999909e+02 1.541420000000000073e+03
2.000000000000000042e-03 5.438724999999999810e-01 3.181399999999999593e-03 1.089254999999999995e+02 1.541414999999999964e+03
3.000000000000000062e-03 5.439285000000000370e-01 1.130900499999999836e-01 1.090380000000000109e+02 1.541444999999999936e+03
4.000000000000000083e-03 5.439690000000000358e-01 1.999205000000000010e-01 1.091440000000000055e+02 1.541474999999999909e+03
5.000000000000000104e-03 5.439380000000000326e-01 1.554742999999999820e-01 1.090610000000000070e+02 1.541460000000000036e+03
6.000000000000000125e-03 5.438764999999999850e-01 4.418950000000004819e-02 1.088179999999999978e+02 1.541405000000000200e+03
7.000000000000000146e-03 5.438150000000000484e-01 -7.586900000000001976e-02 1.084885000000000019e+02 1.541329999999999927e+03
8.000000000000000167e-03 5.437125000000000430e-01 -2.871899999999999453e-01 1.079859999999999900e+02 1.541204999999999927e+03
9.000000000000001055e-03 5.435470000000000024e-01 -6.352600000000000469e-01 1.072229999999999990e+02 1.541025000000000091e+03
1.000000000000000194e-02 5.433179999999999676e-01 -1.112750000000000128e+00 1.061624999999999943e+02 1.540764999999999873e+03
1.099999999999999936e-02 5.430094999999999228e-01 -1.733004999999999907e+00 1.047475000000000023e+02 1.540410000000000082e+03
1.200000000000000025e-02 5.426094999999999668e-01 -2.496215000000000295e+00 1.029299000000000035e+02 1.539950000000000045e+03
1.300000000000000114e-02 5.421454999999999469e-01 -3.321634999999999671e+00 1.007669499999999942e+02 1.539384999999999991e+03
1.400000000000000203e-02 5.416779999999999928e-01 -4.051099999999999923e+00 9.844214999999999804e+01 1.538759999999999991e+03
1.499999999999999944e-02 5.412700000000000289e-01 -4.521437999999999846e+00 9.619489999999998986e+01 1.538130000000000109e+03
1.600000000000000033e-02 5.409555000000000335e-01 -4.636102799999999746e+00 9.421774999999999523e+01 1.537534999999999854e+03
1.700000000000000122e-02 5.407275000000000276e-01 -4.392246000000000095e+00 9.259120000000000061e+01 1.537009999999999991e+03
1.800000000000000211e-02 5.405520000000000325e-01 -3.865564000000000000e+00 9.127450000000000330e+01 1.536549999999999955e+03
1.900000000000000300e-02 5.403819999999999180e-01 -3.172347499999999876e+00 9.013935000000000741e+01 1.536134999999999991e+03
2.000000000000000042e-02 5.401755000000000306e-01 -2.426384000000000096e+00 8.902545000000000641e+01 1.535724999999999909e+03
2.100000000000000130e-02 5.399104999999999599e-01 -1.703969999999999985e+00 8.779879999999999995e+01 1.535295000000000073e+03
2.200000000000000219e-02 5.395860000000000101e-01 -1.027995000000000214e+00 8.639150000000000773e+01 1.534829999999999927e+03
2.299999999999999961e-02 5.392209999999999503e-01 -3.758699999999999264e-01 8.481094999999999118e+01 1.534319999999999936e+03
2.400000000000000050e-02 5.388399999999999856e-01 2.948650000000001548e-01 8.311700000000000443e+01 1.533784999999999854e+03
2.500000000000000139e-02 5.384634999999999838e-01 1.016704999999999970e+00 8.138300000000000978e+01 1.533230000000000018e+03
2.600000000000000228e-02 5.380975000000000064e-01 1.790709999999999802e+00 7.965860000000000696e+01 1.532680000000000064e+03
2.700000000000000316e-02 5.377334999999999754e-01 2.579124999999999890e+00 7.794599999999999795e+01 1.532125000000000000e+03
2.800000000000000058e-02 5.373504999999999532e-01 3.311460000000000292e+00 7.619550000000000978e+01 1.531554999999999836e+03
2.900000000000000147e-02 5.369204999999999117e-01 3.900100000000000122e+00 7.431749999999999545e+01 1.530954999999999927e+03
3.000000000000000236e-02 5.364189999999999792e-01 4.260619999999999408e+00 7.220659999999999457e+01 1.530305000000000064e+03
3.099999999999999978e-02 5.358275000000000121e-01 4.331899999999999196e+00 6.977164999999999395e+01 1.529575000000000045e+03
3.200000000000000067e-02 5.351439999999999531e-01 4.091215000000000046e+00 6.696359999999999957e+01 1.528759999999999991e+03
3.300000000000000155e-02 5.343824999999999825e-01 3.560324999999999740e+00 6.379469999999999885e+01 1.527855000000000018e+03
3.400000000000000244e-02 5.335704999999999476e-01 2.801665000000000738e+00 6.034274999999999523e+01 1.526869999999999891e+03
3.500000000000000333e-02 5.327459999999999418e-01 1.905644999999999811e+00 5.674094999999999800e+01 1.525840000000000146e+03
3.600000000000000422e-02 5.319490000000000052e-01 9.744999999999999218e-01 5.315800000000000125e+01 1.524805000000000064e+03
3.700000000000000511e-02 5.312194999999999556e-01 1.063000000000000611e-01 4.977290000000000703e+01 1.523804999999999836e+03
3.799999999999999906e-02 5.305874999999999897e-01 -6.164350000000000662e-01 4.675239999999999441e+01 1.522889999999999873e+03
3.899999999999999994e-02 5.300764999999999505e-01 -1.133360000000000589e+00 4.423364999999999725e+01 1.522089999999999918e+03
4.000000000000000083e-02 5.296994999999999898e-01 -1.407245000000000079e+00 4.231414999999999793e+01 1.521450000000000045e+03
4.100000000000000172e-02 5.294619999999999882e-01 -1.421315000000000106e+00 4.104935000000000400e+01 1.520974999999999909e+03
4.200000000000000261e-02 5.293619999999999992e-01 -1.174072000000000227e+00 4.045604999999999762e+01 1.520690000000000055e+03
4.300000000000000350e-02 5.293930000000000025e-01 -6.735025000000000039e-01 4.052025000000000432e+01 1.520585000000000036e+03
4.400000000000000439e-02 5.295480000000000187e-01 6.798499999999996213e-02 4.120680000000000121e+01 1.520664999999999964e+03
4.499999999999999833e-02 5.298169999999999824e-01 1.036769999999999969e+00 4.246800000000000352e+01 1.520914999999999964e+03
4.599999999999999922e-02 5.301899999999999391e-01 2.219050000000000189e+00 4.425034999999999741e+01 1.521324999999999818e+03
4.700000000000000011e-02 5.306569999999999343e-01 3.600014999999999965e+00 4.649769999999999470e+01 1.521885000000000218e+03
4.800000000000000100e-02 5.312069999999999848e-01 5.161789999999999878e+00 4.915240000000000009e+01 1.522569999999999936e+03
4.900000000000000189e-02 5.318285000000000373e-01 6.881775000000000198e+00 5.215409999999999968e+01 1.523365000000000009e+03
5.000000000000000278e-02 5.325070000000000636e-01 8.730957300000000032e+00 5.543864999999999554e+01 1.524255000000000109e+03
5.100000000000000366e-02 5.332274999999999654e-01 1.067452499999999915e+01 5.893740000000000379e+01 1.525224999999999909e+03
5.200000000000000455e-02 5.339755000000000473e-01 1.267273499999999942e+01 6.257809999999999206e+01 1.526255000000000109e+03
5.300000000000000544e-02 5.347334999999999727e-01 1.468358999999999881e+01 6.628730000000000189e+01 1.527315000000000055e+03
5.399999999999999939e-02 5.354870000000000463e-01 1.666555999999999926e+01 6.999344999999999573e+01 1.528389999999999873e+03
5.500000000000000028e-02 5.362225000000000463e-01 1.858064999999999856e+01 7.363105000000000189e+01 1.529465000000000146e+03
5.600000000000000117e-02 5.369289999999999896e-01 2.039639999999999986e+01 7.714435000000000286e+01 1.530519999999999982e+03
5.700000000000000205e-02 5.375999999999999668e-01 2.208835000000000193e+01 8.049009999999999820e+01 1.531539999999999964e+03
5.800000000000000294e-02 5.382305000000000561e-01 2.364000000000000057e+01 8.364010000000000389e+01 1.532514999999999873e+03
5.900000000000000383e-02 5.388200000000000767e-01 2.504344999999999999e+01 8.658095000000000141e+01 1.533444999999999936e+03
6.000000000000000472e-02 5.393694999999999462e-01 2.629834999999999923e+01 8.931395000000000550e+01 1.534315000000000055e+03
6.099999999999999867e-02 5.398834999999999607e-01 2.741064999999999685e+01 9.185294999999999277e+01 1.535139999999999873e+03
6.199999999999999956e-02 5.403685000000000294e-01 2.839160000000000039e+01 9.422204999999999586e+01 1.535910000000000082e+03
6.300000000000000044e-02 5.408304999999999918e-01 2.925629999999999953e+01 9.645304999999999040e+01 1.536644999999999982e+03
6.400000000000000133e-02 5.412764999999999382e-01 3.002185000000000059e+01 9.858260000000001355e+01 1.537349999999999909e+03
6.500000000000000222e-02 5.417155000000000165e-01 3.070714999999999861e+01 1.006478500000000054e+02 1.538029999999999973e+03
6.600000000000000311e-02 5.421534999999999549e-01 3.133109999999999928e+01 1.026867499999999893e+02 1.538700000000000045e+03
6.700000000000000400e-02 5.425975000000000659e-01 3.191190000000000282e+01 1.047349999999999994e+02 1.539365000000000009e+03
6.800000000000000488e-02 5.430535000000000778e-01 3.246609999999999729e+01 1.068215000000000003e+02 1.540034999999999854e+03
6.900000000000000577e-02 5.435254999999999947e-01 3.300769999999999982e+01 1.089699999999999989e+02 1.540720000000000027e+03
7.000000000000000666e-02 5.440154999999999852e-01 3.354710000000000036e+01 1.111965000000000003e+02 1.541424999999999955e+03
7.100000000000000755e-02 5.445240000000000080e-01 3.409055000000000035e+01 1.135060000000000002e+02 1.542150000000000091e+03
7.200000000000000844e-02 5.450490000000000057e-01 3.463980000000000103e+01 1.158970000000000056e+02 1.542894999999999982e+03
7.300000000000000933e-02 5.455879999999999619e-01 3.519180000000000064e+01 1.183549999999999898e+02 1.543655000000000200e+03
7.399999999999999634e-02 5.461344999999999672e-01 3.573904999999999887e+01 1.208584999999999923e+02 1.544430000000000064e+03
7.499999999999999722e-02 5.466815000000000424e-01 3.627015000000000100e+01 1.233764999999999930e+02 1.545215000000000146e+03
7.599999999999999811e-02 5.472219999999999862e-01 3.677089999999999748e+01 1.258735000000000070e+02 1.545990000000000009e+03
7.699999999999999900e-02 5.477465000000000250e-01 3.722509999999999764e+01 1.283089999999999975e+02 1.546759999999999991e+03
7.799999999999999989e-02 5.482464999999999700e-01 3.761594999999999800e+01 1.306424999999999841e+02 1.547505000000000109e+03
7.900000000000000078e-02 5.487140000000000351e-01 3.792719999999999914e+01 1.328335000000000150e+02 1.548204999999999927e+03
8.000000000000000167e-02 5.491414999999999491e-01 3.814405000000000001e+01 1.348439999999999941e+02 1.548860000000000127e+03
8.100000000000000255e-02 5.495240000000000125e-01 3.825410000000000110e+01 1.366449999999999818e+02 1.549460000000000036e+03
8.200000000000000344e-02 5.498555000000000526e-01 3.824809999999999377e+01 1.382094999999999914e+02 1.549990000000000009e+03
8.300000000000000433e-02 5.501335000000000530e-01 3.812035000000000196e+01 1.395219999999999914e+02 1.550449999999999818e+03
8.400000000000000522e-02 5.503569999999999851e-01 3.786894999999999811e+01 1.405730000000000075e+02 1.550835000000000036e+03
8.500000000000000611e-02 5.505275000000000585e-01 3.749564999999999770e+01 1.413634999999999877e+02 1.551144999999999982e+03
8.600000000000000699e-02 5.506450000000000511e-01 3.700600000000000023e+01 1.419014999999999986e+02 1.551380000000000109e+03
8.700000000000000788e-02 5.507155000000000244e-01 3.640885000000000105e+01 1.422024999999999864e+02 1.551539999999999964e+03
8.800000000000000877e-02 5.507419999999999538e-01 3.571590000000000487e+01 1.422870000000000061e+02 1.551630000000000109e+03
8.899999999999999578e-02 5.507315000000000405e-01 3.494134999999999991e+01 1.421829999999999927e+02 1.551659999999999854e+03
8.999999999999999667e-02 5.506889999999999841e-01 3.410090000000000288e+01 1.419205000000000041e+02 1.551639999999999873e+03
9.099999999999999756e-02 5.506219999999999448e-01 3.321184999999999832e+01 1.415320000000000107e+02 1.551574999999999818e+03
9.199999999999999845e-02 5.505370000000000541e-01 3.229144999999999754e+01 1.410515000000000043e+02 1.551474999999999909e+03
9.299999999999999933e-02 5.504419999999999868e-01 3.135704999999999742e+01 1.405120000000000005e+02 1.551345000000000027e+03
9.400000000000000022e-02 5.503409999999999691e-01 3.042499999999999716e+01 1.399445000000000050e+02 1.551204999999999927e+03
9.500000000000000111e-02 5.502409999999999801e-01 2.951015000000000299e+01 1.393770000000000095e+02 1.551050000000000182e+03
9.600000000000000200e-02 5.501460000000000239e-01 2.862530000000000285e+01 1.388335000000000150e+02 1.550904999999999973e+03
9.700000000000000289e-02 5.500599999999999934e-01 2.778074999999999761e+01 1.383329999999999984e+02 1.550755000000000109e+03
9.800000000000000377e-02 5.499855000000000160e-01 2.698404999999999987e+01 1.378899999999999864e+02 1.550625000000000000e+03
9.900000000000000466e-02 5.499230000000000507e-01 2.623964999999999748e+01 1.375124999999999886e+02 1.550505000000000109e+03
1.000000000000000056e-01 5.498735000000000150e-01 2.554925000000000068e+01 1.372024999999999864e+02 1.550394999999999982e+03
1.010000000000000064e-01 5.498359999999999914e-01 2.491125000000000256e+01 1.369575000000000102e+02 1.550315000000000055e+03
1.020000000000000073e-01 5.498079999999999634e-01 2.432169999999999987e+01 1.367694999999999936e+02 1.550240000000000009e+03
1.030000000000000082e-01 5.497874999999999845e-01 2.377434999999999832e+01 1.366265000000000214e+02 1.550184999999999945e+03
1.040000000000000091e-01 5.497705000000000508e-01 2.326084999999999781e+01 1.365124999999999886e+02 1.550134999999999991e+03
1.050000000000000100e-01 5.497530000000000472e-01 2.277174999999999727e+01 1.364089999999999918e+02 1.550090000000000146e+03
1.059999999999999970e-01 5.497319999999999984e-01 2.229659999999999798e+01 1.362975000000000136e+02 1.550045000000000073e+03
1.069999999999999979e-01 5.497024999999999828e-01 2.182489999999999952e+01 1.361580000000000155e+02 1.549994999999999891e+03
1.079999999999999988e-01 5.496615000000000251e-01 2.134625000000000128e+01 1.359714999999999918e+02 1.549934999999999945e+03
1.089999999999999997e-01 5.496050000000000102e-01 2.085099999999999909e+01 1.357214999999999918e+02 1.549855000000000018e+03
1.100000000000000006e-01 5.495305000000000328e-01 2.033105000000000118e+01 1.353919999999999959e+02 1.549759999999999991e+03
1.110000000000000014e-01 5.494364999999999943e-01 1.977980000000000160e+01 1.349724999999999966e+02 1.549634999999999991e+03
1.120000000000000023e-01 5.493219999999999770e-01 1.919255000000000067e+01 1.344549999999999841e+02 1.549490000000000009e+03
1.130000000000000032e-01 5.491850000000000342e-01 1.856694999999999851e+01 1.338375000000000057e+02 1.549315000000000055e+03
1.140000000000000041e-01 5.490279999999999605e-01 1.790305000000000035e+01 1.331195000000000164e+02 1.549110000000000127e+03
1.150000000000000050e-01 5.488515000000000477e-01 1.720315000000000083e+01 1.323075000000000045e+02 1.548880000000000109e+03
1.160000000000000059e-01 5.486575000000000202e-01 1.647180000000000177e+01 1.314105000000000132e+02 1.548619999999999891e+03
1.170000000000000068e-01 5.484504999999999519e-01 1.571579999999999977e+01 1.304435000000000002e+02 1.548340000000000146e+03
1.180000000000000077e-01 5.482335000000000402e-01 1.494366499999999931e+01 1.294225000000000136e+02 1.548045000000000073e+03
1.190000000000000085e-01 5.480110000000000259e-01 1.416536499999999954e+01 1.283665000000000020e+02 1.547735000000000127e+03
1.200000000000000094e-01 5.477870000000000239e-01 1.339204000000000150e+01 1.272974999999999852e+02 1.547414999999999964e+03
1.209999999999999964e-01 5.475665000000000671e-01 1.263527000000000022e+01 1.262379999999999995e+02 1.547095000000000027e+03
1.219999999999999973e-01 5.473540000000000072e-01 1.190682499999999955e+01 1.252094999999999914e+02 1.546779999999999973e+03
1.229999999999999982e-01 5.471540000000000292e-01 1.121800999999999959e+01 1.242334999999999923e+02 1.546485000000000127e+03
1.239999999999999991e-01 5.469705000000000261e-01 1.057919500000000035e+01 1.233294999999999959e+02 1.546194999999999936e+03
1.250000000000000000e-01 5.468064999999999731e-01 9.999439999999999884e+00 1.225140000000000100e+02 1.545934999999999945e+03
1.260000000000000009e-01 5.466640000000000388e-01 9.486200000000000188e+00 1.218019999999999925e+02 1.545700000000000045e+03
1.270000000000000018e-01 5.465455000000000174e-01 9.044800000000000395e+00 1.212015000000000100e+02 1.545494999999999891e+03
1.280000000000000027e-01 5.464514999999999789e-01 8.678594999999999615e+00 1.207194999999999965e+02 1.545320000000000164e+03
1.290000000000000036e-01 5.463830000000000631e-01 8.388519999999999754e+00 1.203575000000000017e+02 1.545184999999999945e+03
1.300000000000000044e-01 5.463379999999999903e-01 8.173424999999999940e+00 1.201135000000000019e+02 1.545079999999999927e+03
1.310000000000000053e-01 5.463155000000000650e-01 8.030134999999999579e+00 1.199805000000000064e+02 1.545005000000000109e+03
1.320000000000000062e-01 5.463130000000000486e-01 7.953529999999999767e+00 1.199499999999999886e+02 1.544969999999999800e+03
1.330000000000000071e-01 5.463279999999999248e-01 7.937005000000000088e+00 1.200090000000000003e+02 1.544954999999999927e+03
1.340000000000000080e-01 5.463569999999999816e-01 7.972694999999999865e+00 1.201435000000000031e+02 1.544965000000000146e+03
1.350000000000000089e-01 5.463974999999999804e-01 8.051905000000001422e+00 1.203384999999999962e+02 1.545000000000000000e+03
1.360000000000000098e-01 5.464454999999999174e-01 8.165435000000000443e+00 1.205759999999999934e+02 1.545045000000000073e+03
1.370000000000000107e-01 5.464979999999999283e-01 8.303979999999999251e+00 1.208414999999999964e+02 1.545109999999999900e+03
1.380000000000000115e-01 5.465519999999999268e-01 8.458420000000000272e+00 1.211189999999999998e+02 1.545175000000000182e+03
1.390000000000000124e-01 5.466044999999999376e-01 8.620179999999999509e+00 1.213944999999999936e+02 1.545244999999999891e+03
1.400000000000000133e-01 5.466529999999999445e-01 8.781439999999999912e+00 1.216555000000000035e+02 1.545315000000000055e+03
1.410000000000000142e-01 5.466960000000000708e-01 8.935359999999999303e+00 1.218909999999999911e+02 1.545380000000000109e+03
1.420000000000000151e-01 5.467314999999999259e-01 9.076235000000000497e+00 1.220939999999999941e+02 1.545440000000000055e+03
1.430000000000000160e-01 5.467594999999999539e-01 9.199564999999999770e+00 1.222584999999999980e+02 1.545490000000000009e+03
1.440000000000000169e-01 5.467785000000000561e-01 9.302130000000000010e+00 1.223810000000000002e+02 1.545529999999999973e+03
1.450000000000000178e-01 5.467889999999999695e-01 9.381959999999999411e+00 1.224604999999999961e+02 1.545559999999999945e+03
1.459999999999999909e-01 5.467914999999999859e-01 9.438235000000000596e+00 1.224985000000000070e+02 1.545569999999999936e+03
1.469999999999999918e-01 5.467865000000000641e-01 9.471389999999999532e+00 1.224980000000000047e+02 1.545579999999999927e+03
1.479999999999999927e-01 5.467750000000000110e-01 9.482635000000000147e+00 1.224629999999999939e+02 1.545579999999999927e+03
1.489999999999999936e-01 5.467585000000000361e-01 9.474235000000000184e+00 1.223995000000000033e+02 1.545565000000000055e+03
1.499999999999999944e-01 5.467379999999999463e-01 9.448995000000000033e+00 1.223135000000000048e+02 1.545549999999999955e+03
1.509999999999999953e-01 5.467150000000000620e-01 9.410270000000000579e+00 1.222129999999999939e+02 1.545525000000000091e+03
1.519999999999999962e-01 5.466919999999999558e-01 9.361715000000000231e+00 1.221050000000000040e+02 1.545500000000000000e+03
1.529999999999999971e-01 5.466689999999999605e-01 9.307035000000000835e+00 1.219960000000000093e+02 1.545469999999999800e+03
1.539999999999999980e-01 5.466480000000000228e-01 9.249969999999999359e+00 1.218925000000000125e+02 1.545440000000000055e+03
1.549999999999999989e-01 5.466299999999999493e-01 9.194034999999999513e+00 1.218004999999999995e+02 1.545414999999999964e+03
1.559999999999999998e-01 5.466159999999999908e-01 9.142344999999998834e+00 1.217254999999999967e+02 1.545394999999999982e+03
1.570000000000000007e-01 5.466069999999999540e-01 9.097585000000000477e+00 1.216705000000000041e+02 1.545380000000000109e+03
1.580000000000000016e-01 5.466024999999999912e-01 9.061704999999999899e+00 1.216370000000000005e+02 1.545369999999999891e+03
1.590000000000000024e-01 5.466024999999999912e-01 9.036260000000000403e+00 1.216274999999999977e+02 1.545365000000000009e+03
