# t [s], A [cm^2], U [cm/s], P [cPa], c [cm/s]
1.000000000000000021e-03 1.444754999999999789e-01 4.707324999999999982e-01 1.033329999999999984e+02 1.940690000000000055e+03
2.000000000000000042e-03 1.444310000000000038e-01 2.306750000000000078e+00 9.953020000000000778e+01 1.940200000000000045e+03
3.000000000000000062e-03 1.443070000000000186e-01 4.505285499999999388e+00 9.451030000000000086e+01 1.938904999999999973e+03
4.000000000000000083e-03 1.441365000000000007e-01 6.939671999999999841e+00 8.926490000000001146e+01 1.937155000000000200e+03
5.000000000000000104e-03 1.439529999999999976e-01 9.520244999999999180e+00 8.471195000000000164e+01 1.935289999999999964e+03
6.000000000000000125e-03 1.437755000000000005e-01 1.204224999999999923e+01 8.105025000000000546e+01 1.933494999999999891e+03
7.000000000000000146e-03 1.436085000000000000e-01 1.428675000000000139e+01 7.795364999999999611e+01 1.931849999999999909e+03
8.000000000000000167e-03 1.434555000000000136e-01 1.618574999999999875e+01 7.517785000000000650e+01 1.930349999999999909e+03
9.000000000000001055e-03 1.433200000000000029e-01 1.778715000000000046e+01 7.277609999999999957e+01 1.929049999999999955e+03
1.000000000000000194e-02 1.432039999999999980e-01 1.912720000000000198e+01 7.080915000000000248e+01 1.927945000000000164e+03
1.099999999999999936e-02 1.431074999999999986e-01 2.022139999999999915e+01 6.923465000000000202e+01 1.927034999999999854e+03
1.200000000000000025e-02 1.430289999999999895e-01 2.108980000000000032e+01 6.799219999999999686e+01 1.926309999999999945e+03
1.300000000000000114e-02 1.429659999999999820e-01 2.174605000000000032e+01 6.700759999999999650e+01 1.925730000000000018e+03
1.400000000000000203e-02 1.429144999999999999e-01 2.220230000000000103e+01 6.618280000000000030e+01 1.925264999999999873e+03
1.499999999999999944e-02 1.428725000000000134e-01 2.251190000000000069e+01 6.549729999999999563e+01 1.924894999999999982e+03
1.600000000000000033e-02 1.428419999999999968e-01 2.279424999999999812e+01 6.512154999999999916e+01 1.924634999999999991e+03
1.700000000000000122e-02 1.428294999999999981e-01 2.319754999999999967e+01 6.537744999999999607e+01 1.924539999999999964e+03
1.800000000000000211e-02 1.428429999999999978e-01 2.382254999999999967e+01 6.654219999999999402e+01 1.924674999999999955e+03
1.900000000000000300e-02 1.428854999999999986e-01 2.466300000000000026e+01 6.863989999999999725e+01 1.925085000000000036e+03
2.000000000000000042e-02 1.429520000000000235e-01 2.560060000000000002e+01 7.136310000000000286e+01 1.925720000000000027e+03
2.100000000000000130e-02 1.430325000000000069e-01 2.645125000000000171e+01 7.415989999999999327e+01 1.926494999999999891e+03
2.200000000000000219e-02 1.431109999999999882e-01 2.703484999999999872e+01 7.642815000000000225e+01 1.927259999999999991e+03
2.299999999999999961e-02 1.431735000000000091e-01 2.723640000000000327e+01 7.771970000000000312e+01 1.927875000000000000e+03
2.400000000000000050e-02 1.432100000000000040e-01 2.703800000000000026e+01 7.787475000000000591e+01 1.928259999999999991e+03
2.500000000000000139e-02 1.432184999999999986e-01 2.651359999999999673e+01 7.704269999999999641e+01 1.928365000000000009e+03
2.600000000000000228e-02 1.432035000000000113e-01 2.579269999999999996e+01 7.559480000000000643e+01 1.928250000000000000e+03
2.700000000000000316e-02 1.431735000000000091e-01 2.501154999999999973e+01 7.397440000000000282e+01 1.927984999999999900e+03
2.800000000000000058e-02 1.431395000000000028e-01 2.427080000000000126e+01 7.254664999999999964e+01 1.927660000000000082e+03
2.900000000000000147e-02 1.431069999999999842e-01 2.361325000000000074e+01 7.150184999999999036e+01 1.927349999999999909e+03
3.000000000000000236e-02 1.430815000000000003e-01 2.302530000000000143e+01 7.083414999999999395e+01 1.927105000000000018e+03
3.099999999999999978e-02 1.430609999999999937e-01 2.245700000000000074e+01 7.038915000000000077e+01 1.926909999999999854e+03
3.200000000000000067e-02 1.430430000000000035e-01 2.185029999999999717e+01 6.995080000000000098e+01 1.926740000000000009e+03
3.300000000000000155e-02 1.430235000000000256e-01 2.116619999999999990e+01 6.933484999999998877e+01 1.926550000000000182e+03
3.400000000000000244e-02 1.429980000000000140e-01 2.040330000000000155e+01 6.846084999999999354e+01 1.926315000000000055e+03
3.500000000000000333e-02 1.429670000000000107e-01 1.960294999999999987e+01 6.738400000000000034e+01 1.926025000000000091e+03
3.600000000000000422e-02 1.429325000000000179e-01 1.884049999999999869e+01 6.628225000000000477e+01 1.925700000000000045e+03
3.700000000000000511e-02 1.429004999999999859e-01 1.820579999999999998e+01 6.540415000000000134e+01 1.925389999999999873e+03
3.799999999999999906e-02 1.428770000000000040e-01 1.777890000000000015e+01 6.499545000000000528e+01 1.925159999999999854e+03
3.899999999999999994e-02 1.428679999999999950e-01 1.760839999999999961e+01 6.522655000000000314e+01 1.925065000000000055e+03
4.000000000000000083e-02 1.428774999999999906e-01 1.769785000000000252e+01 6.614204999999999757e+01 1.925139999999999873e+03
4.100000000000000172e-02 1.429055000000000186e-01 1.800305000000000177e+01 6.764404999999999291e+01 1.925394999999999982e+03
4.200000000000000261e-02 1.429495000000000071e-01 1.844104999999999706e+01 6.950999999999999091e+01 1.925795000000000073e+03
4.300000000000000350e-02 1.430025000000000046e-01 1.890474999999999994e+01 7.143719999999999004e+01 1.926289999999999964e+03
4.400000000000000439e-02 1.430560000000000165e-01 1.928164999999999907e+01 7.310014999999999930e+01 1.926799999999999955e+03
4.499999999999999833e-02 1.431020000000000070e-01 1.947119999999999962e+01 7.420635000000000048e+01 1.927235000000000127e+03
4.599999999999999922e-02 1.431314999999999948e-01 1.939714999999999989e+01 7.453915000000000646e+01 1.927525000000000091e+03
4.700000000000000011e-02 1.431394999999999751e-01 1.901485000000000269e+01 7.398189999999999600e+01 1.927610000000000127e+03
4.800000000000000100e-02 1.431215000000000126e-01 1.831215000000000259e+01 7.252174999999999727e+01 1.927449999999999818e+03
4.900000000000000189e-02 1.430770000000000097e-01 1.730584999999999951e+01 7.023570000000000846e+01 1.927039999999999964e+03
5.000000000000000278e-02 1.430075000000000096e-01 1.603480000000000061e+01 6.726654999999999518e+01 1.926394999999999982e+03
5.100000000000000366e-02 1.429169999999999885e-01 1.455245000000000033e+01 6.379434999999999434e+01 1.925539999999999964e+03
5.200000000000000455e-02 1.428094999999999781e-01 1.291941499999999898e+01 6.001014999999999588e+01 1.924525000000000091e+03
5.300000000000000544e-02 1.426914999999999989e-01 1.119853499999999968e+01 5.609669999999999845e+01 1.923394999999999982e+03
5.399999999999999939e-02 1.425659999999999983e-01 9.451254999999999740e+00 5.221770000000000067e+01 1.922204999999999927e+03
5.500000000000000028e-02 1.424400000000000110e-01 7.736345000000000027e+00 4.851429999999999865e+01 1.921005000000000109e+03
5.600000000000000117e-02 1.423169999999999991e-01 6.109545000000000670e+00 4.510725000000000051e+01 1.919825000000000045e+03
5.700000000000000205e-02 1.422014999999999807e-01 4.623865999999999588e+00 4.210174999999999557e+01 1.918719999999999800e+03
5.800000000000000294e-02 1.420974999999999877e-01 3.329484050000000028e+00 3.959189999999999543e+01 1.917719999999999800e+03
5.900000000000000383e-02 1.420084999999999820e-01 2.273273500000000169e+00 3.766324999999999790e+01 1.916865000000000009e+03
6.000000000000000472e-02 1.419370000000000076e-01 1.497432000000000096e+00 3.639239999999999498e+01 1.916170000000000073e+03
6.099999999999999867e-02 1.418864999999999987e-01 1.037560000000000038e+00 3.584435000000000571e+01 1.915674999999999955e+03
6.199999999999999956e-02 1.418594999999999995e-01 9.203684999999999228e-01 3.606665000000000276e+01 1.915400000000000091e+03
6.300000000000000044e-02 1.418579999999999841e-01 1.161556000000000033e+00 3.708464999999999634e+01 1.915355000000000018e+03
6.400000000000000133e-02 1.418820000000000081e-01 1.764208999999999916e+00 3.889614999999999867e+01 1.915565000000000055e+03
6.500000000000000222e-02 1.419325000000000170e-01 2.718093000000000092e+00 4.146934999999999860e+01 1.916014999999999873e+03
6.600000000000000311e-02 1.420079999999999953e-01 3.999995000000000189e+00 4.474269999999999925e+01 1.916714999999999918e+03
6.700000000000000400e-02 1.421074999999999977e-01 5.575110000000000454e+00 4.862825000000000131e+01 1.917639999999999873e+03
6.800000000000000488e-02 1.422284999999999799e-01 7.399215000000000764e+00 5.301725000000000421e+01 1.918769999999999982e+03
6.900000000000000577e-02 1.423670000000000213e-01 9.421329999999999316e+00 5.778735000000000355e+01 1.920075000000000045e+03
7.000000000000000666e-02 1.425195000000000212e-01 1.158688500000000055e+01 6.281069999999999709e+01 1.921519999999999982e+03
7.100000000000000755e-02 1.426830000000000043e-01 1.384016499999999894e+01 6.796099999999999852e+01 1.923070000000000164e+03
7.200000000000000844e-02 1.428519999999999790e-01 1.612725000000000009e+01 7.312024999999999864e+01 1.924684999999999945e+03
7.300000000000000933e-02 1.430239999999999845e-01 1.839784999999999826e+01 7.818385000000000673e+01 1.926335000000000036e+03
7.399999999999999634e-02 1.431950000000000167e-01 2.060745000000000005e+01 8.306424999999998704e+01 1.927985000000000127e+03
7.499999999999999722e-02 1.433625000000000038e-01 2.271875000000000000e+01 8.769350000000000023e+01 1.929599999999999909e+03
7.599999999999999811e-02 1.435234999999999983e-01 2.470230000000000103e+01 9.202490000000000236e+01 1.931159999999999854e+03
7.699999999999999900e-02 1.436764999999999848e-01 2.653790000000000049e+01 9.603309999999999036e+01 1.932650000000000091e+03
7.799999999999999989e-02 1.438209999999999766e-01 2.821439999999999770e+01 9.971465000000000600e+01 1.934055000000000064e+03
7.900000000000000078e-02 1.439555000000000140e-01 2.972995000000000232e+01 1.030848000000000013e+02 1.935375000000000000e+03
8.000000000000000167e-02 1.440805000000000002e-01 3.109089999999999776e+01 1.061779999999999973e+02 1.936599999999999909e+03
8.100000000000000255e-02 1.441969999999999918e-01 3.231119999999999948e+01 1.090420000000000016e+02 1.937755000000000109e+03
8.200000000000000344e-02 1.443065000000000042e-01 3.341060000000000230e+01 1.117349999999999994e+02 1.938835000000000036e+03
8.300000000000000433e-02 1.444104999999999972e-01 3.441270000000000095e+01 1.143205000000000098e+02 1.939860000000000127e+03
8.400000000000000522e-02 1.445104999999999862e-01 3.534315000000000140e+01 1.168624999999999972e+02 1.940849999999999909e+03
8.500000000000000611e-02 1.446085000000000009e-01 3.622740000000000293e+01 1.194194999999999993e+02 1.941824999999999818e+03
8.600000000000000699e-02 1.447069999999999745e-01 3.708875000000000455e+01 1.220434999999999945e+02 1.942795000000000073e+03
8.700000000000000788e-02 1.448059999999999903e-01 3.794679999999999609e+01 1.247704999999999984e+02 1.943775000000000091e+03
8.800000000000000877e-02 1.449079999999999813e-01 3.881584999999999752e+01 1.276240000000000094e+02 1.944775000000000091e+03
8.899999999999999578e-02 1.450134999999999896e-01 3.970454999999999757e+01 1.306100000000000136e+02 1.945815000000000055e+03
8.999999999999999667e-02 1.451220000000000010e-01 4.061489999999999867e+01 1.337180000000000177e+02 1.946884999999999991e+03
9.099999999999999756e-02 1.452340000000000020e-01 4.154295000000000471e+01 1.369230000000000018e+02 1.947990000000000009e+03
9.199999999999999845e-02 1.453490000000000060e-01 4.247874999999999801e+01 1.401865000000000236e+02 1.949125000000000000e+03
9.299999999999999933e-02 1.454654999999999976e-01 4.340779999999999461e+01 1.434594999999999914e+02 1.950269999999999982e+03
9.400000000000000022e-02 1.455819999999999892e-01 4.431159999999999854e+01 1.466864999999999952e+02 1.951414999999999964e+03
9.500000000000000111e-02 1.456965000000000066e-01 4.516949999999999932e+01 1.498089999999999975e+02 1.952549999999999955e+03
9.600000000000000200e-02 1.458079999999999932e-01 4.595945000000000391e+01 1.527680000000000007e+02 1.953654999999999973e+03
9.700000000000000289e-02 1.459145000000000025e-01 4.665990000000000038e+01 1.555074999999999932e+02 1.954704999999999927e+03
9.800000000000000377e-02 1.460135000000000183e-01 4.725055000000000405e+01 1.579789999999999850e+02 1.955690000000000055e+03
9.900000000000000466e-02 1.461040000000000116e-01 4.771370000000000289e+01 1.601405000000000030e+02 1.956599999999999909e+03
1.000000000000000056e-01 1.461844999999999950e-01 4.803475000000000250e+01 1.619599999999999795e+02 1.957404999999999973e+03
1.010000000000000064e-01 1.462545000000000095e-01 4.820340000000000202e+01 1.634175000000000182e+02 1.958105000000000018e+03
1.020000000000000073e-01 1.463125000000000120e-01 4.821365000000000123e+01 1.645029999999999859e+02 1.958690000000000055e+03
1.030000000000000082e-01 1.463579999999999881e-01 4.806414999999999793e+01 1.652175000000000011e+02 1.959154999999999973e+03
1.040000000000000091e-01 1.463909999999999934e-01 4.775825000000000387e+01 1.655749999999999886e+02 1.959494999999999891e+03
1.050000000000000100e-01 1.464125000000000010e-01 4.730384999999999707e+01 1.655964999999999918e+02 1.959719999999999800e+03
1.059999999999999970e-01 1.464225000000000110e-01 4.671285000000000309e+01 1.653125000000000000e+02 1.959829999999999927e+03
1.069999999999999979e-01 1.464214999999999822e-01 4.600050000000000239e+01 1.647609999999999957e+02 1.959840000000000146e+03
1.079999999999999988e-01 1.464110000000000134e-01 4.518510000000000559e+01 1.639845000000000255e+02 1.959744999999999891e+03
1.089999999999999997e-01 1.463929999999999954e-01 4.428679999999999950e+01 1.630294999999999845e+02 1.959579999999999927e+03
1.100000000000000006e-01 1.463679999999999981e-01 4.332685000000000031e+01 1.619424999999999955e+02 1.959340000000000146e+03
1.110000000000000014e-01 1.463375000000000092e-01 4.232685000000000031e+01 1.607704999999999984e+02 1.959045000000000073e+03
1.120000000000000023e-01 1.463035000000000030e-01 4.130790000000000362e+01 1.595575000000000045e+02 1.958715000000000146e+03
1.130000000000000032e-01 1.462670000000000081e-01 4.028964999999999463e+01 1.583435000000000059e+02 1.958355000000000018e+03
1.140000000000000041e-01 1.462295000000000122e-01 3.928985000000000127e+01 1.571634999999999991e+02 1.957985000000000127e+03
1.150000000000000050e-01 1.461919999999999886e-01 3.832354999999999734e+01 1.560464999999999804e+02 1.957615000000000009e+03
1.160000000000000059e-01 1.461554999999999938e-01 3.740285000000000082e+01 1.550130000000000052e+02 1.957250000000000000e+03
1.170000000000000068e-01 1.461210000000000009e-01 3.653634999999999877e+01 1.540774999999999864e+02 1.956909999999999854e+03
1.180000000000000077e-01 1.460890000000000244e-01 3.572934999999999661e+01 1.532444999999999879e+02 1.956590000000000146e+03
1.190000000000000085e-01 1.460599999999999954e-01 3.498359999999999559e+01 1.525149999999999864e+02 1.956299999999999955e+03
1.200000000000000094e-01 1.460329999999999961e-01 3.429729999999999990e+01 1.518784999999999741e+02 1.956029999999999973e+03
1.209999999999999964e-01 1.460095000000000143e-01 3.366575000000000273e+01 1.513204999999999814e+02 1.955795000000000073e+03
1.219999999999999973e-01 1.459880000000000067e-01 3.308149999999999835e+01 1.508214999999999861e+02 1.955575000000000045e+03
1.229999999999999982e-01 1.459685000000000010e-01 3.253484999999999872e+01 1.503569999999999993e+02 1.955369999999999891e+03
1.239999999999999991e-01 1.459495000000000098e-01 3.201449999999999818e+01 1.499004999999999939e+02 1.955179999999999836e+03
1.250000000000000000e-01 1.459314999999999918e-01 3.150815000000000055e+01 1.494230000000000018e+02 1.954994999999999891e+03
1.260000000000000009e-01 1.459125000000000005e-01 3.100305000000000177e+01 1.488965000000000032e+02 1.954805000000000064e+03
1.270000000000000018e-01 1.458919999999999939e-01 3.048680000000000234e+01 1.482955000000000041e+02 1.954599999999999909e+03
1.280000000000000027e-01 1.458694999999999853e-01 2.994794999999999874e+01 1.475955000000000155e+02 1.954375000000000000e+03
1.290000000000000036e-01 1.458435000000000148e-01 2.937644999999999840e+01 1.467775000000000034e+02 1.954119999999999891e+03
1.300000000000000044e-01 1.458139999999999992e-01 2.876424999999999699e+01 1.458265000000000100e+02 1.953829999999999927e+03
1.310000000000000053e-01 1.457805000000000073e-01 2.810565000000000069e+01 1.447339999999999804e+02 1.953500000000000000e+03
1.320000000000000062e-01 1.457430000000000114e-01 2.739784999999999826e+01 1.434990000000000236e+02 1.953130000000000109e+03
1.330000000000000071e-01 1.456999999999999962e-01 2.664070000000000249e+01 1.421254999999999882e+02 1.952710000000000036e+03
1.340000000000000080e-01 1.456534999999999913e-01 2.583695000000000164e+01 1.406240000000000236e+02 1.952250000000000000e+03
1.350000000000000089e-01 1.456020000000000092e-01 2.499230000000000018e+01 1.390120000000000005e+02 1.951750000000000000e+03
1.360000000000000098e-01 1.455469999999999819e-01 2.411480000000000246e+01 1.373120000000000118e+02 1.951204999999999927e+03
1.370000000000000107e-01 1.454894999999999938e-01 2.321490000000000009e+01 1.355515000000000043e+02 1.950639999999999873e+03
1.380000000000000115e-01 1.454290000000000027e-01 2.230460000000000065e+01 1.337599999999999909e+02 1.950054999999999836e+03
1.390000000000000124e-01 1.453679999999999972e-01 2.139724999999999966e+01 1.319699999999999989e+02 1.949445000000000164e+03
1.400000000000000133e-01 1.453065000000000051e-01 2.050670000000000215e+01 1.302139999999999986e+02 1.948844999999999800e+03
1.410000000000000142e-01 1.452454999999999996e-01 1.964679999999999893e+01 1.285250000000000057e+02 1.948244999999999891e+03
1.420000000000000151e-01 1.451864999999999961e-01 1.883095000000000141e+01 1.269319999999999879e+02 1.947664999999999964e+03
1.430000000000000160e-01 1.451300000000000090e-01 1.807130000000000081e+01 1.254620000000000033e+02 1.947110000000000127e+03
1.440000000000000169e-01 1.450780000000000125e-01 1.737829999999999941e+01 1.241370000000000005e+02 1.946590000000000146e+03
1.450000000000000178e-01 1.450294999999999779e-01 1.676060000000000016e+01 1.229740000000000038e+02 1.946115000000000009e+03
1.459999999999999909e-01 1.449865000000000181e-01 1.622445000000000093e+01 1.219849999999999994e+02 1.945690000000000055e+03
1.469999999999999918e-01 1.449489999999999945e-01 1.577355000000000018e+01 1.211744999999999948e+02 1.945315000000000055e+03
1.479999999999999927e-01 1.449170000000000180e-01 1.540925000000000011e+01 1.205440000000000111e+02 1.945000000000000000e+03
1.489999999999999936e-01 1.448915000000000064e-01 1.513025000000000020e+01 1.200879999999999939e+02 1.944735000000000127e+03
1.499999999999999944e-01 1.448709999999999998e-01 1.493309999999999960e+01 1.197950000000000017e+02 1.944529999999999973e+03
1.509999999999999953e-01 1.448564999999999992e-01 1.481215000000000082e+01 1.196510000000000105e+02 1.944375000000000000e+03
1.519999999999999962e-01 1.448464999999999892e-01 1.476009999999999955e+01 1.196384999999999934e+02 1.944275000000000091e+03
1.529999999999999971e-01 1.448419999999999985e-01 1.476820000000000022e+01 1.197365000000000066e+02 1.944220000000000027e+03
1.539999999999999980e-01 1.448409999999999975e-01 1.482665000000000077e+01 1.199240000000000066e+02 1.944204999999999927e+03
1.549999999999999989e-01 1.448429999999999995e-01 1.492530000000000001e+01 1.201775000000000091e+02 1.944220000000000027e+03
1.559999999999999998e-01 1.448480000000000045e-01 1.505369999999999919e+01 1.204754999999999967e+02 1.944264999999999873e+03
1.570000000000000007e-01 1.448550000000000115e-01 1.520145000000000124e+01 1.207964999999999947e+02 1.944325000000000045e+03
1.580000000000000016e-01 1.448630000000000195e-01 1.535899999999999999e+01 1.211214999999999975e+02 1.944400000000000091e+03
1.590000000000000024e-01 1.448714999999999864e-01 1.551730000000000054e+01 1.214339999999999975e+02 1.944485000000000127e+03
