# t [s], A [cm^2], U [cm/s], P [cPa], c [cm/s]
1.000000000000000021e-03 7.975204999999999655e-01 2.753499999999999004e-03 1.034855000000000018e+02 1.717639999999999873e+03
2.000000000000000042e-03 7.975265000000000271e-01 2.800510000000000152e-02 1.034759999999999991e+02 1.717639999999999873e+03
3.000000000000000062e-03 7.976345000000000240e-01 2.030492000000000130e-01 1.036794999999999902e+02 1.717680000000000064e+03
4.000000000000000083e-03 7.976349999999999829e-01 2.337220000000000131e-01 1.036955000000000098e+02 1.717684999999999945e+03
5.000000000000000104e-03 7.975229999999999819e-01 8.956049999999998734e-02 1.033735000000000070e+02 1.717625000000000000e+03
6.000000000000000125e-03 7.974064999999999070e-01 -7.818999999999998174e-02 1.028870000000000005e+02 1.717530000000000200e+03
7.000000000000000146e-03 7.972155000000000769e-01 -3.790449999999999653e-01 1.021244999999999976e+02 1.717380000000000109e+03
8.000000000000000167e-03 7.968929999999999625e-01 -9.037700000000000733e-01 1.009097999999999900e+02 1.717139999999999873e+03
9.000000000000001055e-03 7.964434999999999709e-01 -1.633500000000000174e+00 9.918880000000000052e+01 1.716795000000000073e+03
1.000000000000000194e-02 7.958309999999999551e-01 -2.593345000000000233e+00 9.686465000000001169e+01 1.716320000000000164e+03
1.099999999999999936e-02 7.950539999999999274e-01 -3.751354999999999773e+00 9.390510000000000446e+01 1.715710000000000036e+03
1.200000000000000025e-02 7.942200000000000371e-01 -4.895394999999999719e+00 9.055615000000000236e+01 1.714994999999999891e+03
1.300000000000000114e-02 7.934909999999999464e-01 -5.718248500000000512e+00 8.729354999999999620e+01 1.714264999999999873e+03
1.400000000000000203e-02 7.929755000000000553e-01 -6.002659999999999663e+00 8.456225000000000591e+01 1.713609999999999900e+03
1.499999999999999944e-02 7.926735000000000309e-01 -5.722579999999999778e+00 8.256255000000000166e+01 1.713074999999999818e+03
1.600000000000000033e-02 7.924989999999999535e-01 -5.023570000000000313e+00 8.119765000000001010e+01 1.712664999999999964e+03
1.700000000000000122e-02 7.923295000000000199e-01 -4.135044999999999860e+00 8.015950000000000841e+01 1.712320000000000164e+03
1.800000000000000211e-02 7.920655000000000889e-01 -3.265360000000000262e+00 7.908644999999999925e+01 1.711985000000000127e+03
1.900000000000000300e-02 7.916670000000000096e-01 -2.522606999999999822e+00 7.772010000000000218e+01 1.711610000000000127e+03
2.000000000000000042e-02 7.911589999999999456e-01 -1.896144999999999969e+00 7.598959999999999582e+01 1.711164999999999964e+03
2.100000000000000130e-02 7.906020000000000270e-01 -1.303620000000000001e+00 7.398720000000000141e+01 1.710674999999999955e+03
2.200000000000000219e-02 7.900484999999999314e-01 -6.675349999999999895e-01 7.186664999999999281e+01 1.710144999999999982e+03
2.299999999999999961e-02 7.895164999999999544e-01 2.477999999999980218e-02 6.973295000000000243e+01 1.709610000000000127e+03
2.400000000000000050e-02 7.889774999999999983e-01 7.010199999999997544e-01 6.757420000000000471e+01 1.709059999999999945e+03
2.500000000000000139e-02 7.883715000000000028e-01 1.222045000000000048e+00 6.525395000000000323e+01 1.708480000000000018e+03
2.600000000000000228e-02 7.876254999999999784e-01 1.424629999999999619e+00 6.255495000000000516e+01 1.707829999999999927e+03
2.700000000000000316e-02 7.866834999999999800e-01 1.173154999999999948e+00 5.925475000000000136e+01 1.707059999999999945e+03
2.800000000000000058e-02 7.855244999999999589e-01 4.044799999999995066e-01 5.521025000000000205e+01 1.706140000000000100e+03
2.900000000000000147e-02 7.841744999999999965e-01 -8.484500000000005926e-01 5.042079999999999984e+01 1.705070000000000164e+03
3.000000000000000236e-02 7.827029999999999266e-01 -2.462104999999999322e+00 4.504895000000000493e+01 1.703875000000000000e+03
3.099999999999999978e-02 7.812069999999999848e-01 -4.252885000000000026e+00 3.939399999999999835e+01 1.702605000000000018e+03
3.200000000000000067e-02 7.797899999999999832e-01 -6.018489999999999895e+00 3.383259999999999934e+01 1.701329999999999927e+03
3.300000000000000155e-02 7.785450000000000426e-01 -7.574954999999999217e+00 2.874974999999999881e+01 1.700130000000000109e+03
3.400000000000000244e-02 7.775400000000000089e-01 -8.781133499999999259e+00 2.447935000000000372e+01 1.699079999999999927e+03
3.500000000000000333e-02 7.768184999999999674e-01 -9.547634999999999650e+00 2.126569999999999894e+01 1.698244999999999891e+03
3.600000000000000422e-02 7.763979999999999215e-01 -9.833510000000000417e+00 1.924840000000000018e+01 1.697650000000000091e+03
3.700000000000000511e-02 7.762755000000000072e-01 -9.634814999999999685e+00 1.846885000000000332e+01 1.697325000000000045e+03
3.799999999999999906e-02 7.764340000000000686e-01 -8.970970000000001221e+00 1.889029999999999987e+01 1.697275000000000091e+03
3.899999999999999994e-02 7.768500000000000405e-01 -7.872669999999999391e+00 2.042374999999999829e+01 1.697474999999999909e+03
4.000000000000000083e-02 7.774955000000000060e-01 -6.374996499999999955e+00 2.295169999999999888e+01 1.697925000000000182e+03
4.100000000000000172e-02 7.783430000000000071e-01 -4.516115000000000101e+00 2.634335000000000093e+01 1.698579999999999927e+03
4.200000000000000261e-02 7.793605000000000116e-01 -2.340170000000000528e+00 3.046170000000000044e+01 1.699424999999999955e+03
4.300000000000000350e-02 7.805145000000000000e-01 9.845000000000059259e-02 3.516315000000000168e+01 1.700414999999999964e+03
4.400000000000000439e-02 7.817680000000000184e-01 2.732695000000000540e+00 4.029540000000000077e+01 1.701530000000000200e+03
4.499999999999999833e-02 7.830789999999999695e-01 5.483380000000000365e+00 4.569715000000000060e+01 1.702724999999999909e+03
4.599999999999999922e-02 7.844050000000000189e-01 8.263674999999999216e+00 5.120165000000000077e+01 1.703970000000000027e+03
4.700000000000000011e-02 7.857050000000000978e-01 1.098560699999999990e+01 5.664499999999999602e+01 1.705224999999999909e+03
4.800000000000000100e-02 7.869424999999999892e-01 1.356768000000000107e+01 6.187640000000000384e+01 1.706449999999999818e+03
4.900000000000000189e-02 7.880894999999999984e-01 1.594163999999999959e+01 6.676935000000000286e+01 1.707625000000000000e+03
5.000000000000000278e-02 7.891274999999999817e-01 1.805740000000000123e+01 7.123069999999999879e+01 1.708724999999999909e+03
5.100000000000000366e-02 7.900469999999999438e-01 1.988514999999999944e+01 7.520609999999999218e+01 1.709724999999999909e+03
5.200000000000000455e-02 7.908500000000000529e-01 2.141509999999999891e+01 7.868125000000000568e+01 1.710625000000000000e+03
5.300000000000000544e-02 7.915455000000000130e-01 2.265549999999999997e+01 8.167865000000000464e+01 1.711420000000000073e+03
5.399999999999999939e-02 7.921489999999999920e-01 2.362914999999999921e+01 8.425174999999998704e+01 1.712125000000000000e+03
5.500000000000000028e-02 7.926809999999999690e-01 2.436984999999999957e+01 8.647710000000000719e+01 1.712740000000000009e+03
5.600000000000000117e-02 7.931639999999999802e-01 2.491910000000000025e+01 8.844630000000000791e+01 1.713295000000000073e+03
5.700000000000000205e-02 7.936205000000000620e-01 2.532289999999999708e+01 9.025844999999999629e+01 1.713805000000000064e+03
5.800000000000000294e-02 7.940754999999999342e-01 2.562940000000000040e+01 9.201335000000000264e+01 1.714284999999999854e+03
5.900000000000000383e-02 7.945495000000000196e-01 2.588624999999999687e+01 9.380549999999999500e+01 1.714769999999999982e+03
6.000000000000000472e-02 7.950614999999999766e-01 2.613824999999999932e+01 9.571869999999999834e+01 1.715275000000000091e+03
6.099999999999999867e-02 7.956280000000000019e-01 2.642414999999999736e+01 9.782130000000000791e+01 1.715804999999999836e+03
6.199999999999999956e-02 7.962569999999999926e-01 2.677420000000000044e+01 1.001612999999999971e+02 1.716384999999999991e+03
6.300000000000000044e-02 7.969524999999999526e-01 2.720754999999999768e+01 1.027620000000000005e+02 1.717019999999999982e+03
6.400000000000000133e-02 7.977119999999999767e-01 2.773080000000000211e+01 1.056200000000000045e+02 1.717700000000000045e+03
6.500000000000000222e-02 7.985244999999999704e-01 2.833725000000000094e+01 1.087055000000000007e+02 1.718440000000000055e+03
6.600000000000000311e-02 7.993740000000000290e-01 2.900795000000000101e+01 1.119629999999999939e+02 1.719220000000000027e+03
6.700000000000000400e-02 8.002399999999999514e-01 2.971350000000000335e+01 1.153135000000000048e+02 1.720025000000000091e+03
6.800000000000000488e-02 8.010979999999999768e-01 3.041690000000000182e+01 1.186659999999999968e+02 1.720829999999999927e+03
6.900000000000000577e-02 8.019225000000000936e-01 3.107700000000000173e+01 1.219189999999999969e+02 1.721625000000000000e+03
7.000000000000000666e-02 8.026889999999999858e-01 3.165210000000000079e+01 1.249705000000000013e+02 1.722380000000000109e+03
7.100000000000000755e-02 8.033744999999999914e-01 3.210294999999999987e+01 1.277265000000000157e+02 1.723075000000000045e+03
7.200000000000000844e-02 8.039620000000000655e-01 3.239580000000000126e+01 1.301059999999999945e+02 1.723695000000000164e+03
7.300000000000000933e-02 8.044360000000000399e-01 3.250444999999999851e+01 1.320459999999999923e+02 1.724215000000000146e+03
7.399999999999999634e-02 8.047900000000000054e-01 3.241174999999999784e+01 1.335054999999999836e+02 1.724634999999999991e+03
7.499999999999999722e-02 8.050205000000000277e-01 3.211034999999999684e+01 1.344675000000000011e+02 1.724940000000000055e+03
7.599999999999999811e-02 8.051319999999999588e-01 3.160279999999999845e+01 1.349375000000000000e+02 1.725119999999999891e+03
7.699999999999999900e-02 8.051310000000000411e-01 3.090095000000000169e+01 1.349435000000000002e+02 1.725204999999999927e+03
7.799999999999999989e-02 8.050310000000000521e-01 3.002524999999999977e+01 1.345330000000000155e+02 1.725180000000000064e+03
7.900000000000000078e-02 8.048480000000000079e-01 2.900280000000000058e+01 1.337669999999999959e+02 1.725065000000000055e+03
8.000000000000000167e-02 8.046005000000000518e-01 2.786635000000000062e+01 1.327205000000000155e+02 1.724880000000000109e+03
8.100000000000000255e-02 8.043084999999999818e-01 2.665200000000000102e+01 1.314735000000000014e+02 1.724634999999999991e+03
8.200000000000000344e-02 8.039910000000000112e-01 2.539715000000000344e+01 1.301089999999999804e+02 1.724345000000000027e+03
8.300000000000000433e-02 8.036684999999998968e-01 2.413895000000000124e+01 1.287065000000000055e+02 1.724045000000000073e+03
8.400000000000000522e-02 8.033580000000000165e-01 2.291190000000000282e+01 1.273414999999999964e+02 1.723740000000000009e+03
8.500000000000000611e-02 8.030739999999999545e-01 2.174640000000000128e+01 1.260775000000000148e+02 1.723440000000000055e+03
8.600000000000000699e-02 8.028284999999999449e-01 2.066734999999999900e+01 1.249654999999999916e+02 1.723170000000000073e+03
8.700000000000000788e-02 8.026294999999999957e-01 1.969320000000000093e+01 1.240430000000000064e+02 1.722940000000000055e+03
8.800000000000000877e-02 8.024809999999999999e-01 1.883504999999999896e+01 1.233319999999999936e+02 1.722750000000000000e+03
8.899999999999999578e-02 8.023830000000000684e-01 1.809684999999999988e+01 1.228379999999999939e+02 1.722605000000000018e+03
8.999999999999999667e-02 8.023335000000000328e-01 1.747510000000000119e+01 1.225515000000000043e+02 1.722505000000000109e+03
9.099999999999999756e-02 8.023255000000000248e-01 1.695994999999999919e+01 1.224499999999999886e+02 1.722449999999999818e+03
9.199999999999999845e-02 8.023495000000000488e-01 1.653565000000000040e+01 1.225005000000000024e+02 1.722429999999999836e+03
9.299999999999999933e-02 8.023955000000000393e-01 1.618215000000000003e+01 1.226585000000000036e+02 1.722440000000000055e+03
9.400000000000000022e-02 8.024510000000000254e-01 1.587609999999999921e+01 1.228769999999999953e+02 1.722469999999999800e+03
9.500000000000000111e-02 8.025029999999999664e-01 1.559264999999999901e+01 1.231034999999999968e+02 1.722500000000000000e+03
9.600000000000000200e-02 8.025400000000000311e-01 1.530685000000000073e+01 1.232874999999999943e+02 1.722529999999999973e+03
9.700000000000000289e-02 8.025510000000000144e-01 1.499520000000000053e+01 1.233820000000000050e+02 1.722549999999999955e+03
9.800000000000000377e-02 8.025265000000000315e-01 1.463704999999999856e+01 1.233470000000000084e+02 1.722539999999999964e+03
9.900000000000000466e-02 8.024599999999999511e-01 1.421569999999999823e+01 1.231510000000000105e+02 1.722500000000000000e+03
1.000000000000000056e-01 8.023464999999999625e-01 1.371959999999999980e+01 1.227719999999999914e+02 1.722420000000000073e+03
1.010000000000000064e-01 8.021865000000000245e-01 1.314256500000000116e+01 1.222005000000000052e+02 1.722299999999999955e+03
1.020000000000000073e-01 8.019800000000000262e-01 1.248433999999999955e+01 1.214399999999999977e+02 1.722134999999999991e+03
1.030000000000000082e-01 8.017324999999999591e-01 1.175047499999999978e+01 1.205045000000000073e+02 1.721929999999999836e+03
1.040000000000000091e-01 8.014510000000000245e-01 1.095182000000000144e+01 1.194194999999999993e+02 1.721690000000000055e+03
1.050000000000000100e-01 8.011440000000000783e-01 1.010411500000000018e+01 1.182194999999999965e+02 1.721424999999999955e+03
1.059999999999999970e-01 8.008235000000000214e-01 9.226725000000000065e+00 1.169465000000000003e+02 1.721130000000000109e+03
1.069999999999999979e-01 8.004999999999999893e-01 8.341739999999999711e+00 1.156465000000000032e+02 1.720835000000000036e+03
1.079999999999999988e-01 8.001869999999999816e-01 7.472590000000000288e+00 1.143689999999999998e+02 1.720535000000000082e+03
1.089999999999999997e-01 7.998950000000000227e-01 6.642675000000000551e+00 1.131614999999999895e+02 1.720244999999999891e+03
1.100000000000000006e-01 7.996345000000000258e-01 5.874079999999999302e+00 1.120685000000000002e+02 1.719980000000000018e+03
1.110000000000000014e-01 7.994149999999999867e-01 5.186259999999999870e+00 1.111285000000000025e+02 1.719744999999999891e+03
1.120000000000000023e-01 7.992424999999999669e-01 4.595074999999999577e+00 1.103719999999999999e+02 1.719539999999999964e+03
1.130000000000000032e-01 7.991219999999999990e-01 4.111950000000000216e+00 1.098209999999999980e+02 1.719384999999999991e+03
1.140000000000000041e-01 7.990545000000000009e-01 3.743370000000000086e+00 1.094844999999999970e+02 1.719279999999999973e+03
1.150000000000000050e-01 7.990399999999999725e-01 3.490705000000000169e+00 1.093634999999999877e+02 1.719215000000000146e+03
1.160000000000000059e-01 7.990744999999999099e-01 3.350319999999999965e+00 1.094480000000000075e+02 1.719204999999999927e+03
1.170000000000000068e-01 7.991525000000000434e-01 3.313959999999999795e+00 1.097179999999999893e+02 1.719240000000000009e+03
1.180000000000000077e-01 7.992669999999999497e-01 3.369369999999999976e+00 1.101465000000000032e+02 1.719309999999999945e+03
1.190000000000000085e-01 7.994095000000001061e-01 3.501094999999999846e+00 1.106999999999999886e+02 1.719409999999999854e+03
1.200000000000000094e-01 7.995700000000000029e-01 3.691375000000000295e+00 1.113419999999999987e+02 1.719539999999999964e+03
1.209999999999999964e-01 7.997400000000000064e-01 3.921109999999999651e+00 1.120330000000000013e+02 1.719679999999999836e+03
1.219999999999999973e-01 7.999095000000000510e-01 4.170835000000000292e+00 1.127344999999999970e+02 1.719835000000000036e+03
1.229999999999999982e-01 8.000694999999999890e-01 4.421615000000000073e+00 1.134099999999999966e+02 1.719984999999999900e+03
1.239999999999999991e-01 8.002124999999999932e-01 4.655904999999999738e+00 1.140254999999999939e+02 1.720125000000000000e+03
1.250000000000000000e-01 8.003320000000000434e-01 4.858240000000000336e+00 1.145534999999999997e+02 1.720255000000000109e+03
1.260000000000000009e-01 8.004244999999999832e-01 5.015824999999999534e+00 1.149720000000000084e+02 1.720360000000000127e+03
1.270000000000000018e-01 8.004850000000000021e-01 5.118945000000000078e+00 1.152655000000000030e+02 1.720440000000000055e+03
1.280000000000000027e-01 8.005124999999999602e-01 5.161215000000000330e+00 1.154254999999999995e+02 1.720490000000000009e+03
1.290000000000000036e-01 8.005079999999999973e-01 5.139635000000000176e+00 1.154505000000000052e+02 1.720514999999999873e+03
1.300000000000000044e-01 8.004720000000000724e-01 5.054560000000000386e+00 1.153449999999999989e+02 1.720505000000000109e+03
1.310000000000000053e-01 8.004085000000000782e-01 4.909419999999999895e+00 1.151189999999999998e+02 1.720470000000000027e+03
1.320000000000000062e-01 8.003204999999999902e-01 4.710395000000000110e+00 1.147884999999999991e+02 1.720409999999999854e+03
1.330000000000000071e-01 8.002135000000000220e-01 4.465925000000000367e+00 1.143710000000000093e+02 1.720325000000000045e+03
1.340000000000000080e-01 8.000924999999999843e-01 4.186160000000000103e+00 1.138890000000000100e+02 1.720230000000000018e+03
1.350000000000000089e-01 7.999635000000000495e-01 3.882344999999999935e+00 1.133650000000000091e+02 1.720115000000000009e+03
1.360000000000000098e-01 7.998324999999999463e-01 3.566155000000000186e+00 1.128220000000000027e+02 1.719994999999999891e+03
1.370000000000000107e-01 7.997030000000000527e-01 3.249085000000000001e+00 1.122810000000000059e+02 1.719875000000000000e+03
1.380000000000000115e-01 7.995814999999999451e-01 2.941825000000000134e+00 1.117614999999999981e+02 1.719755000000000109e+03
1.390000000000000124e-01 7.994700000000000140e-01 2.653719999999999857e+00 1.112800000000000011e+02 1.719639999999999873e+03
1.400000000000000133e-01 7.993714999999999016e-01 2.392389999999999795e+00 1.108479999999999990e+02 1.719534999999999854e+03
1.410000000000000142e-01 7.992874999999999286e-01 2.163380000000000081e+00 1.104739999999999895e+02 1.719440000000000055e+03
1.420000000000000151e-01 7.992185000000000539e-01 1.970028500000000182e+00 1.101604999999999990e+02 1.719360000000000127e+03
1.430000000000000160e-01 7.991639999999999855e-01 1.813441499999999929e+00 1.099069999999999965e+02 1.719289999999999964e+03
1.440000000000000169e-01 7.991215000000000401e-01 1.692600000000000104e+00 1.097085000000000008e+02 1.719240000000000009e+03
1.450000000000000178e-01 7.990895000000000081e-01 1.604594999999999771e+00 1.095550000000000068e+02 1.719190000000000055e+03
1.459999999999999909e-01 7.990639999999999965e-01 1.544950000000000045e+00 1.094360000000000070e+02 1.719154999999999973e+03
1.469999999999999918e-01 7.990424999999999889e-01 1.508030000000000204e+00 1.093384999999999962e+02 1.719125000000000000e+03
1.479999999999999927e-01 7.990215000000000511e-01 1.487435000000000063e+00 1.092485000000000070e+02 1.719090000000000146e+03
1.489999999999999936e-01 7.989969999999999573e-01 1.476475000000000204e+00 1.091514999999999986e+02 1.719059999999999945e+03
1.499999999999999944e-01 7.989665000000000239e-01 1.468574499999999894e+00 1.090349999999999966e+02 1.719030000000000200e+03
1.509999999999999953e-01 7.989269999999999428e-01 1.457669999999999799e+00 1.088880000000000052e+02 1.718994999999999891e+03
1.519999999999999962e-01 7.988764999999999894e-01 1.438543000000000127e+00 1.087014999999999958e+02 1.718944999999999936e+03
1.529999999999999971e-01 7.988139999999999130e-01 1.407083999999999779e+00 1.084689999999999941e+02 1.718889999999999873e+03
1.539999999999999980e-01 7.987394999999999357e-01 1.360508000000000051e+00 1.081879999999999882e+02 1.718825000000000045e+03
1.549999999999999989e-01 7.986524999999999874e-01 1.297448500000000005e+00 1.078584999999999923e+02 1.718750000000000000e+03
1.559999999999999998e-01 7.985545000000000559e-01 1.218015999999999988e+00 1.074840000000000089e+02 1.718660000000000082e+03
1.570000000000000007e-01 7.984474999999999767e-01 1.123745549999999982e+00 1.070705000000000098e+02 1.718565000000000055e+03
1.580000000000000016e-01 7.983329999999999593e-01 1.017459000000000113e+00 1.066269999999999953e+02 1.718460000000000036e+03
1.590000000000000024e-01 7.982150000000000079e-01 9.031050000000000466e-01 1.061639999999999873e+02 1.718355000000000018e+03
