# t [s], A [cm^2], U [cm/s], P [cPa], c [cm/s]
1.000000000000000021e-03 2.118339999999999945e-01 5.889854499999999105e-01 9.782954999999999757e+01 2.162340000000000146e+03
2.000000000000000042e-03 2.117435000000000012e-01 2.482422500000000198e+00 9.325825000000000387e+01 2.161715000000000146e+03
3.000000000000000062e-03 2.115450000000000108e-01 4.724358500000000127e+00 8.734624999999999773e+01 2.160380000000000109e+03
4.000000000000000083e-03 2.113019999999999898e-01 7.227360000000000895e+00 8.178530000000000655e+01 2.158769999999999982e+03
5.000000000000000104e-03 2.110650000000000026e-01 9.796745000000001369e+00 7.748815000000000452e+01 2.157210000000000036e+03
6.000000000000000125e-03 2.108470000000000066e-01 1.208043500000000137e+01 7.407925000000000182e+01 2.155800000000000182e+03
7.000000000000000146e-03 2.106480000000000019e-01 1.392309500000000000e+01 7.103015000000000612e+01 2.154539999999999964e+03
8.000000000000000167e-03 2.104779999999999984e-01 1.540599999999999881e+01 6.844195000000000562e+01 2.153480000000000018e+03
9.000000000000001055e-03 2.103379999999999972e-01 1.658194999999999908e+01 6.642764999999999986e+01 2.152619999999999891e+03
1.000000000000000194e-02 2.102279999999999982e-01 1.747040000000000148e+01 6.489705000000000723e+01 2.151949999999999818e+03
1.099999999999999936e-02 2.101434999999999831e-01 1.810405000000000086e+01 6.376364999999999839e+01 2.151444999999999709e+03
1.200000000000000025e-02 2.100790000000000157e-01 1.849624999999999986e+01 6.289045000000000130e+01 2.151064999999999600e+03
1.300000000000000114e-02 2.100275000000000059e-01 1.869125000000000014e+01 6.216179999999999950e+01 2.150779999999999745e+03
1.400000000000000203e-02 2.099924999999999986e-01 1.885670000000000002e+01 6.180410000000000537e+01 2.150579999999999927e+03
1.499999999999999944e-02 2.099890000000000090e-01 1.924445000000000050e+01 6.242860000000000298e+01 2.150579999999999927e+03
1.600000000000000033e-02 2.100354999999999861e-01 2.002120000000000033e+01 6.457920000000000016e+01 2.150875000000000000e+03
1.700000000000000122e-02 2.101370000000000182e-01 2.112865000000000038e+01 6.819644999999999868e+01 2.151500000000000000e+03
1.800000000000000211e-02 2.102765000000000051e-01 2.228904999999999959e+01 7.246920000000000073e+01 2.152364999999999782e+03
1.900000000000000300e-02 2.104209999999999969e-01 2.313739999999999952e+01 7.616290000000000759e+01 2.153275000000000091e+03
2.000000000000000042e-02 2.105329999999999979e-01 2.339049999999999940e+01 7.817929999999999779e+01 2.153994999999999891e+03
2.100000000000000130e-02 2.105854999999999810e-01 2.296280000000000143e+01 7.802694999999999936e+01 2.154350000000000364e+03
2.200000000000000219e-02 2.105714999999999948e-01 2.198230000000000217e+01 7.598040000000000305e+01 2.154300000000000182e+03
2.299999999999999961e-02 2.105064999999999853e-01 2.071039999999999992e+01 7.288179999999999836e+01 2.153920000000000073e+03
2.400000000000000050e-02 2.104155000000000053e-01 1.941714999999999947e+01 6.972135000000000105e+01 2.153364999999999782e+03
2.500000000000000139e-02 2.103254999999999986e-01 1.827724999999999866e+01 6.722469999999999857e+01 2.152804999999999836e+03
2.600000000000000228e-02 2.102519999999999945e-01 1.732894999999999897e+01 6.563224999999999909e+01 2.152345000000000255e+03
2.700000000000000316e-02 2.101985000000000103e-01 1.649855000000000160e+01 6.472585000000000832e+01 2.152005000000000109e+03
2.800000000000000058e-02 2.101570000000000105e-01 1.566670000000000051e+01 6.403749999999999432e+01 2.151739999999999782e+03
2.900000000000000147e-02 2.101159999999999972e-01 1.474085000000000178e+01 6.311860000000000070e+01 2.151485000000000127e+03
3.000000000000000236e-02 2.100660000000000027e-01 1.370714999999999861e+01 6.175955000000000439e+01 2.151175000000000182e+03
3.099999999999999978e-02 2.100049999999999972e-01 1.264545000000000030e+01 6.008514999999999873e+01 2.150804999999999836e+03
3.200000000000000067e-02 2.099415000000000031e-01 1.170407999999999937e+01 5.850580000000000069e+01 2.150409999999999854e+03
3.300000000000000155e-02 2.098909999999999942e-01 1.104625000000000057e+01 5.755109999999999815e+01 2.150085000000000036e+03
3.400000000000000244e-02 2.098679999999999990e-01 1.078960000000000008e+01 5.765825000000000244e+01 2.149925000000000182e+03
3.500000000000000333e-02 2.098840000000000150e-01 1.096164999999999878e+01 5.899715000000000487e+01 2.150005000000000109e+03
3.600000000000000422e-02 2.099405000000000021e-01 1.148540000000000028e+01 6.139339999999999975e+01 2.150340000000000146e+03
3.700000000000000511e-02 2.100279999999999925e-01 1.219650000000000034e+01 6.436435000000000173e+01 2.150864999999999782e+03
3.799999999999999906e-02 2.101279999999999815e-01 1.288200000000000145e+01 6.724330000000000496e+01 2.151480000000000018e+03
3.899999999999999994e-02 2.102189999999999892e-01 1.332665000000000077e+01 6.934100000000000819e+01 2.152045000000000073e+03
4.000000000000000083e-02 2.102789999999999937e-01 1.335369999999999990e+01 7.009360000000000923e+01 2.152425000000000182e+03
4.100000000000000172e-02 2.102895000000000181e-01 1.285055000000000014e+01 6.916149999999998954e+01 2.152510000000000218e+03
4.200000000000000261e-02 2.102414999999999978e-01 1.177834499999999984e+01 6.646354999999999791e+01 2.152220000000000255e+03
4.300000000000000350e-02 2.101310000000000122e-01 1.016581500000000027e+01 6.215229999999999677e+01 2.151550000000000182e+03
4.400000000000000439e-02 2.099639999999999840e-01 8.093880000000000408e+00 5.654975000000000307e+01 2.150524999999999636e+03
4.499999999999999833e-02 2.097505000000000064e-01 5.675950000000000273e+00 5.006790000000000163e+01 2.149210000000000036e+03
4.599999999999999922e-02 2.095044999999999824e-01 3.040460000000000385e+00 4.313729999999999620e+01 2.147684999999999945e+03
4.700000000000000011e-02 2.092400000000000093e-01 3.183850000000001401e-01 3.615800000000000125e+01 2.146050000000000182e+03
4.800000000000000100e-02 2.089715000000000045e-01 -2.364110000000000156e+00 2.947614999999999696e+01 2.144375000000000000e+03
4.900000000000000189e-02 2.087110000000000076e-01 -4.888282499999999864e+00 2.338194999999999979e+01 2.142750000000000000e+03
5.000000000000000278e-02 2.084710000000000174e-01 -7.143404999999999561e+00 1.811939999999999884e+01 2.141250000000000000e+03
5.100000000000000366e-02 2.082605000000000151e-01 -9.027359999999999829e+00 1.389781999999999940e+01 2.139929999999999836e+03
5.200000000000000455e-02 2.080894999999999828e-01 -1.044859499999999919e+01 1.089785499999999985e+01 2.138849999999999909e+03
5.300000000000000544e-02 2.079654999999999976e-01 -1.133002000000000109e+01 9.268919999999999604e+00 2.138055000000000291e+03
5.399999999999999939e-02 2.078949999999999965e-01 -1.161449999999999960e+01 9.118649999999998812e+00 2.137585000000000036e+03
5.500000000000000028e-02 2.078814999999999968e-01 -1.127055000000000007e+01 1.049809499999999929e+01 2.137470000000000255e+03
5.600000000000000117e-02 2.079269999999999730e-01 -1.029645499999999991e+01 1.338810000000000144e+01 2.137725000000000364e+03
5.700000000000000205e-02 2.080319999999999947e-01 -8.722394999999998788e+00 1.769180000000000064e+01 2.138340000000000146e+03
5.800000000000000294e-02 2.081919999999999882e-01 -6.608755000000000379e+00 2.323659999999999926e+01 2.139300000000000182e+03
5.900000000000000383e-02 2.084004999999999885e-01 -4.041769000000000389e+00 2.978650000000000020e+01 2.140569999999999709e+03
6.000000000000000472e-02 2.086485000000000145e-01 -1.126205000000000123e+00 3.706204999999999927e+01 2.142090000000000146e+03
6.099999999999999867e-02 2.089270000000000016e-01 2.022700000000000387e+00 4.476460000000000150e+01 2.143804999999999836e+03
6.199999999999999956e-02 2.092240000000000211e-01 5.287418000000000617e+00 5.260074999999999790e+01 2.145644999999999982e+03
6.300000000000000044e-02 2.095285000000000064e-01 8.555210000000000647e+00 6.030169999999999675e+01 2.147539999999999964e+03
6.400000000000000133e-02 2.098309999999999897e-01 1.172377000000000180e+01 6.763849999999999341e+01 2.149434999999999945e+03
6.500000000000000222e-02 2.101230000000000042e-01 1.470533999999999963e+01 7.443004999999999427e+01 2.151269999999999982e+03
6.600000000000000311e-02 2.103970000000000007e-01 1.742994999999999806e+01 8.054789999999999850e+01 2.153000000000000000e+03
6.700000000000000400e-02 2.106480000000000019e-01 1.984725000000000250e+01 8.591694999999999993e+01 2.154590000000000146e+03
6.800000000000000488e-02 2.108714999999999895e-01 2.192804999999999893e+01 9.051519999999999300e+01 2.156015000000000327e+03
6.900000000000000577e-02 2.110684999999999922e-01 2.366494999999999749e+01 9.437154999999999916e+01 2.157274999999999636e+03
7.000000000000000666e-02 2.112375000000000225e-01 2.507124999999999915e+01 9.756094999999999118e+01 2.158364999999999782e+03
7.100000000000000755e-02 2.113825000000000010e-01 2.617944999999999922e+01 1.001993500000000097e+02 2.159300000000000182e+03
7.200000000000000844e-02 2.115064999999999862e-01 2.703804999999999836e+01 1.024334000000000060e+02 2.160110000000000127e+03
7.300000000000000933e-02 2.116155000000000119e-01 2.770674999999999955e+01 1.044294999999999902e+02 2.160819999999999709e+03
7.399999999999999634e-02 2.117160000000000153e-01 2.825185000000000102e+01 1.063590000000000089e+02 2.161475000000000364e+03
7.499999999999999722e-02 2.118125000000000147e-01 2.873989999999999867e+01 1.083849999999999909e+02 2.162105000000000018e+03
7.599999999999999811e-02 2.119119999999999893e-01 2.923264999999999958e+01 1.106494999999999891e+02 2.162750000000000000e+03
7.699999999999999900e-02 2.120199999999999863e-01 2.978200000000000003e+01 1.132595000000000027e+02 2.163440000000000055e+03
7.799999999999999989e-02 2.121399999999999952e-01 3.042605000000000004e+01 1.162819999999999965e+02 2.164204999999999927e+03
7.900000000000000078e-02 2.122740000000000182e-01 3.118659999999999854e+01 1.197369999999999948e+02 2.165059999999999945e+03
8.000000000000000167e-02 2.124234999999999873e-01 3.206824999999999903e+01 1.235985000000000014e+02 2.166010000000000218e+03
8.100000000000000255e-02 2.125869999999999982e-01 3.305875000000000341e+01 1.277980000000000018e+02 2.167039999999999964e+03
8.200000000000000344e-02 2.127624999999999933e-01 3.413070000000000448e+01 1.322309999999999945e+02 2.168154999999999745e+03
8.300000000000000433e-02 2.129455000000000098e-01 3.524465000000000003e+01 1.367669999999999959e+02 2.169315000000000055e+03
8.400000000000000522e-02 2.131315000000000015e-01 3.635269999999999868e+01 1.412599999999999909e+02 2.170500000000000000e+03
8.500000000000000611e-02 2.133154999999999912e-01 3.740225000000000222e+01 1.455600000000000023e+02 2.171670000000000073e+03
8.600000000000000699e-02 2.134915000000000007e-01 3.834045000000000414e+01 1.495249999999999773e+02 2.172795000000000073e+03
8.700000000000000788e-02 2.136544999999999972e-01 3.911744999999999806e+01 1.530264999999999986e+02 2.173840000000000146e+03
8.800000000000000877e-02 2.137994999999999757e-01 3.969019999999999726e+01 1.559615000000000009e+02 2.174775000000000091e+03
8.899999999999999578e-02 2.139230000000000020e-01 4.002455000000000496e+01 1.582535000000000025e+02 2.175574999999999818e+03
8.999999999999999667e-02 2.140219999999999900e-01 4.009745000000000203e+01 1.598600000000000136e+02 2.176215000000000146e+03
9.099999999999999756e-02 2.140944999999999931e-01 3.989785000000000537e+01 1.607685000000000173e+02 2.176694999999999709e+03
9.199999999999999845e-02 2.141395000000000104e-01 3.942680000000000007e+01 1.609979999999999905e+02 2.177000000000000000e+03
9.299999999999999933e-02 2.141585000000000016e-01 3.869715000000000060e+01 1.605960000000000036e+02 2.177135000000000218e+03
9.400000000000000022e-02 2.141520000000000090e-01 3.773229999999999507e+01 1.596314999999999884e+02 2.177114999999999782e+03
9.500000000000000111e-02 2.141240000000000088e-01 3.656465000000000032e+01 1.581940000000000168e+02 2.176944999999999709e+03
9.600000000000000200e-02 2.140765000000000029e-01 3.523344999999999771e+01 1.563860000000000241e+02 2.176659999999999854e+03
9.700000000000000289e-02 2.140139999999999820e-01 3.378264999999999674e+01 1.543164999999999907e+02 2.176265000000000327e+03
9.800000000000000377e-02 2.139395000000000047e-01 3.225874999999999915e+01 1.520960000000000036e+02 2.175809999999999945e+03
9.900000000000000466e-02 2.138585000000000069e-01 3.070799999999999841e+01 1.498305000000000007e+02 2.175295000000000073e+03
1.000000000000000056e-01 2.137745000000000062e-01 2.917464999999999975e+01 1.476209999999999809e+02 2.174760000000000218e+03
1.010000000000000064e-01 2.136909999999999921e-01 2.769859999999999900e+01 1.455515000000000043e+02 2.174229999999999563e+03
1.020000000000000073e-01 2.136115000000000097e-01 2.631405000000000172e+01 1.436935000000000002e+02 2.173724999999999909e+03
1.030000000000000082e-01 2.135394999999999932e-01 2.504765000000000086e+01 1.420980000000000132e+02 2.173260000000000218e+03
1.040000000000000091e-01 2.134754999999999847e-01 2.391774999999999807e+01 1.407955000000000041e+02 2.172850000000000364e+03
1.050000000000000100e-01 2.134225000000000150e-01 2.293390000000000128e+01 1.397965000000000089e+02 2.172505000000000109e+03
1.059999999999999970e-01 2.133800000000000141e-01 2.209675000000000011e+01 1.390889999999999986e+02 2.172225000000000364e+03
1.069999999999999979e-01 2.133484999999999965e-01 2.139855000000000018e+01 1.386440000000000055e+02 2.172015000000000327e+03
1.079999999999999988e-01 2.133265000000000022e-01 2.082390000000000185e+01 1.384139999999999873e+02 2.171860000000000127e+03
1.089999999999999997e-01 2.133114999999999872e-01 2.035095000000000098e+01 1.383394999999999868e+02 2.171760000000000218e+03
1.100000000000000006e-01 2.133029999999999926e-01 1.995329999999999870e+01 1.383509999999999991e+02 2.171694999999999709e+03
1.110000000000000014e-01 2.132975000000000010e-01 1.960150000000000148e+01 1.383745000000000118e+02 2.171649999999999636e+03
1.120000000000000023e-01 2.132924999999999960e-01 1.926489999999999725e+01 1.383354999999999961e+02 2.171614999999999782e+03
1.130000000000000032e-01 2.132855000000000167e-01 1.891380000000000194e+01 1.381664999999999850e+02 2.171565000000000055e+03
1.140000000000000041e-01 2.132735000000000047e-01 1.852100000000000080e+01 1.378054999999999950e+02 2.171484999999999673e+03
1.150000000000000050e-01 2.132545000000000135e-01 1.806365000000000265e+01 1.372049999999999841e+02 2.171364999999999782e+03
1.160000000000000059e-01 2.132264999999999855e-01 1.752420000000000044e+01 1.363335000000000150e+02 2.171184999999999945e+03
1.170000000000000068e-01 2.131885000000000030e-01 1.689170000000000016e+01 1.351739999999999782e+02 2.170949999999999818e+03
1.180000000000000077e-01 2.131399999999999961e-01 1.616254999999999953e+01 1.337300000000000182e+02 2.170639999999999873e+03
1.190000000000000085e-01 2.130809999999999926e-01 1.533995000000000175e+01 1.320215000000000032e+02 2.170269999999999982e+03
1.200000000000000094e-01 2.130110000000000059e-01 1.443420000000000059e+01 1.300850000000000080e+02 2.169829999999999927e+03
1.209999999999999964e-01 2.129334999999999978e-01 1.346180000000000021e+01 1.279714999999999918e+02 2.169340000000000146e+03
1.219999999999999973e-01 2.128484999999999960e-01 1.244430999999999976e+01 1.257425000000000068e+02 2.168804999999999836e+03
1.229999999999999982e-01 2.127594999999999903e-01 1.140688000000000102e+01 1.234654999999999916e+02 2.168239999999999782e+03
1.239999999999999991e-01 2.126680000000000237e-01 1.037702999999999953e+01 1.212129999999999939e+02 2.167659999999999854e+03
1.250000000000000000e-01 2.125775000000000026e-01 9.382685000000000386e+00 1.190554999999999950e+02 2.167085000000000036e+03
1.260000000000000009e-01 2.124904999999999988e-01 8.450894999999999158e+00 1.170570000000000022e+02 2.166529999999999745e+03
1.270000000000000018e-01 2.124090000000000145e-01 7.606139999999999901e+00 1.152764999999999986e+02 2.166015000000000327e+03
1.280000000000000027e-01 2.123359999999999970e-01 6.869150000000000311e+00 1.137595000000000027e+02 2.165545000000000073e+03
1.290000000000000036e-01 2.122729999999999895e-01 6.255910000000000082e+00 1.125384999999999991e+02 2.165139999999999873e+03
1.300000000000000044e-01 2.122209999999999930e-01 5.776919999999999611e+00 1.116340000000000003e+02 2.164800000000000182e+03
1.310000000000000053e-01 2.121810000000000085e-01 5.436835000000000306e+00 1.110490000000000066e+02 2.164539999999999964e+03
1.320000000000000062e-01 2.121534999999999949e-01 5.234399999999999942e+00 1.107735000000000127e+02 2.164355000000000018e+03
1.330000000000000071e-01 2.121374999999999789e-01 5.162720000000000198e+00 1.107845000000000084e+02 2.164244999999999891e+03
1.340000000000000080e-01 2.121335000000000026e-01 5.209825000000000372e+00 1.110480000000000018e+02 2.164210000000000036e+03
1.350000000000000089e-01 2.121385000000000076e-01 5.359429999999999694e+00 1.115190000000000055e+02 2.164234999999999673e+03
1.360000000000000098e-01 2.121525000000000216e-01 5.591915000000000191e+00 1.121479999999999961e+02 2.164315000000000055e+03
1.370000000000000107e-01 2.121724999999999861e-01 5.885399999999999743e+00 1.128815000000000026e+02 2.164434999999999945e+03
1.380000000000000115e-01 2.121974999999999834e-01 6.216839999999999478e+00 1.136634999999999991e+02 2.164590000000000146e+03
1.390000000000000124e-01 2.122244999999999826e-01 6.563155000000000072e+00 1.144414999999999907e+02 2.164755000000000109e+03
1.400000000000000133e-01 2.122525000000000106e-01 6.902300000000000324e+00 1.151659999999999968e+02 2.164925000000000182e+03
1.410000000000000142e-01 2.122779999999999945e-01 7.214190000000000325e+00 1.157950000000000017e+02 2.165095000000000255e+03
1.420000000000000151e-01 2.123010000000000175e-01 7.481510000000000105e+00 1.162920000000000016e+02 2.165239999999999782e+03
1.430000000000000160e-01 2.123194999999999943e-01 7.690360000000000085e+00 1.166310000000000002e+02 2.165355000000000018e+03
1.440000000000000169e-01 2.123325000000000073e-01 7.830680000000000085e+00 1.167950000000000017e+02 2.165440000000000055e+03
1.450000000000000178e-01 2.123385000000000133e-01 7.896525000000000460e+00 1.167775000000000034e+02 2.165484999999999673e+03
1.459999999999999909e-01 2.123379999999999990e-01 7.886054999999999815e+00 1.165815000000000055e+02 2.165485000000000127e+03
1.469999999999999918e-01 2.123309999999999920e-01 7.801395000000000302e+00 1.162170000000000130e+02 2.165440000000000055e+03
1.479999999999999927e-01 2.123180000000000067e-01 7.648249999999999105e+00 1.157044999999999959e+02 2.165364999999999782e+03
1.489999999999999936e-01 2.122985000000000011e-01 7.435369999999999813e+00 1.150679999999999978e+02 2.165244999999999891e+03
1.499999999999999944e-01 2.122745000000000049e-01 7.173890000000000100e+00 1.143384999999999962e+02 2.165095000000000255e+03
1.509999999999999953e-01 2.122475000000000056e-01 6.876590000000000202e+00 1.135469999999999970e+02 2.164925000000000182e+03
1.519999999999999962e-01 2.122169999999999890e-01 6.557050000000000267e+00 1.127274999999999920e+02 2.164735000000000127e+03
1.529999999999999971e-01 2.121854999999999991e-01 6.228885000000000005e+00 1.119099999999999966e+02 2.164539999999999964e+03
1.539999999999999980e-01 2.121534999999999949e-01 5.904989999999999739e+00 1.111239999999999952e+02 2.164340000000000146e+03
1.549999999999999989e-01 2.121224999999999916e-01 5.596894999999999953e+00 1.103924999999999983e+02 2.164144999999999982e+03
1.559999999999999998e-01 2.120940000000000047e-01 5.314210000000000100e+00 1.097350000000000136e+02 2.163960000000000036e+03
1.570000000000000007e-01 2.120674999999999921e-01 5.064270000000000493e+00 1.091634999999999991e+02 2.163795000000000073e+03
1.580000000000000016e-01 2.120440000000000103e-01 4.851884999999999337e+00 1.086844999999999999e+02 2.163644999999999982e+03
1.590000000000000024e-01 2.120239999999999903e-01 4.679265000000000008e+00 1.082980000000000018e+02 2.163514999999999873e+03
