# t [s], A [cm^2], U [cm/s], P [cPa], c [cm/s]
1.000000000000000021e-03 1.301495000000000013e-01 2.489250000000000074e-01 1.013615499999999940e+02 2.014619999999999891e+03
2.000000000000000042e-03 1.301240000000000174e-01 1.716134000000000048e+00 9.829874999999999829e+01 2.014309999999999945e+03
3.000000000000000062e-03 1.300385000000000013e-01 3.557373000000000118e+00 9.409959999999999525e+01 2.013335000000000036e+03
4.000000000000000083e-03 1.299145000000000161e-01 5.629400350000000053e+00 8.934675000000000011e+01 2.011940000000000055e+03
5.000000000000000104e-03 1.297745000000000148e-01 7.872094999999999843e+00 8.484690000000000509e+01 2.010380000000000109e+03
6.000000000000000125e-03 1.296339999999999992e-01 1.015904500000000077e+01 8.100629999999999598e+01 2.008835000000000036e+03
7.000000000000000146e-03 1.295000000000000040e-01 1.230348499999999845e+01 7.774830000000000041e+01 2.007375000000000000e+03
8.000000000000000167e-03 1.293740000000000168e-01 1.417942000000000036e+01 7.483124999999999716e+01 2.006029999999999973e+03
9.000000000000001055e-03 1.292590000000000128e-01 1.578235000000000099e+01 7.220454999999999757e+01 2.004819999999999936e+03
1.000000000000000194e-02 1.291579999999999950e-01 1.714829999999999899e+01 6.994655000000000200e+01 2.003769999999999982e+03
1.099999999999999936e-02 1.290715000000000057e-01 1.829735000000000156e+01 6.808440000000000225e+01 2.002884999999999991e+03
1.200000000000000025e-02 1.290005000000000179e-01 1.924155000000000015e+01 6.658469999999999800e+01 2.002150000000000091e+03
1.300000000000000114e-02 1.289414999999999867e-01 1.998835000000000051e+01 6.538275000000000148e+01 2.001565000000000055e+03
1.400000000000000203e-02 1.288929999999999798e-01 2.053860000000000241e+01 6.438075000000000614e+01 2.001085000000000036e+03
1.499999999999999944e-02 1.288524999999999809e-01 2.090964999999999918e+01 6.349434999999999718e+01 2.000684999999999945e+03
1.600000000000000033e-02 1.288185000000000024e-01 2.116604999999999848e+01 6.275205000000000410e+01 2.000365000000000009e+03
1.700000000000000122e-02 1.287949999999999928e-01 2.141839999999999833e+01 6.233914999999999651e+01 2.000139999999999873e+03
1.800000000000000211e-02 1.287860000000000116e-01 2.178125000000000000e+01 6.251959999999999695e+01 2.000059999999999945e+03
1.900000000000000300e-02 1.287959999999999938e-01 2.231974999999999909e+01 6.348134999999999195e+01 2.000170000000000073e+03
2.000000000000000042e-02 1.288265000000000104e-01 2.301870000000000260e+01 6.520924999999999727e+01 2.000490000000000009e+03
2.100000000000000130e-02 1.288739999999999886e-01 2.378925000000000267e+01 6.745770000000000266e+01 2.000985000000000127e+03
2.200000000000000219e-02 1.289305000000000034e-01 2.450450000000000017e+01 6.982560000000000855e+01 2.001574999999999818e+03
2.299999999999999961e-02 1.289869999999999906e-01 2.504545000000000243e+01 7.188880000000000337e+01 2.002179999999999836e+03
2.400000000000000050e-02 1.290354999999999974e-01 2.533740000000000236e+01 7.332880000000000109e+01 2.002700000000000045e+03
2.500000000000000139e-02 1.290705000000000047e-01 2.536690000000000111e+01 7.401314999999999600e+01 2.003085000000000036e+03
2.600000000000000228e-02 1.290890000000000093e-01 2.517620000000000147e+01 7.400570000000000448e+01 2.003299999999999955e+03
2.700000000000000316e-02 1.290945000000000009e-01 2.484039999999999893e+01 7.351364999999999839e+01 2.003375000000000000e+03
2.800000000000000058e-02 1.290900000000000103e-01 2.443809999999999860e+01 7.279749999999999943e+01 2.003349999999999909e+03
2.900000000000000147e-02 1.290805000000000147e-01 2.402600000000000335e+01 7.207945000000000846e+01 2.003259999999999991e+03
3.000000000000000236e-02 1.290705000000000047e-01 2.362545000000000073e+01 7.148079999999998790e+01 2.003154999999999973e+03
3.099999999999999978e-02 1.290600000000000080e-01 2.322319999999999851e+01 7.100384999999999991e+01 2.003045000000000073e+03
3.200000000000000067e-02 1.290494999999999837e-01 2.278415000000000035e+01 7.055629999999999313e+01 2.002940000000000055e+03
3.300000000000000155e-02 1.290364999999999984e-01 2.226989999999999981e+01 7.000464999999999804e+01 2.002804999999999836e+03
3.400000000000000244e-02 1.290189999999999948e-01 2.165709999999999980e+01 6.923550000000000182e+01 2.002630000000000109e+03
3.500000000000000333e-02 1.289954999999999852e-01 2.095094999999999885e+01 6.820699999999999363e+01 2.002389999999999873e+03
3.600000000000000422e-02 1.289659999999999973e-01 2.018905000000000172e+01 6.697560000000000002e+01 2.002095000000000027e+03
3.700000000000000511e-02 1.289334999999999787e-01 1.943554999999999922e+01 6.569050000000000011e+01 2.001759999999999991e+03
3.799999999999999906e-02 1.289020000000000166e-01 1.876699999999999946e+01 6.455930000000000746e+01 2.001430000000000064e+03
3.899999999999999994e-02 1.288755000000000039e-01 1.825440000000000040e+01 6.379534999999999911e+01 2.001150000000000091e+03
4.000000000000000083e-02 1.288590000000000013e-01 1.794650000000000034e+01 6.356284999999999741e+01 2.000974999999999909e+03
4.100000000000000172e-02 1.288559999999999983e-01 1.785904999999999987e+01 6.393550000000000466e+01 2.000929999999999836e+03
4.200000000000000261e-02 1.288670000000000093e-01 1.797209999999999752e+01 6.487850000000000250e+01 2.001025000000000091e+03
4.300000000000000350e-02 1.288914999999999922e-01 1.823479999999999990e+01 6.625655000000000427e+01 2.001264999999999873e+03
4.400000000000000439e-02 1.289250000000000118e-01 1.857605000000000217e+01 6.786294999999999789e+01 2.001605000000000018e+03
4.499999999999999833e-02 1.289629999999999943e-01 1.891769999999999996e+01 6.945935000000000059e+01 2.001994999999999891e+03
4.599999999999999922e-02 1.290004999999999902e-01 1.918665000000000020e+01 7.081784999999999286e+01 2.002380000000000109e+03
4.700000000000000011e-02 1.290314999999999934e-01 1.932460000000000022e+01 7.175469999999999970e+01 2.002704999999999927e+03
4.800000000000000100e-02 1.290530000000000010e-01 1.929319999999999879e+01 7.215149999999999864e+01 2.002934999999999945e+03
4.900000000000000189e-02 1.290614999999999957e-01 1.907520000000000238e+01 7.196160000000000423e+01 2.003029999999999973e+03
5.000000000000000278e-02 1.290554999999999897e-01 1.867204999999999870e+01 7.120330000000001291e+01 2.002980000000000018e+03
5.100000000000000366e-02 1.290364999999999984e-01 1.809925000000000139e+01 6.994384999999999764e+01 2.002789999999999964e+03
5.200000000000000455e-02 1.290040000000000076e-01 1.738109999999999999e+01 6.828000000000000114e+01 2.002465000000000146e+03
5.300000000000000544e-02 1.289615000000000067e-01 1.654570000000000007e+01 6.631844999999999857e+01 2.002029999999999973e+03
5.399999999999999939e-02 1.289105000000000112e-01 1.562199999999999989e+01 6.416275000000000261e+01 2.001505000000000109e+03
5.500000000000000028e-02 1.288535000000000097e-01 1.463819999999999943e+01 6.190440000000000254e+01 2.000914999999999964e+03
5.600000000000000117e-02 1.287929999999999908e-01 1.362140000000000128e+01 5.962189999999999657e+01 2.000284999999999854e+03
5.700000000000000205e-02 1.287304999999999977e-01 1.259893500000000088e+01 5.738349999999999795e+01 1.999634999999999991e+03
5.800000000000000294e-02 1.286684999999999912e-01 1.159939999999999927e+01 5.525280000000000058e+01 1.998985000000000127e+03
5.900000000000000383e-02 1.286085000000000145e-01 1.065369500000000080e+01 5.329425000000000523e+01 1.998365000000000009e+03
6.000000000000000472e-02 1.285530000000000006e-01 9.795505000000000351e+00 5.157710000000000150e+01 1.997780000000000200e+03
6.099999999999999867e-02 1.285044999999999937e-01 9.060734999999999317e+00 5.017665000000000219e+01 1.997264999999999873e+03
6.199999999999999956e-02 1.284639999999999949e-01 8.486285000000000522e+00 4.917284999999999684e+01 1.996839999999999918e+03
6.300000000000000044e-02 1.284339999999999926e-01 8.107984999999999332e+00 4.864549999999999841e+01 1.996519999999999982e+03
6.400000000000000133e-02 1.284174999999999900e-01 7.958384999999999820e+00 4.866895000000000238e+01 1.996335000000000036e+03
6.500000000000000222e-02 1.284164999999999890e-01 8.064409999999998746e+00 4.930535000000000423e+01 1.996304999999999836e+03
6.600000000000000311e-02 1.284325000000000050e-01 8.445524999999999949e+00 5.059949999999999903e+01 1.996454999999999927e+03
6.700000000000000400e-02 1.284659999999999969e-01 9.112365000000000492e+00 5.257399999999999807e+01 1.996784999999999854e+03
6.800000000000000488e-02 1.285185000000000077e-01 1.006602499999999978e+01 5.522794999999999987e+01 1.997315000000000055e+03
6.900000000000000577e-02 1.285900000000000098e-01 1.129835500000000081e+01 5.853634999999999877e+01 1.998045000000000073e+03
7.000000000000000666e-02 1.286799999999999888e-01 1.279242500000000149e+01 6.245254999999999512e+01 1.998960000000000036e+03
7.100000000000000755e-02 1.287864999999999982e-01 1.452390000000000114e+01 6.691155000000000541e+01 2.000055000000000064e+03
7.200000000000000844e-02 1.289089999999999958e-01 1.646260000000000190e+01 7.183469999999999800e+01 2.001320000000000164e+03
7.300000000000000933e-02 1.290449999999999930e-01 1.857419999999999760e+01 7.713524999999999920e+01 2.002730000000000018e+03
7.399999999999999634e-02 1.291924999999999879e-01 2.082240000000000180e+01 8.272315000000000396e+01 2.004264999999999873e+03
7.499999999999999722e-02 1.293489999999999918e-01 2.317045000000000243e+01 8.851069999999999993e+01 2.005900000000000091e+03
7.599999999999999811e-02 1.295120000000000160e-01 2.558310000000000173e+01 9.441689999999999827e+01 2.007610000000000127e+03
7.699999999999999900e-02 1.296799999999999897e-01 2.802819999999999823e+01 1.003708499999999901e+02 2.009375000000000000e+03
7.799999999999999989e-02 1.298505000000000076e-01 3.047755000000000081e+01 1.063155000000000001e+02 2.011175000000000182e+03
7.900000000000000078e-02 1.300224999999999853e-01 3.290810000000000457e+01 1.122085000000000008e+02 2.012990000000000009e+03
8.000000000000000167e-02 1.301935000000000175e-01 3.530180000000000007e+01 1.180220000000000056e+02 2.014809999999999945e+03
8.100000000000000255e-02 1.303644999999999943e-01 3.764585000000000292e+01 1.237420000000000044e+02 2.016625000000000000e+03
8.200000000000000344e-02 1.305334999999999968e-01 3.993205000000000382e+01 1.293659999999999854e+02 2.018425000000000182e+03
8.300000000000000433e-02 1.307010000000000116e-01 4.215579999999999927e+01 1.349004999999999939e+02 2.020220000000000027e+03
8.400000000000000522e-02 1.308659999999999823e-01 4.431539999999999679e+01 1.403575000000000159e+02 2.021990000000000009e+03
8.500000000000000611e-02 1.310300000000000076e-01 4.641049999999999898e+01 1.457495000000000118e+02 2.023744999999999891e+03
8.600000000000000699e-02 1.311930000000000041e-01 4.844160000000000110e+01 1.510865000000000009e+02 2.025494999999999891e+03
8.700000000000000788e-02 1.313535000000000119e-01 5.040855000000000530e+01 1.563770000000000095e+02 2.027224999999999909e+03
8.800000000000000877e-02 1.315135000000000054e-01 5.231064999999999543e+01 1.616200000000000045e+02 2.028950000000000045e+03
8.899999999999999578e-02 1.316720000000000113e-01 5.414560000000000173e+01 1.668110000000000070e+02 2.030664999999999964e+03
8.999999999999999667e-02 1.318290000000000017e-01 5.590970000000000084e+01 1.719370000000000118e+02 2.032365000000000009e+03
9.099999999999999756e-02 1.319839999999999902e-01 5.759779999999999944e+01 1.769795000000000016e+02 2.034039999999999964e+03
9.199999999999999845e-02 1.321364999999999901e-01 5.920340000000000202e+01 1.819159999999999968e+02 2.035694999999999936e+03
9.299999999999999933e-02 1.322860000000000147e-01 6.071914999999999907e+01 1.867199999999999989e+02 2.037319999999999936e+03
9.400000000000000022e-02 1.324315000000000075e-01 6.213700000000000045e+01 1.913629999999999995e+02 2.038900000000000091e+03
9.500000000000000111e-02 1.325725000000000098e-01 6.344849999999999568e+01 1.958160000000000025e+02 2.040434999999999945e+03
9.600000000000000200e-02 1.327079999999999926e-01 6.464534999999999343e+01 2.000509999999999877e+02 2.041920000000000073e+03
9.700000000000000289e-02 1.328374999999999972e-01 6.571954999999999814e+01 2.040414999999999850e+02 2.043335000000000036e+03
9.800000000000000377e-02 1.329595000000000082e-01 6.666370000000000573e+01 2.077624999999999886e+02 2.044675000000000182e+03
9.900000000000000466e-02 1.330739999999999978e-01 6.747129999999999939e+01 2.111935000000000002e+02 2.045934999999999945e+03
1.000000000000000056e-01 1.331809999999999938e-01 6.813715000000000543e+01 2.143154999999999859e+02 2.047105000000000018e+03
1.010000000000000064e-01 1.332785000000000220e-01 6.865744999999999720e+01 2.171159999999999854e+02 2.048190000000000055e+03
1.020000000000000073e-01 1.333664999999999989e-01 6.903024999999999523e+01 2.195854999999999961e+02 2.049170000000000073e+03
1.030000000000000082e-01 1.334460000000000091e-01 6.925544999999999618e+01 2.217194999999999823e+02 2.050039999999999964e+03
1.040000000000000091e-01 1.335149999999999948e-01 6.933504999999999541e+01 2.235194999999999936e+02 2.050815000000000055e+03
1.050000000000000100e-01 1.335749999999999993e-01 6.927360000000000184e+01 2.249929999999999950e+02 2.051485000000000127e+03
1.059999999999999970e-01 1.336255000000000082e-01 6.907769999999999300e+01 2.261529999999999916e+02 2.052045000000000073e+03
1.069999999999999979e-01 1.336664999999999937e-01 6.875615000000000521e+01 2.270165000000000077e+02 2.052510000000000218e+03
1.079999999999999988e-01 1.336990000000000123e-01 6.831985000000000241e+01 2.276080000000000041e+02 2.052885000000000218e+03
1.089999999999999997e-01 1.337240000000000095e-01 6.778130000000000166e+01 2.279535000000000196e+02 2.053164999999999964e+03
1.100000000000000006e-01 1.337409999999999988e-01 6.715425000000000466e+01 2.280835000000000150e+02 2.053364999999999782e+03
1.110000000000000014e-01 1.337515000000000231e-01 6.645320000000000960e+01 2.280294999999999845e+02 2.053489999999999782e+03
1.120000000000000023e-01 1.337565000000000004e-01 6.569275000000000375e+01 2.278234999999999957e+02 2.053555000000000291e+03
1.130000000000000032e-01 1.337565000000000004e-01 6.488739999999999952e+01 2.274975000000000023e+02 2.053559999999999945e+03
1.140000000000000041e-01 1.337524999999999964e-01 6.405074999999999363e+01 2.270794999999999959e+02 2.053525000000000091e+03
1.150000000000000050e-01 1.337455000000000171e-01 6.319530000000000314e+01 2.265960000000000036e+02 2.053449999999999818e+03
1.160000000000000059e-01 1.337355000000000071e-01 6.233194999999999908e+01 2.260690000000000168e+02 2.053349999999999909e+03
1.170000000000000068e-01 1.337240000000000095e-01 6.146990000000000265e+01 2.255169999999999959e+02 2.053224999999999909e+03
1.180000000000000077e-01 1.337110000000000243e-01 6.061634999999999707e+01 2.249519999999999982e+02 2.053085000000000036e+03
1.190000000000000085e-01 1.336970000000000103e-01 5.977649999999999864e+01 2.243829999999999814e+02 2.052930000000000291e+03
1.200000000000000094e-01 1.336825000000000097e-01 5.895349999999999824e+01 2.238149999999999977e+02 2.052769999999999982e+03
1.209999999999999964e-01 1.336674999999999947e-01 5.814869999999999806e+01 2.232464999999999975e+02 2.052605000000000018e+03
1.219999999999999973e-01 1.336519999999999930e-01 5.736149999999999949e+01 2.226744999999999948e+02 2.052434999999999945e+03
1.229999999999999982e-01 1.336359999999999770e-01 5.658984999999999843e+01 2.220910000000000082e+02 2.052255000000000109e+03
1.239999999999999991e-01 1.336195000000000022e-01 5.583044999999999902e+01 2.214884999999999877e+02 2.052074999999999818e+03
1.250000000000000000e-01 1.336015000000000119e-01 5.507889999999999731e+01 2.208539999999999850e+02 2.051880000000000109e+03
1.260000000000000009e-01 1.335830000000000073e-01 5.433010000000000161e+01 2.201759999999999877e+02 2.051675000000000182e+03
1.270000000000000018e-01 1.335629999999999873e-01 5.357850000000000534e+01 2.194420000000000073e+02 2.051454999999999927e+03
1.280000000000000027e-01 1.335415000000000074e-01 5.281864999999999810e+01 2.186390000000000100e+02 2.051215000000000146e+03
1.290000000000000036e-01 1.335180000000000256e-01 5.204520000000000124e+01 2.177574999999999932e+02 2.050954999999999927e+03
1.300000000000000044e-01 1.334919999999999995e-01 5.125350000000000250e+01 2.167869999999999777e+02 2.050675000000000182e+03
1.310000000000000053e-01 1.334635000000000127e-01 5.043954999999999700e+01 2.157210000000000036e+02 2.050365000000000236e+03
1.320000000000000062e-01 1.334325000000000094e-01 4.960049999999999670e+01 2.145550000000000068e+02 2.050025000000000091e+03
1.330000000000000071e-01 1.333984999999999754e-01 4.873460000000000036e+01 2.132874999999999943e+02 2.049659999999999854e+03
1.340000000000000080e-01 1.333620000000000083e-01 4.784159999999999968e+01 2.119205000000000041e+02 2.049255000000000109e+03
1.350000000000000089e-01 1.333225000000000104e-01 4.692260000000000275e+01 2.104594999999999914e+02 2.048824999999999818e+03
1.360000000000000098e-01 1.332800000000000096e-01 4.598015000000000185e+01 2.089130000000000109e+02 2.048369999999999891e+03
1.370000000000000107e-01 1.332349999999999923e-01 4.501805000000000234e+01 2.072934999999999945e+02 2.047880000000000109e+03
1.380000000000000115e-01 1.331884999999999875e-01 4.404155000000000086e+01 2.056150000000000091e+02 2.047375000000000000e+03
1.390000000000000124e-01 1.331404999999999950e-01 4.305695000000000050e+01 2.038954999999999984e+02 2.046849999999999909e+03
1.400000000000000133e-01 1.330905000000000005e-01 4.207150000000000034e+01 2.021530000000000200e+02 2.046309999999999945e+03
1.410000000000000142e-01 1.330405000000000060e-01 4.109305000000000518e+01 2.004085000000000036e+02 2.045760000000000218e+03
1.420000000000000151e-01 1.329895000000000105e-01 4.012964999999999804e+01 1.986815000000000282e+02 2.045205000000000155e+03
1.430000000000000160e-01 1.329389999999999739e-01 3.918949999999999534e+01 1.969934999999999832e+02 2.044659999999999854e+03
1.440000000000000169e-01 1.328900000000000081e-01 3.828045000000000186e+01 1.953625000000000114e+02 2.044119999999999891e+03
1.450000000000000178e-01 1.328420000000000156e-01 3.740970000000000084e+01 1.938064999999999998e+02 2.043599999999999909e+03
1.459999999999999909e-01 1.327955000000000108e-01 3.658360000000000412e+01 1.923400000000000034e+02 2.043095000000000027e+03
1.469999999999999918e-01 1.327519999999999811e-01 3.580734999999999957e+01 1.909749999999999943e+02 2.042615000000000009e+03
1.479999999999999927e-01 1.327110000000000234e-01 3.508490000000000464e+01 1.897205000000000155e+02 2.042170000000000073e+03
1.489999999999999936e-01 1.326729999999999854e-01 3.441879999999999740e+01 1.885805000000000007e+02 2.041750000000000000e+03
1.499999999999999944e-01 1.326374999999999915e-01 3.381025000000000347e+01 1.875575000000000045e+02 2.041365000000000009e+03
1.509999999999999953e-01 1.326060000000000016e-01 3.325910000000000366e+01 1.866499999999999773e+02 2.041009999999999991e+03
1.519999999999999962e-01 1.325775000000000148e-01 3.276385000000000502e+01 1.858545000000000016e+02 2.040695000000000164e+03
1.529999999999999971e-01 1.325520000000000032e-01 3.232204999999999728e+01 1.851620000000000061e+02 2.040414999999999964e+03
1.539999999999999980e-01 1.325294999999999945e-01 3.193014999999999759e+01 1.845660000000000025e+02 2.040164999999999964e+03
1.549999999999999989e-01 1.325089999999999879e-01 3.158400000000000318e+01 1.840550000000000068e+02 2.039940000000000055e+03
1.559999999999999998e-01 1.324915000000000120e-01 3.127900000000000347e+01 1.836189999999999998e+02 2.039744999999999891e+03
1.570000000000000007e-01 1.324760000000000104e-01 3.101004999999999967e+01 1.832464999999999975e+02 2.039574999999999818e+03
1.580000000000000016e-01 1.324629999999999974e-01 3.077209999999999823e+01 1.829264999999999759e+02 2.039425000000000182e+03
1.590000000000000024e-01 1.324514999999999998e-01 3.056010000000000204e+01 1.826490000000000009e+02 2.039295000000000073e+03
