# t [s], A [cm^2], U [cm/s], P [cPa], c [cm/s]
1.000000000000000021e-03 5.470180000000000042e-01 3.837949999999999695e-03 9.687950000000000728e+01 1.480224999999999909e+03
2.000000000000000042e-03 5.470094999999999263e-01 -1.707221000000000086e-03 9.686124999999999829e+01 1.480220000000000027e+03
3.000000000000000062e-03 5.470380000000000242e-01 4.844445000000000001e-02 9.690755000000000052e+01 1.480235000000000127e+03
4.000000000000000083e-03 5.470859999999999612e-01 1.373686999999999825e-01 9.701255000000000450e+01 1.480259999999999991e+03
5.000000000000000104e-03 5.470954999999999568e-01 1.636257999999999879e-01 9.704335000000000377e+01 1.480269999999999982e+03
6.000000000000000125e-03 5.470589999999999620e-01 1.083729999999999971e-01 9.694685000000001196e+01 1.480250000000000000e+03
7.000000000000000146e-03 5.470154999999999879e-01 3.623199999999998644e-02 9.678010000000000446e+01 1.480215000000000146e+03
8.000000000000000167e-03 5.469739999999999602e-01 -3.690100000000001712e-02 9.657204999999999018e+01 1.480164999999999964e+03
9.000000000000001055e-03 5.469070000000000320e-01 -1.660520000000000329e-01 9.626715000000000089e+01 1.480099999999999909e+03
1.000000000000000194e-02 5.467994999999999939e-01 -3.809399999999999453e-01 9.581534999999999513e+01 1.480000000000000000e+03
1.099999999999999936e-02 5.466474999999999529e-01 -6.859849999999999559e-01 9.518715000000000259e+01 1.479855000000000018e+03
1.200000000000000025e-02 5.464404999999999957e-01 -1.093429999999999902e+00 9.434319999999999595e+01 1.479659999999999854e+03
1.300000000000000114e-02 5.461700000000000443e-01 -1.607504999999999740e+00 9.324924999999998931e+01 1.479404999999999973e+03
1.400000000000000203e-02 5.458484999999999587e-01 -2.191394999999999982e+00 9.191900000000001114e+01 1.479085000000000036e+03
1.499999999999999944e-02 5.455069999999999641e-01 -2.764140000000000263e+00 9.042980000000000018e+01 1.478720000000000027e+03
1.600000000000000033e-02 5.451829999999999732e-01 -3.230805000000000149e+00 8.889715000000001055e+01 1.478329999999999927e+03
1.700000000000000122e-02 5.449040000000000550e-01 -3.518675500000000067e+00 8.743055000000001087e+01 1.477940000000000055e+03
1.800000000000000211e-02 5.446760000000000490e-01 -3.597299000000000024e+00 8.609895000000000209e+01 1.477570000000000164e+03
1.900000000000000300e-02 5.444879999999999720e-01 -3.478621299999999916e+00 8.491870000000000118e+01 1.477220000000000027e+03
2.000000000000000042e-02 5.443200000000000260e-01 -3.204096999999999973e+00 8.386054999999998927e+01 1.476889999999999873e+03
2.100000000000000130e-02 5.441475000000000062e-01 -2.826983999999999941e+00 8.286754999999999427e+01 1.476575000000000045e+03
2.200000000000000219e-02 5.439530000000000198e-01 -2.395685999999999982e+00 8.187669999999999959e+01 1.476259999999999991e+03
2.299999999999999961e-02 5.437265000000000015e-01 -1.941854999999999887e+00 8.083910000000000196e+01 1.475934999999999945e+03
2.400000000000000050e-02 5.434695000000000498e-01 -1.475664999999999782e+00 7.973175000000000523e+01 1.475590000000000146e+03
2.500000000000000139e-02 5.431924999999999670e-01 -9.889900000000000357e-01 7.856010000000000559e+01 1.475235000000000127e+03
2.600000000000000228e-02 5.429074999999999873e-01 -4.646549999999998182e-01 7.735005000000001019e+01 1.474869999999999891e+03
2.700000000000000316e-02 5.426254999999999828e-01 1.119249999999998302e-01 7.613479999999999848e+01 1.474494999999999891e+03
2.800000000000000058e-02 5.423530000000000850e-01 7.431400000000001338e-01 7.493989999999999441e+01 1.474130000000000109e+03
2.900000000000000147e-02 5.420869999999999855e-01 1.414065000000000127e+00 7.377289999999999281e+01 1.473764999999999873e+03
3.000000000000000236e-02 5.418184999999999807e-01 2.092775000000000052e+00 7.261885000000000900e+01 1.473405000000000200e+03
3.099999999999999978e-02 5.415335000000000010e-01 2.735099999999999643e+00 7.144225000000000136e+01 1.473035000000000082e+03
3.200000000000000067e-02 5.412175000000000180e-01 3.292494999999999727e+00 7.019454999999999245e+01 1.472659999999999854e+03
3.300000000000000155e-02 5.408574999999999910e-01 3.721004999999999896e+00 6.882535000000000025e+01 1.472255000000000109e+03
3.400000000000000244e-02 5.404450000000000642e-01 3.989630000000000454e+00 6.729429999999999268e+01 1.471819999999999936e+03
3.500000000000000333e-02 5.399810000000000443e-01 4.086274999999999658e+00 6.558205000000000950e+01 1.471340000000000146e+03
3.600000000000000422e-02 5.394745000000000790e-01 4.019705000000000084e+00 6.369630000000000791e+01 1.470820000000000164e+03
3.700000000000000511e-02 5.389399999999999746e-01 3.817849999999999966e+00 6.167365000000000208e+01 1.470264999999999873e+03
3.799999999999999906e-02 5.383985000000000021e-01 3.522089999999999943e+00 5.957500000000000284e+01 1.469694999999999936e+03
3.899999999999999994e-02 5.378714999999999469e-01 3.180180000000000007e+00 5.747700000000000387e+01 1.469119999999999891e+03
4.000000000000000083e-02 5.373795000000000099e-01 2.839504999999999946e+00 5.546255000000000024e+01 1.468565000000000055e+03
4.100000000000000172e-02 5.369395000000000140e-01 2.541360000000000063e+00 5.361150000000000659e+01 1.468039999999999964e+03
4.200000000000000261e-02 5.365655000000000285e-01 2.318074999999999442e+00 5.199285000000000423e+01 1.467570000000000164e+03
4.300000000000000350e-02 5.362660000000000204e-01 2.191869999999999763e+00 5.066070000000000562e+01 1.467159999999999854e+03
4.400000000000000439e-02 5.360449999999999937e-01 2.176070000000000171e+00 4.965269999999999584e+01 1.466845000000000027e+03
4.499999999999999833e-02 5.359040000000000470e-01 2.277126500000000053e+00 4.899065000000000225e+01 1.466610000000000127e+03
4.599999999999999922e-02 5.358435000000000281e-01 2.497328999999999688e+00 4.868370000000000175e+01 1.466460000000000036e+03
4.700000000000000011e-02 5.358620000000000605e-01 2.837260000000000115e+00 4.873130000000000450e+01 1.466414999999999964e+03
4.800000000000000100e-02 5.359574999999999756e-01 3.297639999999999905e+00 4.912720000000000198e+01 1.466465000000000146e+03
4.900000000000000189e-02 5.361285000000000078e-01 3.880205000000000126e+00 4.986204999999999643e+01 1.466605000000000018e+03
5.000000000000000278e-02 5.363735000000000586e-01 4.587564999999999671e+00 5.092539999999999623e+01 1.466840000000000146e+03
5.100000000000000366e-02 5.366910000000000291e-01 5.422260000000000524e+00 5.230575000000000330e+01 1.467164999999999964e+03
5.200000000000000455e-02 5.370785000000000142e-01 6.385390000000000121e+00 5.399030000000000484e+01 1.467574999999999818e+03
5.300000000000000544e-02 5.375334999999999974e-01 7.475069999999999659e+00 5.596380000000000621e+01 1.468065000000000055e+03
5.399999999999999939e-02 5.380504999999999871e-01 8.685559999999998837e+00 5.820705000000000240e+01 1.468634999999999991e+03
5.500000000000000028e-02 5.386239999999999917e-01 1.000632000000000055e+01 6.069595000000000340e+01 1.469275000000000091e+03
5.600000000000000117e-02 5.392455000000000442e-01 1.142240999999999929e+01 6.340135000000000787e+01 1.469980000000000018e+03
5.700000000000000205e-02 5.399070000000000258e-01 1.291515500000000038e+01 6.628929999999999723e+01 1.470744999999999891e+03
5.800000000000000294e-02 5.405979999999999119e-01 1.446303500000000142e+01 6.932200000000000273e+01 1.471555000000000064e+03
5.900000000000000383e-02 5.413105000000000278e-01 1.604325000000000045e+01 7.245980000000000132e+01 1.472405000000000200e+03
6.000000000000000472e-02 5.420335000000000569e-01 1.763308999999999926e+01 7.566259999999999764e+01 1.473275000000000091e+03
6.099999999999999867e-02 5.427594999999999503e-01 1.921109999999999829e+01 7.889230000000000587e+01 1.474170000000000073e+03
6.199999999999999956e-02 5.434809999999999919e-01 2.075830000000000197e+01 8.211414999999999509e+01 1.475065000000000055e+03
6.300000000000000044e-02 5.441920000000000091e-01 2.225880000000000081e+01 8.529845000000000255e+01 1.475965000000000146e+03
6.400000000000000133e-02 5.448880000000000390e-01 2.369989999999999952e+01 8.842119999999999891e+01 1.476855000000000018e+03
6.500000000000000222e-02 5.455659999999999954e-01 2.507254999999999967e+01 9.146494999999998754e+01 1.477724999999999909e+03
6.600000000000000311e-02 5.462249999999999606e-01 2.637075000000000102e+01 9.441830000000000211e+01 1.478585000000000036e+03
6.700000000000000400e-02 5.468644999999999756e-01 2.759140000000000015e+01 9.727615000000000123e+01 1.479420000000000073e+03
6.800000000000000488e-02 5.474844999999999295e-01 2.873375000000000057e+01 1.000368500000000012e+02 1.480235000000000127e+03
6.900000000000000577e-02 5.480860000000000731e-01 2.979874999999999829e+01 1.027048000000000059e+02 1.481025000000000091e+03
7.000000000000000666e-02 5.486714999999999787e-01 3.078890000000000171e+01 1.052860000000000014e+02 1.481795000000000073e+03
7.100000000000000755e-02 5.492434999999999956e-01 3.170720000000000027e+01 1.077890000000000015e+02 1.482545000000000073e+03
7.200000000000000844e-02 5.498020000000000129e-01 3.255740000000000123e+01 1.102229999999999990e+02 1.483275000000000091e+03
7.300000000000000933e-02 5.503504999999999647e-01 3.334284999999999854e+01 1.125960000000000036e+02 1.483980000000000018e+03
7.399999999999999634e-02 5.508889999999999620e-01 3.406685000000000230e+01 1.149170000000000016e+02 1.484684999999999945e+03
7.499999999999999722e-02 5.514189999999999925e-01 3.473179999999999978e+01 1.171905000000000001e+02 1.485365000000000009e+03
7.599999999999999811e-02 5.519410000000000149e-01 3.533924999999999983e+01 1.194200000000000017e+02 1.486039999999999964e+03
7.699999999999999900e-02 5.524540000000000006e-01 3.588979999999999393e+01 1.216069999999999993e+02 1.486700000000000045e+03
7.799999999999999989e-02 5.529569999999999208e-01 3.638300000000000267e+01 1.237479999999999905e+02 1.487345000000000027e+03
7.900000000000000078e-02 5.534485000000000099e-01 3.681749999999999545e+01 1.258385000000000105e+02 1.487980000000000018e+03
8.000000000000000167e-02 5.539264999999999883e-01 3.719115000000000038e+01 1.278704999999999927e+02 1.488595000000000027e+03
8.100000000000000255e-02 5.543884999999999508e-01 3.750119999999999720e+01 1.298340000000000032e+02 1.489194999999999936e+03
8.200000000000000344e-02 5.548315000000000330e-01 3.774484999999999957e+01 1.317180000000000177e+02 1.489769999999999982e+03
8.300000000000000433e-02 5.552525000000000377e-01 3.791910000000000025e+01 1.335110000000000241e+02 1.490320000000000164e+03
8.400000000000000522e-02 5.556499999999999773e-01 3.802145000000000152e+01 1.352019999999999982e+02 1.490845000000000027e+03
8.500000000000000611e-02 5.560199999999999587e-01 3.804984999999999928e+01 1.367794999999999845e+02 1.491340000000000146e+03
8.600000000000000699e-02 5.563620000000000232e-01 3.800284999999999513e+01 1.382330000000000041e+02 1.491799999999999955e+03
8.700000000000000788e-02 5.566735000000000433e-01 3.787995000000000090e+01 1.395550000000000068e+02 1.492224999999999909e+03
8.800000000000000877e-02 5.569534999999999902e-01 3.768155000000000143e+01 1.407394999999999925e+02 1.492605000000000018e+03
8.899999999999999578e-02 5.572015000000000162e-01 3.740885000000000105e+01 1.417824999999999989e+02 1.492954999999999927e+03
8.999999999999999667e-02 5.574164999999999814e-01 3.706419999999999959e+01 1.426820000000000164e+02 1.493255000000000109e+03
9.099999999999999756e-02 5.575995000000000257e-01 3.665064999999999884e+01 1.434395000000000095e+02 1.493519999999999982e+03
9.199999999999999845e-02 5.577505000000000379e-01 3.617229999999999990e+01 1.440564999999999998e+02 1.493744999999999891e+03
9.299999999999999933e-02 5.578719999999999235e-01 3.563394999999999868e+01 1.445389999999999873e+02 1.493924999999999955e+03
9.400000000000000022e-02 5.579650000000000443e-01 3.504129999999999967e+01 1.448924999999999841e+02 1.494069999999999936e+03
9.500000000000000111e-02 5.580304999999999849e-01 3.440059999999999718e+01 1.451270000000000095e+02 1.494179999999999836e+03
9.600000000000000200e-02 5.580720000000000125e-01 3.371880000000000166e+01 1.452520000000000095e+02 1.494255000000000109e+03
9.700000000000000289e-02 5.580920000000000325e-01 3.300334999999999752e+01 1.452785000000000082e+02 1.494295000000000073e+03
9.800000000000000377e-02 5.580924999999999914e-01 3.226174999999999926e+01 1.452194999999999823e+02 1.494315000000000055e+03
9.900000000000000466e-02 5.580769999999999342e-01 3.150195000000000078e+01 1.450869999999999891e+02 1.494309999999999945e+03
1.000000000000000056e-01 5.580485000000000584e-01 3.073154999999999859e+01 1.448949999999999818e+02 1.494275000000000091e+03
1.010000000000000064e-01 5.580095000000000471e-01 2.995814999999999984e+01 1.446564999999999941e+02 1.494235000000000127e+03
1.020000000000000073e-01 5.579625000000000279e-01 2.918854999999999933e+01 1.443840000000000146e+02 1.494175000000000182e+03
1.030000000000000082e-01 5.579104999999999759e-01 2.842895000000000039e+01 1.440894999999999868e+02 1.494105000000000018e+03
1.040000000000000091e-01 5.578560000000000185e-01 2.768479999999999919e+01 1.437824999999999989e+02 1.494025000000000091e+03
1.050000000000000100e-01 5.578004999999999214e-01 2.696020000000000039e+01 1.434719999999999800e+02 1.493944999999999936e+03
1.059999999999999970e-01 5.577450000000000463e-01 2.625824999999999676e+01 1.431670000000000016e+02 1.493865000000000009e+03
1.069999999999999979e-01 5.576909999999999368e-01 2.558084999999999809e+01 1.428704999999999927e+02 1.493779999999999973e+03
1.079999999999999988e-01 5.576384999999999259e-01 2.492849999999999966e+01 1.425869999999999891e+02 1.493694999999999936e+03
1.089999999999999997e-01 5.575879999999999725e-01 2.430069999999999908e+01 1.423170000000000073e+02 1.493619999999999891e+03
1.100000000000000006e-01 5.575384999999999369e-01 2.369579999999999842e+01 1.420604999999999905e+02 1.493545000000000073e+03
1.110000000000000014e-01 5.574900000000000411e-01 2.311120000000000019e+01 1.418154999999999859e+02 1.493464999999999918e+03
1.120000000000000023e-01 5.574415000000000342e-01 2.254370000000000118e+01 1.415774999999999864e+02 1.493394999999999982e+03
1.130000000000000032e-01 5.573915000000000397e-01 2.198935000000000173e+01 1.413425000000000011e+02 1.493319999999999936e+03
1.140000000000000041e-01 5.573394999999999877e-01 2.144399999999999906e+01 1.411050000000000182e+02 1.493244999999999891e+03
1.150000000000000050e-01 5.572835000000000427e-01 2.090330000000000155e+01 1.408589999999999804e+02 1.493170000000000073e+03
1.160000000000000059e-01 5.572234999999999827e-01 2.036289999999999978e+01 1.405985000000000014e+02 1.493090000000000146e+03
1.170000000000000068e-01 5.571565000000000545e-01 1.981884999999999764e+01 1.403190000000000168e+02 1.493005000000000109e+03
1.180000000000000077e-01 5.570829999999999949e-01 1.926729999999999876e+01 1.400155000000000030e+02 1.492920000000000073e+03
1.190000000000000085e-01 5.570025000000000670e-01 1.870514999999999972e+01 1.396829999999999927e+02 1.492825000000000045e+03
1.200000000000000094e-01 5.569135000000000613e-01 1.812989999999999924e+01 1.393195000000000050e+02 1.492720000000000027e+03
1.209999999999999964e-01 5.568165000000000475e-01 1.753969999999999985e+01 1.389225000000000136e+02 1.492605000000000018e+03
1.219999999999999973e-01 5.567109999999999559e-01 1.693349999999999866e+01 1.384915000000000020e+02 1.492490000000000009e+03
1.229999999999999982e-01 5.565979999999999261e-01 1.631109999999999971e+01 1.380280000000000200e+02 1.492360000000000127e+03
1.239999999999999991e-01 5.564784999999999870e-01 1.567314999999999969e+01 1.375335000000000036e+02 1.492220000000000027e+03
1.250000000000000000e-01 5.563525000000000276e-01 1.502130000000000010e+01 1.370115000000000123e+02 1.492074999999999818e+03
1.260000000000000009e-01 5.562219999999999942e-01 1.435764999999999958e+01 1.364664999999999964e+02 1.491925000000000182e+03
1.270000000000000018e-01 5.560880000000000267e-01 1.368528500000000037e+01 1.359044999999999845e+02 1.491764999999999873e+03
1.280000000000000027e-01 5.559530000000000305e-01 1.300789999999999935e+01 1.353319999999999936e+02 1.491605000000000018e+03
1.290000000000000036e-01 5.558174999999999644e-01 1.232965500000000070e+01 1.347564999999999884e+02 1.491440000000000055e+03
1.300000000000000044e-01 5.556849999999999845e-01 1.165522999999999954e+01 1.341865000000000236e+02 1.491280000000000200e+03
1.310000000000000053e-01 5.555559999999999388e-01 1.098944000000000010e+01 1.336295000000000073e+02 1.491125000000000000e+03
1.320000000000000062e-01 5.554330000000000656e-01 1.033722000000000030e+01 1.330935000000000059e+02 1.490965000000000146e+03
1.330000000000000071e-01 5.553185000000000482e-01 9.703500000000000014e+00 1.325874999999999773e+02 1.490820000000000164e+03
1.340000000000000080e-01 5.552129999999999566e-01 9.092909999999999826e+00 1.321184999999999832e+02 1.490680000000000064e+03
1.350000000000000089e-01 5.551190000000000291e-01 8.509779999999999234e+00 1.316929999999999836e+02 1.490549999999999955e+03
1.360000000000000098e-01 5.550364999999999327e-01 7.957900000000000418e+00 1.313165000000000191e+02 1.490434999999999945e+03
1.370000000000000107e-01 5.549669999999999881e-01 7.440340000000000842e+00 1.309939999999999998e+02 1.490335000000000036e+03
1.380000000000000115e-01 5.549110000000000431e-01 6.959525000000000183e+00 1.307280000000000086e+02 1.490250000000000000e+03
1.390000000000000124e-01 5.548689999999999456e-01 6.517019999999999591e+00 1.305209999999999866e+02 1.490174999999999955e+03
1.400000000000000133e-01 5.548404999999999587e-01 6.113540000000000418e+00 1.303719999999999857e+02 1.490119999999999891e+03
1.410000000000000142e-01 5.548250000000000126e-01 5.748984999999999346e+00 1.302800000000000011e+02 1.490085000000000036e+03
1.420000000000000151e-01 5.548220000000000374e-01 5.422409999999999286e+00 1.302425000000000068e+02 1.490059999999999945e+03
1.430000000000000160e-01 5.548300000000000454e-01 5.132159999999999833e+00 1.302549999999999955e+02 1.490045000000000073e+03
1.440000000000000169e-01 5.548469999999999791e-01 4.875904999999999490e+00 1.303120000000000118e+02 1.490050000000000182e+03
1.450000000000000178e-01 5.548729999999999496e-01 4.650795000000000456e+00 1.304074999999999989e+02 1.490059999999999945e+03
1.459999999999999909e-01 5.549055000000000515e-01 4.453590000000000160e+00 1.305350000000000250e+02 1.490085000000000036e+03
1.469999999999999918e-01 5.549425000000000052e-01 4.280764999999999709e+00 1.306870000000000118e+02 1.490119999999999891e+03
1.479999999999999927e-01 5.549830000000000041e-01 4.128664999999999807e+00 1.308564999999999827e+02 1.490154999999999973e+03
1.489999999999999936e-01 5.550260000000000193e-01 3.993640000000000079e+00 1.310355000000000132e+02 1.490200000000000045e+03
1.499999999999999944e-01 5.550680000000000058e-01 3.872149999999999981e+00 1.312175000000000011e+02 1.490244999999999891e+03
1.509999999999999953e-01 5.551094999999999224e-01 3.760855000000000281e+00 1.313974999999999795e+02 1.490289999999999964e+03
1.519999999999999962e-01 5.551479999999999748e-01 3.656699999999999839e+00 1.315679999999999836e+02 1.490335000000000036e+03
1.529999999999999971e-01 5.551840000000000108e-01 3.556964999999999932e+00 1.317255000000000109e+02 1.490375000000000000e+03
1.539999999999999980e-01 5.552155000000000840e-01 3.459305000000000074e+00 1.318659999999999854e+02 1.490414999999999964e+03
1.549999999999999989e-01 5.552424999999999722e-01 3.361769999999999925e+00 1.319864999999999782e+02 1.490449999999999818e+03
1.559999999999999998e-01 5.552639999999999798e-01 3.262785000000000046e+00 1.320844999999999914e+02 1.490480000000000018e+03
1.570000000000000007e-01 5.552805000000000657e-01 3.161175000000000068e+00 1.321589999999999918e+02 1.490500000000000000e+03
1.580000000000000016e-01 5.552915000000000489e-01 3.056080000000000130e+00 1.322094999999999914e+02 1.490519999999999982e+03
1.590000000000000024e-01 5.552979999999999583e-01 2.946989999999999998e+00 1.322359999999999900e+02 1.490529999999999973e+03
