# t [s], A [cm^2], U [cm/s], P [cPa], c [cm/s]
1.000000000000000021e-03 2.169734999999999858e-01 4.553891999999999940e-01 9.072665000000000646e+01 2.194199999999999818e+03
2.000000000000000042e-03 2.168910000000000005e-01 2.114710500000000160e+00 8.670879999999999654e+01 2.193574999999999818e+03
3.000000000000000062e-03 2.167069999999999830e-01 4.120225000000000470e+00 8.130129999999999768e+01 2.192224999999999909e+03
4.000000000000000083e-03 2.164794999999999914e-01 6.388729999999999798e+00 7.600230000000000530e+01 2.190574999999999818e+03
5.000000000000000104e-03 2.162574999999999914e-01 8.767525000000000901e+00 7.178929999999999723e+01 2.188969999999999800e+03
6.000000000000000125e-03 2.160519999999999941e-01 1.092506500000000003e+01 6.844559999999999889e+01 2.187519999999999982e+03
7.000000000000000146e-03 2.158650000000000013e-01 1.266961500000000029e+01 6.543054999999999666e+01 2.186230000000000018e+03
8.000000000000000167e-03 2.157030000000000058e-01 1.406665000000000099e+01 6.280289999999999395e+01 2.185130000000000109e+03
9.000000000000001055e-03 2.155690000000000106e-01 1.517789999999999928e+01 6.071965000000000146e+01 2.184230000000000018e+03
1.000000000000000194e-02 2.154634999999999745e-01 1.602469999999999928e+01 5.912789999999999679e+01 2.183530000000000200e+03
1.099999999999999936e-02 2.153824999999999767e-01 1.663940000000000197e+01 5.795700000000000074e+01 2.183000000000000000e+03
1.200000000000000025e-02 2.153220000000000134e-01 1.702765000000000128e+01 5.706705000000000183e+01 2.182610000000000127e+03
1.300000000000000114e-02 2.152720000000000189e-01 1.720795000000000030e+01 5.628180000000000405e+01 2.182300000000000182e+03
1.400000000000000203e-02 2.152344999999999953e-01 1.732375000000000043e+01 5.573940000000000339e+01 2.182074999999999818e+03
1.499999999999999944e-02 2.152255000000000140e-01 1.763394999999999868e+01 5.603529999999999944e+01 2.182024999999999636e+03
1.600000000000000033e-02 2.152640000000000109e-01 1.834469999999999956e+01 5.781695000000000562e+01 2.182289999999999964e+03
1.700000000000000122e-02 2.153589999999999949e-01 1.944245000000000090e+01 6.118735000000000213e+01 2.182925000000000182e+03
1.800000000000000211e-02 2.154979999999999951e-01 2.066995000000000005e+01 6.544970000000000709e+01 2.183860000000000127e+03
1.900000000000000300e-02 2.156454999999999900e-01 2.164829999999999899e+01 6.936699999999999022e+01 2.184869999999999891e+03
2.000000000000000042e-02 2.157630000000000103e-01 2.205590000000000117e+01 7.172794999999999277e+01 2.185694999999999709e+03
2.100000000000000130e-02 2.158189999999999831e-01 2.176660000000000039e+01 7.188214999999999577e+01 2.186119999999999891e+03
2.200000000000000219e-02 2.158059999999999978e-01 2.088555000000000206e+01 6.998175000000000523e+01 2.186069999999999709e+03
2.299999999999999961e-02 2.157364999999999977e-01 1.967849999999999966e+01 6.683975000000000932e+01 2.185630000000000109e+03
2.400000000000000050e-02 2.156399999999999983e-01 1.844084999999999752e+01 6.351360000000000383e+01 2.184989999999999782e+03
2.500000000000000139e-02 2.155440000000000134e-01 1.737744999999999962e+01 6.084635000000000105e+01 2.184329999999999927e+03
2.600000000000000228e-02 2.154674999999999785e-01 1.654429999999999978e+01 5.918080000000000496e+01 2.183800000000000182e+03
2.700000000000000316e-02 2.154155000000000098e-01 1.586430000000000007e+01 5.833565000000000111e+01 2.183430000000000291e+03
2.800000000000000058e-02 2.153780000000000139e-01 1.519394999999999918e+01 5.779919999999999902e+01 2.183170000000000073e+03
2.900000000000000147e-02 2.153410000000000046e-01 1.440559999999999974e+01 5.701999999999999602e+01 2.182914999999999964e+03
3.000000000000000236e-02 2.152919999999999834e-01 1.345295000000000130e+01 5.567090000000000316e+01 2.182585000000000036e+03
3.099999999999999978e-02 2.152260000000000006e-01 1.239879999999999960e+01 5.379605000000000103e+01 2.182144999999999982e+03
3.200000000000000067e-02 2.151520000000000099e-01 1.139732500000000037e+01 5.179739999999999611e+01 2.181644999999999982e+03
3.300000000000000155e-02 2.150845000000000118e-01 1.063907999999999987e+01 5.027655000000000030e+01 2.181180000000000291e+03
3.400000000000000244e-02 2.150440000000000129e-01 1.028176000000000023e+01 4.979999999999999716e+01 2.180890000000000327e+03
3.500000000000000333e-02 2.150440000000000129e-01 1.039325000000000010e+01 5.068254999999999910e+01 2.180869999999999891e+03
3.600000000000000422e-02 2.150904999999999900e-01 1.092614999999999981e+01 5.286574999999999847e+01 2.181159999999999854e+03
3.700000000000000511e-02 2.151764999999999928e-01 1.172889999999999944e+01 5.592470000000000141e+01 2.181720000000000255e+03
3.799999999999999906e-02 2.152844999999999898e-01 1.258389999999999986e+01 5.918274999999999864e+01 2.182434999999999945e+03
3.899999999999999994e-02 2.153909999999999991e-01 1.325835000000000008e+01 6.188380000000000081e+01 2.183154999999999745e+03
4.000000000000000083e-02 2.154699999999999949e-01 1.355100000000000016e+01 6.336530000000000484e+01 2.183704999999999927e+03
4.100000000000000172e-02 2.155024999999999857e-01 1.332554999999999978e+01 6.318515000000000015e+01 2.183945000000000164e+03
4.200000000000000261e-02 2.154749999999999999e-01 1.252485000000000070e+01 6.118005000000000138e+01 2.183779999999999745e+03
4.300000000000000350e-02 2.153835000000000055e-01 1.116711500000000079e+01 5.745465000000000089e+01 2.183180000000000291e+03
4.400000000000000439e-02 2.152324999999999933e-01 9.329584999999999795e+00 5.231799999999999784e+01 2.182175000000000182e+03
4.499999999999999833e-02 2.150325000000000153e-01 7.126155000000000683e+00 4.619409999999999883e+01 2.180829999999999927e+03
4.599999999999999922e-02 2.147975000000000023e-01 4.686132500000000256e+00 3.953589999999999804e+01 2.179244999999999891e+03
4.700000000000000011e-02 2.145429999999999837e-01 2.138469999999999871e+00 3.276144999999999641e+01 2.177519999999999982e+03
4.800000000000000100e-02 2.142820000000000003e-01 -3.963499999999999801e-01 2.622180000000000177e+01 2.175750000000000000e+03
4.900000000000000189e-02 2.140285000000000104e-01 -2.809039999999999981e+00 2.019669999999999987e+01 2.174025000000000091e+03
5.000000000000000278e-02 2.137930000000000108e-01 -5.000256000000000256e+00 1.490831999999999979e+01 2.172414999999999964e+03
5.100000000000000366e-02 2.135845000000000105e-01 -6.878920000000000812e+00 1.054010500000000050e+01 2.170980000000000018e+03
5.200000000000000455e-02 2.134109999999999896e-01 -8.361824999999999619e+00 7.251236999999999711e+00 2.169784999999999854e+03
5.300000000000000544e-02 2.132799999999999974e-01 -9.376239999999999242e+00 5.180701199999999673e+00 2.168869999999999891e+03
5.399999999999999939e-02 2.131965000000000110e-01 -9.864119999999999777e+00 4.440014999999999823e+00 2.168279999999999745e+03
5.500000000000000028e-02 2.131659999999999944e-01 -9.788330000000000197e+00 5.098709999999999631e+00 2.168034999999999854e+03
5.600000000000000117e-02 2.131905000000000050e-01 -9.137779999999999347e+00 7.167310000000000514e+00 2.168164999999999964e+03
5.700000000000000205e-02 2.132695000000000007e-01 -7.930704999999999671e+00 1.058519500000000058e+01 2.168670000000000073e+03
5.800000000000000294e-02 2.134014999999999940e-01 -6.214420000000000499e+00 1.521744999999999948e+01 2.169524999999999636e+03
5.900000000000000383e-02 2.135799999999999921e-01 -4.061918999999999613e+00 2.086254999999999882e+01 2.170704999999999927e+03
6.000000000000000472e-02 2.137979999999999881e-01 -1.565564999999999873e+00 2.726989999999999981e+01 2.172155000000000200e+03
6.099999999999999867e-02 2.140460000000000140e-01 1.170729999999999826e+00 3.416279999999999717e+01 2.173819999999999709e+03
6.199999999999999956e-02 2.143130000000000035e-01 4.039360000000000284e+00 4.126255000000000450e+01 2.175630000000000109e+03
6.300000000000000044e-02 2.145894999999999886e-01 6.935994999999999244e+00 4.830915000000000248e+01 2.177505000000000109e+03
6.400000000000000133e-02 2.148660000000000014e-01 9.765055000000000263e+00 5.507630000000000337e+01 2.179390000000000327e+03
6.500000000000000222e-02 2.151335000000000053e-01 1.244367499999999893e+01 6.138124999999999432e+01 2.181225000000000364e+03
6.600000000000000311e-02 2.153849999999999931e-01 1.490455000000000041e+01 6.708905000000000030e+01 2.182960000000000036e+03
6.700000000000000400e-02 2.156150000000000011e-01 1.709819999999999851e+01 7.211455000000000837e+01 2.184555000000000291e+03
6.800000000000000488e-02 2.158214999999999995e-01 1.899465000000000003e+01 7.642324999999999591e+01 2.185989999999999782e+03
6.900000000000000577e-02 2.160004999999999842e-01 2.058395000000000152e+01 8.003005000000000280e+01 2.187250000000000000e+03
7.000000000000000666e-02 2.161549999999999860e-01 2.187650000000000006e+01 8.299725000000000819e+01 2.188340000000000146e+03
7.100000000000000755e-02 2.162859999999999783e-01 2.290140000000000242e+01 8.542945000000000277e+01 2.189264999999999873e+03
7.200000000000000844e-02 2.163974999999999926e-01 2.370369999999999777e+01 8.746559999999999491e+01 2.190055000000000291e+03
7.300000000000000933e-02 2.164949999999999930e-01 2.434045000000000059e+01 8.926765000000000327e+01 2.190750000000000000e+03
7.399999999999999634e-02 2.165835000000000121e-01 2.487545000000000073e+01 9.100724999999999909e+01 2.191385000000000218e+03
7.499999999999999722e-02 2.166704999999999881e-01 2.537369999999999948e+01 9.285030000000000427e+01 2.192000000000000000e+03
7.599999999999999811e-02 2.167614999999999958e-01 2.589545000000000030e+01 9.494309999999998695e+01 2.192640000000000327e+03
7.699999999999999900e-02 2.168615000000000126e-01 2.649155000000000015e+01 9.739930000000001087e+01 2.193335000000000036e+03
7.799999999999999989e-02 2.169750000000000012e-01 2.719920000000000115e+01 1.002909999999999968e+02 2.194119999999999891e+03
7.900000000000000078e-02 2.171035000000000048e-01 2.803930000000000078e+01 1.036430000000000007e+02 2.195014999999999873e+03
8.000000000000000167e-02 2.172485000000000110e-01 2.901545000000000130e+01 1.074320000000000022e+02 2.196019999999999982e+03
8.100000000000000255e-02 2.174094999999999778e-01 3.011439999999999984e+01 1.115920000000000130e+02 2.197125000000000000e+03
8.200000000000000344e-02 2.175825000000000120e-01 3.130809999999999604e+01 1.160180000000000007e+02 2.198329999999999927e+03
8.300000000000000433e-02 2.177649999999999864e-01 3.255644999999999811e+01 1.205794999999999959e+02 2.199590000000000146e+03
8.400000000000000522e-02 2.179514999999999925e-01 3.381114999999999782e+01 1.251299999999999955e+02 2.200880000000000109e+03
8.500000000000000611e-02 2.181359999999999966e-01 3.501980000000000359e+01 1.295180000000000007e+02 2.202164999999999964e+03
8.600000000000000699e-02 2.183140000000000081e-01 3.612964999999999804e+01 1.336005000000000109e+02 2.203409999999999854e+03
8.700000000000000788e-02 2.184794999999999932e-01 3.709154999999999802e+01 1.372495000000000118e+02 2.204569999999999709e+03
8.800000000000000877e-02 2.186275000000000024e-01 3.786315000000000452e+01 1.403615000000000066e+02 2.205614999999999782e+03
8.899999999999999578e-02 2.187550000000000050e-01 3.841129999999999711e+01 1.428629999999999995e+02 2.206515000000000327e+03
8.999999999999999667e-02 2.188590000000000257e-01 3.871379999999999910e+01 1.447094999999999914e+02 2.207260000000000218e+03
9.099999999999999756e-02 2.189369999999999927e-01 3.876024999999999920e+01 1.458924999999999841e+02 2.207819999999999709e+03
9.199999999999999845e-02 2.189905000000000046e-01 3.855254999999999654e+01 1.464314999999999998e+02 2.208210000000000036e+03
9.299999999999999933e-02 2.190185000000000048e-01 3.810374999999999801e+01 1.463754999999999882e+02 2.208425000000000182e+03
9.400000000000000022e-02 2.190235000000000098e-01 3.743710000000000093e+01 1.457959999999999923e+02 2.208480000000000018e+03
9.500000000000000111e-02 2.190079999999999805e-01 3.658429999999999893e+01 1.447814999999999941e+02 2.208385000000000218e+03
9.600000000000000200e-02 2.189754999999999896e-01 3.558319999999999794e+01 1.434334999999999809e+02 2.208175000000000182e+03
9.700000000000000289e-02 2.189289999999999847e-01 3.447574999999999790e+01 1.418575000000000159e+02 2.207864999999999782e+03
9.800000000000000377e-02 2.188734999999999986e-01 3.330545000000000044e+01 1.401620000000000061e+02 2.207489999999999782e+03
9.900000000000000466e-02 2.188124999999999931e-01 3.211540000000000106e+01 1.384465000000000146e+02 2.207069999999999709e+03
1.000000000000000056e-01 2.187500000000000000e-01 3.094579999999999842e+01 1.368045000000000186e+02 2.206635000000000218e+03
1.010000000000000064e-01 2.186899999999999955e-01 2.983255000000000123e+01 1.353140000000000214e+02 2.206215000000000146e+03
1.020000000000000073e-01 2.186339999999999950e-01 2.880539999999999878e+01 1.340374999999999943e+02 2.205829999999999927e+03
1.030000000000000082e-01 2.185860000000000025e-01 2.788674999999999926e+01 1.330185000000000173e+02 2.205485000000000127e+03
1.040000000000000091e-01 2.185475000000000056e-01 2.709094999999999942e+01 1.322794999999999845e+02 2.205210000000000036e+03
1.050000000000000100e-01 2.185185000000000044e-01 2.642379999999999995e+01 1.318240000000000123e+02 2.205000000000000000e+03
1.059999999999999970e-01 2.184995000000000132e-01 2.588275000000000148e+01 1.316334999999999980e+02 2.204859999999999673e+03
1.069999999999999979e-01 2.184905000000000042e-01 2.545710000000000051e+01 1.316734999999999900e+02 2.204784999999999854e+03
1.079999999999999988e-01 2.184895000000000032e-01 2.512940000000000040e+01 1.318915000000000077e+02 2.204769999999999982e+03
1.089999999999999997e-01 2.184949999999999948e-01 2.487630000000000052e+01 1.322239999999999895e+02 2.204800000000000182e+03
1.100000000000000006e-01 2.185044999999999904e-01 2.467054999999999865e+01 1.325989999999999895e+02 2.204855000000000018e+03
1.110000000000000014e-01 2.185150000000000148e-01 2.448259999999999792e+01 1.329410000000000025e+02 2.204925000000000182e+03
1.120000000000000023e-01 2.185245000000000104e-01 2.428235000000000099e+01 1.331759999999999877e+02 2.204984999999999673e+03
1.130000000000000032e-01 2.185290000000000010e-01 2.404145000000000110e+01 1.332355000000000018e+02 2.205019999999999982e+03
1.140000000000000041e-01 2.185269999999999990e-01 2.373454999999999870e+01 1.330634999999999764e+02 2.205005000000000109e+03
1.150000000000000050e-01 2.185159999999999880e-01 2.334165000000000134e+01 1.326145000000000209e+02 2.204929999999999836e+03
1.160000000000000059e-01 2.184949999999999948e-01 2.284839999999999804e+01 1.318625000000000114e+02 2.204784999999999854e+03
1.170000000000000068e-01 2.184619999999999895e-01 2.224774999999999991e+01 1.308000000000000114e+02 2.204559999999999945e+03
1.180000000000000077e-01 2.184174999999999867e-01 2.153999999999999915e+01 1.294364999999999952e+02 2.204260000000000218e+03
1.190000000000000085e-01 2.183614999999999862e-01 2.073275000000000290e+01 1.278024999999999949e+02 2.203875000000000000e+03
1.200000000000000094e-01 2.182959999999999900e-01 1.984039999999999893e+01 1.259435000000000002e+02 2.203420000000000073e+03
1.209999999999999964e-01 2.182209999999999983e-01 1.888315000000000055e+01 1.239184999999999945e+02 2.202904999999999745e+03
1.219999999999999973e-01 2.181405000000000149e-01 1.788564999999999827e+01 1.217959999999999923e+02 2.202350000000000364e+03
1.229999999999999982e-01 2.180559999999999998e-01 1.687565000000000026e+01 1.196500000000000057e+02 2.201760000000000218e+03
1.239999999999999991e-01 2.179705000000000115e-01 1.588194999999999979e+01 1.175559999999999974e+02 2.201170000000000073e+03
1.250000000000000000e-01 2.178879999999999983e-01 1.493299999999999983e+01 1.155845000000000056e+02 2.200595000000000255e+03
1.260000000000000009e-01 2.178090000000000026e-01 1.405535000000000068e+01 1.138015000000000043e+02 2.200045000000000073e+03
1.270000000000000018e-01 2.177379999999999871e-01 1.327195000000000036e+01 1.122590000000000003e+02 2.199539999999999964e+03
1.280000000000000027e-01 2.176754999999999940e-01 1.260135000000000005e+01 1.109989999999999952e+02 2.199105000000000018e+03
1.290000000000000036e-01 2.176244999999999985e-01 1.205669999999999931e+01 1.100480000000000018e+02 2.198744999999999891e+03
1.300000000000000044e-01 2.175850000000000006e-01 1.164540000000000042e+01 1.094174999999999898e+02 2.198460000000000036e+03
1.310000000000000053e-01 2.175575000000000148e-01 1.136864999999999881e+01 1.091039999999999992e+02 2.198255000000000109e+03
1.320000000000000062e-01 2.175420000000000131e-01 1.122214999999999918e+01 1.090895000000000010e+02 2.198140000000000327e+03
1.330000000000000071e-01 2.175384999999999958e-01 1.119624999999999915e+01 1.093444999999999965e+02 2.198109999999999673e+03
1.340000000000000080e-01 2.175455000000000028e-01 1.127669999999999995e+01 1.098299999999999983e+02 2.198144999999999982e+03
1.350000000000000089e-01 2.175615000000000188e-01 1.144580000000000020e+01 1.104979999999999905e+02 2.198250000000000000e+03
1.360000000000000098e-01 2.175850000000000006e-01 1.168314999999999948e+01 1.112974999999999994e+02 2.198400000000000091e+03
1.370000000000000107e-01 2.176130000000000009e-01 1.196710000000000029e+01 1.121735000000000042e+02 2.198595000000000255e+03
1.380000000000000115e-01 2.176449999999999774e-01 1.227530000000000143e+01 1.130745000000000005e+02 2.198809999999999945e+03
1.390000000000000124e-01 2.176775000000000237e-01 1.258644999999999925e+01 1.139505000000000052e+02 2.199034999999999854e+03
1.400000000000000133e-01 2.177105000000000012e-01 1.288054999999999950e+01 1.147560000000000002e+02 2.199255000000000109e+03
1.410000000000000142e-01 2.177399999999999891e-01 1.314015000000000022e+01 1.154540000000000077e+02 2.199465000000000146e+03
1.420000000000000151e-01 2.177665000000000017e-01 1.335095000000000098e+01 1.160150000000000006e+02 2.199649999999999636e+03
1.430000000000000160e-01 2.177879999999999816e-01 1.350210000000000043e+01 1.164189999999999969e+02 2.199800000000000182e+03
1.440000000000000169e-01 2.178029999999999966e-01 1.358664999999999878e+01 1.166550000000000011e+02 2.199909999999999854e+03
1.450000000000000178e-01 2.178125000000000200e-01 1.360170000000000101e+01 1.167220000000000084e+02 2.199980000000000018e+03
1.459999999999999909e-01 2.178154999999999952e-01 1.354820000000000135e+01 1.166280000000000001e+02 2.200005000000000109e+03
1.469999999999999918e-01 2.178125000000000200e-01 1.343064999999999998e+01 1.163900000000000006e+02 2.199989999999999782e+03
1.479999999999999927e-01 2.178039999999999976e-01 1.325680000000000014e+01 1.160289999999999964e+02 2.199934999999999945e+03
1.489999999999999936e-01 2.177914999999999990e-01 1.303689999999999927e+01 1.155750000000000028e+02 2.199849999999999909e+03
1.499999999999999944e-01 2.177744999999999820e-01 1.278284999999999982e+01 1.150575000000000045e+02 2.199734999999999673e+03
1.509999999999999953e-01 2.177554999999999907e-01 1.250779999999999959e+01 1.145099999999999909e+02 2.199604999999999563e+03
1.519999999999999962e-01 2.177350000000000119e-01 1.222489999999999988e+01 1.139645000000000010e+02 2.199470000000000255e+03
1.529999999999999971e-01 2.177145000000000052e-01 1.194685000000000130e+01 1.134500000000000028e+02 2.199329999999999927e+03
1.539999999999999980e-01 2.176954999999999862e-01 1.168510000000000026e+01 1.129915000000000020e+02 2.199199999999999818e+03
1.549999999999999989e-01 2.176784999999999970e-01 1.144920000000000115e+01 1.126094999999999970e+02 2.199074999999999818e+03
1.559999999999999998e-01 2.176639999999999964e-01 1.124654999999999916e+01 1.123174999999999955e+02 2.198974999999999909e+03
1.570000000000000007e-01 2.176524999999999987e-01 1.108200000000000074e+01 1.121229999999999905e+02 2.198894999999999982e+03
1.580000000000000016e-01 2.176449999999999774e-01 1.095795000000000030e+01 1.120269999999999868e+02 2.198845000000000255e+03
1.590000000000000024e-01 2.176414999999999877e-01 1.087419999999999831e+01 1.120250000000000057e+02 2.198809999999999945e+03
