# t [s], A [cm^2], U [cm/s], P [cPa], c [cm/s]
1.000000000000000021e-03 2.123769999999999825e-01 1.873545000000000071e-01 9.071630000000000393e+01 2.019654999999999973e+03
2.000000000000000042e-03 2.123339999999999950e-01 1.485828999999999844e+00 8.804630000000000223e+01 2.019340000000000146e+03
3.000000000000000062e-03 2.122005000000000141e-01 3.134628000000000192e+00 8.426515000000000555e+01 2.018420000000000073e+03
4.000000000000000083e-03 2.120090000000000030e-01 4.999430900000000122e+00 7.993440000000001078e+01 2.017125000000000000e+03
5.000000000000000104e-03 2.117964999999999987e-01 7.026469999999999771e+00 7.584225000000000705e+01 2.015694999999999936e+03
6.000000000000000125e-03 2.115879999999999983e-01 9.092005000000000337e+00 7.239950000000000330e+01 2.014315000000000055e+03
7.000000000000000146e-03 2.113929999999999976e-01 1.100247999999999848e+01 6.952790000000000248e+01 2.013034999999999854e+03
8.000000000000000167e-03 2.112124999999999975e-01 1.262793000000000099e+01 6.698220000000000596e+01 2.011880000000000109e+03
9.000000000000001055e-03 2.110509999999999886e-01 1.396987000000000023e+01 6.472520000000000095e+01 2.010865000000000009e+03
1.000000000000000194e-02 2.109130000000000171e-01 1.506915000000000049e+01 6.284465000000000146e+01 2.010005000000000109e+03
1.099999999999999936e-02 2.107999999999999874e-01 1.594825000000000159e+01 6.136625000000000085e+01 2.009304999999999836e+03
1.200000000000000025e-02 2.107105000000000228e-01 1.662424999999999997e+01 6.025735000000000241e+01 2.008764999999999873e+03
1.300000000000000114e-02 2.106419999999999959e-01 1.710844999999999771e+01 5.945459999999999923e+01 2.008355000000000018e+03
1.400000000000000203e-02 2.105895000000000128e-01 1.740135000000000076e+01 5.885139999999999816e+01 2.008049999999999955e+03
1.499999999999999944e-02 2.105480000000000129e-01 1.752019999999999911e+01 5.835060000000000002e+01 2.007819999999999936e+03
1.600000000000000033e-02 2.105170000000000097e-01 1.753734999999999999e+01 5.798355000000000103e+01 2.007650000000000091e+03
1.700000000000000122e-02 2.105020000000000224e-01 1.757829999999999870e+01 5.796264999999999645e+01 2.007579999999999927e+03
1.800000000000000211e-02 2.105130000000000057e-01 1.777120000000000033e+01 5.858539999999999992e+01 2.007659999999999854e+03
1.900000000000000300e-02 2.105579999999999952e-01 1.818224999999999980e+01 6.005200000000000671e+01 2.007945000000000164e+03
2.000000000000000042e-02 2.106385000000000063e-01 1.878154999999999930e+01 6.231990000000000407e+01 2.008440000000000055e+03
2.100000000000000130e-02 2.107445000000000013e-01 1.945349999999999824e+01 6.507984999999999332e+01 2.009110000000000127e+03
2.200000000000000219e-02 2.108615000000000073e-01 2.004325000000000045e+01 6.785365000000000180e+01 2.009849999999999909e+03
2.299999999999999961e-02 2.109719999999999929e-01 2.041199999999999903e+01 7.015569999999999595e+01 2.010554999999999836e+03
2.400000000000000050e-02 2.110589999999999966e-01 2.048100000000000165e+01 7.164529999999999177e+01 2.011130000000000109e+03
2.500000000000000139e-02 2.111155000000000115e-01 2.024815000000000254e+01 7.221520000000001005e+01 2.011509999999999991e+03
2.600000000000000228e-02 2.111395000000000077e-01 1.977785000000000082e+01 7.199294999999999334e+01 2.011690000000000055e+03
2.700000000000000316e-02 2.111389999999999934e-01 1.916959999999999908e+01 7.126519999999999300e+01 2.011704999999999927e+03
2.800000000000000058e-02 2.111215000000000175e-01 1.852055000000000007e+01 7.036260000000000048e+01 2.011605000000000018e+03
2.900000000000000147e-02 2.110994999999999955e-01 1.789504999999999768e+01 6.954855000000000587e+01 2.011474999999999909e+03
3.000000000000000236e-02 2.110785000000000022e-01 1.731105000000000160e+01 6.894980000000001041e+01 2.011339999999999918e+03
3.099999999999999978e-02 2.110609999999999986e-01 1.674354999999999905e+01 6.854314999999999714e+01 2.011230000000000018e+03
3.200000000000000067e-02 2.110449999999999826e-01 1.614290000000000092e+01 6.819345000000001278e+01 2.011125000000000000e+03
3.300000000000000155e-02 2.110249999999999904e-01 1.545814999999999984e+01 6.772344999999999970e+01 2.011005000000000109e+03
3.400000000000000244e-02 2.109975000000000045e-01 1.466069999999999851e+01 6.699054999999999893e+01 2.010835000000000036e+03
3.500000000000000333e-02 2.109574999999999922e-01 1.375919999999999987e+01 6.594809999999999661e+01 2.010590000000000146e+03
3.600000000000000422e-02 2.109074999999999978e-01 1.280294999999999916e+01 6.467345000000000255e+01 2.010284999999999854e+03
3.700000000000000511e-02 2.108530000000000126e-01 1.187288999999999994e+01 6.335644999999999527e+01 2.009940000000000055e+03
3.799999999999999906e-02 2.108005000000000018e-01 1.106227499999999964e+01 6.225119999999999720e+01 2.009615000000000009e+03
3.899999999999999994e-02 2.107625000000000193e-01 1.045382000000000033e+01 6.160869999999999891e+01 2.009364999999999782e+03
4.000000000000000083e-02 2.107455000000000023e-01 1.009971499999999978e+01 6.160960000000000036e+01 2.009244999999999891e+03
4.100000000000000172e-02 2.107554999999999845e-01 1.000961000000000034e+01 6.231734999999999758e+01 2.009289999999999964e+03
4.200000000000000261e-02 2.107920000000000071e-01 1.014957000000000065e+01 6.366185000000000116e+01 2.009500000000000000e+03
4.300000000000000350e-02 2.108519999999999839e-01 1.044971500000000120e+01 6.545504999999999995e+01 2.009860000000000127e+03
4.400000000000000439e-02 2.109260000000000024e-01 1.081876499999999908e+01 6.743070000000000164e+01 2.010320000000000164e+03
4.499999999999999833e-02 2.110049999999999981e-01 1.116009999999999991e+01 6.929550000000000409e+01 2.010804999999999836e+03
4.599999999999999922e-02 2.110770000000000146e-01 1.138694999999999879e+01 7.077955000000000041e+01 2.011259999999999991e+03
4.700000000000000011e-02 2.111310000000000131e-01 1.143304999999999971e+01 7.167579999999999529e+01 2.011615000000000009e+03
4.800000000000000100e-02 2.111620000000000164e-01 1.125835000000000008e+01 7.186275000000000546e+01 2.011815000000000055e+03
4.900000000000000189e-02 2.111629999999999896e-01 1.084895999999999994e+01 7.130859999999999843e+01 2.011839999999999918e+03
5.000000000000000278e-02 2.111350000000000171e-01 1.021368000000000009e+01 7.006000000000000227e+01 2.011674999999999955e+03
5.100000000000000366e-02 2.110785000000000022e-01 9.377425000000000566e+00 6.821950000000001069e+01 2.011329999999999927e+03
5.200000000000000455e-02 2.109979999999999911e-01 8.374309999999999476e+00 6.592040000000000077e+01 2.010829999999999927e+03
5.300000000000000544e-02 2.108975000000000155e-01 7.241850000000000342e+00 6.330259999999999820e+01 2.010204999999999927e+03
5.399999999999999939e-02 2.107829999999999981e-01 6.017009999999999970e+00 6.049560000000000315e+01 2.009485000000000127e+03
5.500000000000000028e-02 2.106584999999999985e-01 4.734340000000000437e+00 5.760949999999999704e+01 2.008704999999999927e+03
5.600000000000000117e-02 2.105294999999999805e-01 3.426143000000000161e+00 5.473380000000000223e+01 2.007894999999999982e+03
5.700000000000000205e-02 2.103994999999999893e-01 2.123644999999999783e+00 5.194150000000000489e+01 2.007074999999999818e+03
5.800000000000000294e-02 2.102720000000000145e-01 8.585399999999998588e-01 4.929645000000000010e+01 2.006264999999999873e+03
5.900000000000000383e-02 2.101500000000000035e-01 -3.358499999999999819e-01 4.686029999999999518e+01 2.005494999999999891e+03
6.000000000000000472e-02 2.100374999999999881e-01 -1.424204999999999943e+00 4.469735000000000014e+01 2.004779999999999973e+03
6.099999999999999867e-02 2.099374999999999991e-01 -2.369875000000000398e+00 4.287600000000000477e+01 2.004139999999999873e+03
6.199999999999999956e-02 2.098530000000000117e-01 -3.136410000000000142e+00 4.146739999999999782e+01 2.003595000000000027e+03
6.300000000000000044e-02 2.097875000000000156e-01 -3.689824999999999910e+00 4.054044999999999987e+01 2.003170000000000073e+03
6.400000000000000133e-02 2.097439999999999860e-01 -4.001075000000000159e+00 4.015574999999999761e+01 2.002880000000000109e+03
6.500000000000000222e-02 2.097259999999999958e-01 -4.048334999999999795e+00 4.035914999999999964e+01 2.002744999999999891e+03
6.600000000000000311e-02 2.097340000000000038e-01 -3.818825000000000358e+00 4.117629999999999768e+01 2.002775000000000091e+03
6.700000000000000400e-02 2.097700000000000120e-01 -3.309845000000000148e+00 4.260904999999999632e+01 2.002980000000000018e+03
6.800000000000000488e-02 2.098339999999999927e-01 -2.528986999999999874e+00 4.463465000000000060e+01 2.003360000000000127e+03
6.900000000000000577e-02 2.099239999999999995e-01 -1.493607499999999977e+00 4.720659999999999457e+01 2.003909999999999854e+03
7.000000000000000666e-02 2.100390000000000035e-01 -2.296049999999998370e-01 5.025835000000000008e+01 2.004615000000000009e+03
7.100000000000000755e-02 2.101755000000000151e-01 1.230215000000000058e+00 5.370775000000000432e+01 2.005460000000000036e+03
7.200000000000000844e-02 2.103309999999999902e-01 2.848125500000000088e+00 5.746269999999999811e+01 2.006420000000000073e+03
7.300000000000000933e-02 2.104999999999999927e-01 4.583511999999999809e+00 6.142669999999999675e+01 2.007480000000000018e+03
7.399999999999999634e-02 2.106794999999999918e-01 6.395010000000000083e+00 6.550504999999999711e+01 2.008610000000000127e+03
7.499999999999999722e-02 2.108649999999999969e-01 8.242409999999999570e+00 6.960949999999999704e+01 2.009780000000000200e+03
7.599999999999999811e-02 2.110529999999999906e-01 1.008875500000000081e+01 7.366294999999999504e+01 2.010970000000000027e+03
7.699999999999999900e-02 2.112399999999999833e-01 1.190151000000000003e+01 7.760314999999999941e+01 2.012155000000000200e+03
7.799999999999999989e-02 2.114229999999999998e-01 1.365409999999999968e+01 8.138470000000000937e+01 2.013319999999999936e+03
7.900000000000000078e-02 2.116000000000000103e-01 1.532639999999999958e+01 8.498040000000000305e+01 2.014454999999999927e+03
8.000000000000000167e-02 2.117705000000000004e-01 1.690494999999999948e+01 8.838054999999999950e+01 2.015549999999999955e+03
8.100000000000000255e-02 2.119334999999999969e-01 1.838295000000000101e+01 9.159159999999999968e+01 2.016595000000000027e+03
8.200000000000000344e-02 2.120885000000000131e-01 1.975914999999999822e+01 9.463320000000000221e+01 2.017599999999999909e+03
8.300000000000000433e-02 2.122374999999999956e-01 2.103694999999999737e+01 9.753360000000000696e+01 2.018559999999999945e+03
8.400000000000000522e-02 2.123804999999999998e-01 2.222314999999999685e+01 1.003268500000000074e+02 2.019485000000000127e+03
8.500000000000000611e-02 2.125190000000000135e-01 2.332649999999999935e+01 1.030484000000000009e+02 2.020384999999999991e+03
8.600000000000000699e-02 2.126554999999999973e-01 2.435644999999999882e+01 1.057299999999999898e+02 2.021264999999999873e+03
8.700000000000000788e-02 2.127895000000000203e-01 2.532199999999999918e+01 1.083969999999999914e+02 2.022139999999999873e+03
8.800000000000000877e-02 2.129225000000000145e-01 2.623065000000000069e+01 1.110690000000000026e+02 2.023005000000000109e+03
8.899999999999999578e-02 2.130560000000000231e-01 2.708794999999999931e+01 1.137549999999999955e+02 2.023869999999999891e+03
8.999999999999999667e-02 2.131890000000000174e-01 2.789719999999999800e+01 1.164550000000000125e+02 2.024735000000000127e+03
9.099999999999999756e-02 2.133229999999999849e-01 2.865919999999999845e+01 1.191610000000000014e+02 2.025609999999999900e+03
9.199999999999999845e-02 2.134564999999999935e-01 2.937214999999999776e+01 1.218575000000000017e+02 2.026469999999999800e+03
9.299999999999999933e-02 2.135890000000000011e-01 3.003235000000000099e+01 1.245229999999999961e+02 2.027335000000000036e+03
9.400000000000000022e-02 2.137195000000000067e-01 3.063425000000000153e+01 1.271295000000000073e+02 2.028184999999999945e+03
9.500000000000000111e-02 2.138474999999999959e-01 3.117089999999999961e+01 1.296500000000000057e+02 2.029015000000000100e+03
9.600000000000000200e-02 2.139710000000000223e-01 3.163429999999999964e+01 1.320540000000000020e+02 2.029824999999999818e+03
9.700000000000000289e-02 2.140890000000000015e-01 3.201639999999999731e+01 1.343125000000000000e+02 2.030595000000000027e+03
9.800000000000000377e-02 2.141994999999999871e-01 3.230884999999999962e+01 1.363969999999999914e+02 2.031320000000000164e+03
9.900000000000000466e-02 2.143025000000000069e-01 3.250404999999999944e+01 1.382824999999999989e+02 2.031990000000000009e+03
1.000000000000000056e-01 2.143959999999999755e-01 3.259519999999999840e+01 1.399474999999999909e+02 2.032610000000000127e+03
1.010000000000000064e-01 2.144790000000000030e-01 3.257694999999999652e+01 1.413750000000000000e+02 2.033155000000000200e+03
1.020000000000000073e-01 2.145515000000000061e-01 3.244579999999999842e+01 1.425540000000000020e+02 2.033634999999999991e+03
1.030000000000000082e-01 2.146124999999999838e-01 3.220019999999999527e+01 1.434764999999999873e+02 2.034039999999999964e+03
1.040000000000000091e-01 2.146609999999999907e-01 3.184114999999999895e+01 1.441444999999999936e+02 2.034365000000000009e+03
1.050000000000000100e-01 2.146980000000000000e-01 3.137199999999999989e+01 1.445629999999999882e+02 2.034615000000000009e+03
1.059999999999999970e-01 2.147235000000000116e-01 3.079865000000000208e+01 1.447434999999999832e+02 2.034789999999999964e+03
1.069999999999999979e-01 2.147374999999999978e-01 3.012944999999999851e+01 1.447055000000000007e+02 2.034894999999999982e+03
1.079999999999999988e-01 2.147419999999999884e-01 2.937485000000000213e+01 1.444710000000000036e+02 2.034930000000000064e+03
1.089999999999999997e-01 2.147364999999999968e-01 2.854715000000000202e+01 1.440665000000000191e+02 2.034904999999999973e+03
1.100000000000000006e-01 2.147235000000000116e-01 2.765995000000000203e+01 1.435219999999999914e+02 2.034829999999999927e+03
1.110000000000000014e-01 2.147034999999999916e-01 2.672775000000000034e+01 1.428675000000000068e+02 2.034710000000000036e+03
1.120000000000000023e-01 2.146779999999999800e-01 2.576529999999999987e+01 1.421355000000000075e+02 2.034550000000000182e+03
1.130000000000000032e-01 2.146485000000000198e-01 2.478714999999999691e+01 1.413534999999999968e+02 2.034360000000000127e+03
1.140000000000000041e-01 2.146164999999999878e-01 2.380695000000000050e+01 1.405509999999999877e+02 2.034159999999999854e+03
1.150000000000000050e-01 2.145825000000000093e-01 2.283760000000000190e+01 1.397514999999999930e+02 2.033940000000000055e+03
1.160000000000000059e-01 2.145485000000000031e-01 2.188994999999999891e+01 1.389749999999999943e+02 2.033720000000000027e+03
1.170000000000000068e-01 2.145150000000000112e-01 2.097319999999999851e+01 1.382369999999999948e+02 2.033500000000000000e+03
1.180000000000000077e-01 2.144820000000000060e-01 2.009465000000000146e+01 1.375484999999999900e+02 2.033284999999999854e+03
1.190000000000000085e-01 2.144515000000000171e-01 1.925910000000000011e+01 1.369159999999999968e+02 2.033085000000000036e+03
1.200000000000000094e-01 2.144224999999999881e-01 1.846920000000000073e+01 1.363394999999999868e+02 2.032894999999999982e+03
1.209999999999999964e-01 2.143960000000000032e-01 1.772540000000000049e+01 1.358149999999999977e+02 2.032715000000000146e+03
1.219999999999999973e-01 2.143710000000000060e-01 1.702584999999999837e+01 1.353344999999999914e+02 2.032549999999999955e+03
1.229999999999999982e-01 2.143474999999999964e-01 1.636715000000000231e+01 1.348870000000000005e+02 2.032394999999999982e+03
1.239999999999999991e-01 2.143249999999999877e-01 1.574399999999999977e+01 1.344569999999999936e+02 2.032244999999999891e+03
1.250000000000000000e-01 2.143035000000000079e-01 1.514995000000000047e+01 1.340275000000000034e+02 2.032105000000000018e+03
1.260000000000000009e-01 2.142820000000000003e-01 1.457765000000000022e+01 1.335810000000000173e+02 2.031954999999999927e+03
1.270000000000000018e-01 2.142590000000000050e-01 1.401930000000000121e+01 1.330989999999999895e+02 2.031799999999999955e+03
1.280000000000000027e-01 2.142344999999999944e-01 1.346710000000000029e+01 1.325654999999999859e+02 2.031639999999999873e+03
1.290000000000000036e-01 2.142069999999999808e-01 1.291365000000000052e+01 1.319629999999999939e+02 2.031464999999999918e+03
1.300000000000000044e-01 2.141770000000000063e-01 1.235245000000000104e+01 1.312800000000000011e+02 2.031265000000000100e+03
1.310000000000000053e-01 2.141430000000000000e-01 1.177800000000000047e+01 1.305074999999999932e+02 2.031050000000000182e+03
1.320000000000000062e-01 2.141049999999999898e-01 1.118646999999999991e+01 1.296390000000000100e+02 2.030805000000000064e+03
1.330000000000000071e-01 2.140630000000000033e-01 1.057565999999999917e+01 1.286739999999999782e+02 2.030525000000000091e+03
1.340000000000000080e-01 2.140164999999999984e-01 9.945229999999998682e+00 1.276154999999999973e+02 2.030230000000000018e+03
1.350000000000000089e-01 2.139659999999999895e-01 9.296739999999999782e+00 1.264719999999999942e+02 2.029900000000000091e+03
1.360000000000000098e-01 2.139110000000000178e-01 8.633625000000000327e+00 1.252560000000000002e+02 2.029550000000000182e+03
1.370000000000000107e-01 2.138535000000000019e-01 7.961045000000000371e+00 1.239830000000000041e+02 2.029179999999999836e+03
1.380000000000000115e-01 2.137935000000000252e-01 7.285605000000000331e+00 1.226730000000000018e+02 2.028789999999999964e+03
1.390000000000000124e-01 2.137315000000000187e-01 6.615089999999999471e+00 1.213464999999999918e+02 2.028389999999999873e+03
1.400000000000000133e-01 2.136695000000000122e-01 5.958050000000000068e+00 1.200264999999999986e+02 2.027985000000000127e+03
1.410000000000000142e-01 2.136065000000000047e-01 5.323439999999999728e+00 1.187359999999999900e+02 2.027579999999999927e+03
1.420000000000000151e-01 2.135460000000000136e-01 4.720145000000000479e+00 1.174975000000000023e+02 2.027190000000000055e+03
1.430000000000000160e-01 2.134874999999999967e-01 4.156600000000000072e+00 1.163305000000000007e+02 2.026805000000000064e+03
1.440000000000000169e-01 2.134314999999999962e-01 3.640390000000000015e+00 1.152530000000000001e+02 2.026445000000000164e+03
1.450000000000000178e-01 2.133800000000000141e-01 3.177964999999999929e+00 1.142794999999999987e+02 2.026114999999999782e+03
1.459999999999999909e-01 2.133335000000000092e-01 2.774329999999999963e+00 1.134209999999999923e+02 2.025804999999999836e+03
1.469999999999999918e-01 2.132914999999999950e-01 2.432960000000000012e+00 1.126829999999999927e+02 2.025530000000000200e+03
1.479999999999999927e-01 2.132550000000000001e-01 2.155619999999999870e+00 1.120685000000000002e+02 2.025289999999999964e+03
1.489999999999999936e-01 2.132239999999999969e-01 1.942435000000000134e+00 1.115755000000000052e+02 2.025085000000000036e+03
1.499999999999999944e-01 2.131985000000000130e-01 1.791920000000000179e+00 1.112000000000000028e+02 2.024914999999999964e+03
1.509999999999999953e-01 2.131784999999999930e-01 1.701114999999999933e+00 1.109329999999999927e+02 2.024775000000000091e+03
1.519999999999999962e-01 2.131624999999999770e-01 1.665780000000000038e+00 1.107639999999999958e+02 2.024670000000000073e+03
1.529999999999999971e-01 2.131520000000000081e-01 1.680604999999999905e+00 1.106809999999999974e+02 2.024595000000000027e+03
1.539999999999999980e-01 2.131454999999999878e-01 1.739440000000000097e+00 1.106684999999999945e+02 2.024550000000000182e+03
1.549999999999999989e-01 2.131419999999999981e-01 1.835544999999999982e+00 1.107134999999999962e+02 2.024519999999999982e+03
1.559999999999999998e-01 2.131415000000000115e-01 1.961834999999999996e+00 1.108004999999999995e+02 2.024509999999999991e+03
1.570000000000000007e-01 2.131425000000000125e-01 2.111114999999999853e+00 1.109149999999999920e+02 2.024514999999999873e+03
1.580000000000000016e-01 2.131454999999999878e-01 2.276295000000000179e+00 1.110434999999999945e+02 2.024530000000000200e+03
1.590000000000000024e-01 2.131494999999999918e-01 2.450555000000000039e+00 1.111740000000000066e+02 2.024550000000000182e+03
