# t [s], A [cm^2], U [cm/s], P [cPa], c [cm/s]
1.000000000000000021e-03 7.131460000000000576e-01 5.738000000000000045e-03 1.041289999999999907e+02 1.735654999999999973e+03
2.000000000000000042e-03 7.131399999999999961e-01 1.004309999999999925e-02 1.041014999999999873e+02 1.735650000000000091e+03
3.000000000000000062e-03 7.132264999999999855e-01 1.644932999999999812e-01 1.042814999999999941e+02 1.735690000000000055e+03
4.000000000000000083e-03 7.132510000000000794e-01 2.343839999999999812e-01 1.043559999999999945e+02 1.735710000000000036e+03
5.000000000000000104e-03 7.131640000000000201e-01 1.208259999999999890e-01 1.041069999999999993e+02 1.735659999999999854e+03
6.000000000000000125e-03 7.130724999999999980e-01 -1.676250000000001350e-02 1.037085000000000008e+02 1.735569999999999936e+03
7.000000000000000146e-03 7.129520000000000302e-01 -2.189300000000000690e-01 1.031450000000000102e+02 1.735440000000000055e+03
8.000000000000000167e-03 7.127354999999999663e-01 -6.090949999999999420e-01 1.022319999999999993e+02 1.735240000000000009e+03
9.000000000000001055e-03 7.124274999999999913e-01 -1.176649999999999974e+00 1.009171000000000049e+02 1.734949999999999818e+03
1.000000000000000194e-02 7.120035000000000114e-01 -1.942309999999999981e+00 9.911400000000000432e+01 1.734539999999999964e+03
1.099999999999999936e-02 7.114380000000000148e-01 -2.923674999999999802e+00 9.672934999999999661e+01 1.733994999999999891e+03
1.200000000000000025e-02 7.107894999999999630e-01 -3.984719999999999818e+00 9.388354999999999961e+01 1.733324999999999818e+03
1.300000000000000114e-02 7.101850000000000662e-01 -4.854192499999999910e+00 9.095220000000000482e+01 1.732610000000000127e+03
1.400000000000000203e-02 7.097329999999999472e-01 -5.292336499999999333e+00 8.835890000000000555e+01 1.731934999999999945e+03
1.499999999999999944e-02 7.094559999999999755e-01 -5.217335000000000278e+00 8.634789999999999566e+01 1.731365000000000009e+03
1.600000000000000033e-02 7.092989999999999018e-01 -4.716044999999999376e+00 8.490174999999999272e+01 1.730909999999999854e+03
1.700000000000000122e-02 7.091640000000000166e-01 -3.977009999999999934e+00 8.379124999999999091e+01 1.730529999999999973e+03
1.800000000000000211e-02 7.089630000000000098e-01 -3.197900000000000187e+00 8.270300000000000296e+01 1.730170000000000073e+03
1.900000000000000300e-02 7.086479999999999446e-01 -2.505271500000000096e+00 8.138124999999999432e+01 1.729759999999999991e+03
2.000000000000000042e-02 7.082300000000000262e-01 -1.917374999999999829e+00 7.972620000000000573e+01 1.729289999999999964e+03
2.100000000000000130e-02 7.077575000000000394e-01 -1.365519999999999845e+00 7.780424999999999613e+01 1.728759999999999991e+03
2.200000000000000219e-02 7.072890000000000565e-01 -7.566150000000000375e-01 7.577564999999999884e+01 1.728204999999999927e+03
2.299999999999999961e-02 7.068590000000000151e-01 -3.776000000000001577e-02 7.379060000000001196e+01 1.727650000000000091e+03
2.400000000000000050e-02 7.064639999999999809e-01 7.676000000000002821e-01 7.190784999999999627e+01 1.727105000000000018e+03
2.500000000000000139e-02 7.060640000000000249e-01 1.559225000000000083e+00 7.006220000000000425e+01 1.726569999999999936e+03
2.600000000000000228e-02 7.056009999999999227e-01 2.187724999999999476e+00 6.808135000000000048e+01 1.726005000000000109e+03
2.700000000000000316e-02 7.050140000000000295e-01 2.498214999999999630e+00 6.574164999999999281e+01 1.725375000000000000e+03
2.800000000000000058e-02 7.042614999999999847e-01 2.377234999999999765e+00 6.284380000000000166e+01 1.724625000000000000e+03
2.900000000000000147e-02 7.033405000000000351e-01 1.789084999999999592e+00 5.928619999999999379e+01 1.723730000000000018e+03
3.000000000000000236e-02 7.022844999999999782e-01 7.889099999999995561e-01 5.511064999999999969e+01 1.722690000000000055e+03
3.099999999999999978e-02 7.011609999999999232e-01 -4.923999999999999488e-01 5.050334999999999752e+01 1.721545000000000073e+03
3.200000000000000067e-02 7.000505000000000200e-01 -1.882615000000000371e+00 4.575574999999999903e+01 1.720355000000000018e+03
3.300000000000000155e-02 6.990345000000000031e-01 -3.207485000000000142e+00 4.120275000000000176e+01 1.719184999999999945e+03
3.400000000000000244e-02 6.981749999999999901e-01 -4.321165000000000589e+00 3.716225000000000023e+01 1.718115000000000009e+03
3.500000000000000333e-02 6.975154999999999550e-01 -5.122619999999999507e+00 3.388935000000000031e+01 1.717204999999999927e+03
3.600000000000000422e-02 6.970760000000000289e-01 -5.558391000000000304e+00 3.155144999999999911e+01 1.716509999999999991e+03
3.700000000000000511e-02 6.968570000000000597e-01 -5.614899999999999558e+00 3.022489999999999810e+01 1.716055000000000064e+03
3.799999999999999906e-02 6.968490000000000517e-01 -5.305225000000000080e+00 2.990804999999999936e+01 1.715845000000000027e+03
3.899999999999999994e-02 6.970330000000000137e-01 -4.654745000000000132e+00 3.054449999999999932e+01 1.715884999999999991e+03
4.000000000000000083e-02 6.973909999999999831e-01 -3.690017999999999798e+00 3.204854999999999876e+01 1.716144999999999982e+03
4.100000000000000172e-02 6.979055000000000675e-01 -2.433374999999999844e+00 3.432574999999999932e+01 1.716619999999999891e+03
4.200000000000000261e-02 6.985604999999999176e-01 -9.037749999999995509e-01 3.728340000000000032e+01 1.717279999999999973e+03
4.300000000000000350e-02 6.993395000000000028e-01 8.780749999999999389e-01 4.083239999999999981e+01 1.718110000000000127e+03
4.400000000000000439e-02 7.002245000000000275e-01 2.883429999999999715e+00 4.488204999999999956e+01 1.719079999999999927e+03
4.499999999999999833e-02 7.011935000000000251e-01 5.071099999999999497e+00 4.933340000000000458e+01 1.720164999999999964e+03
4.599999999999999922e-02 7.022205000000000252e-01 7.386870000000000047e+00 5.407610000000000383e+01 1.721345000000000027e+03
4.700000000000000011e-02 7.032764999999999711e-01 9.766409499999999966e+00 5.898900000000000432e+01 1.722589999999999918e+03
4.800000000000000100e-02 7.043314999999999992e-01 1.214091999999999949e+01 6.394624999999999915e+01 1.723855000000000018e+03
4.900000000000000189e-02 7.053599999999999870e-01 1.444415000000000049e+01 6.882635000000000502e+01 1.725125000000000000e+03
5.000000000000000278e-02 7.063399999999999679e-01 1.661857499999999987e+01 7.352200000000000557e+01 1.726375000000000000e+03
5.100000000000000366e-02 7.072564999999999547e-01 1.861984999999999957e+01 7.794915000000000305e+01 1.727565000000000055e+03
5.200000000000000455e-02 7.081005000000000216e-01 2.041945000000000121e+01 8.205215000000001169e+01 1.728690000000000055e+03
5.300000000000000544e-02 7.088704999999999590e-01 2.200430000000000064e+01 8.580604999999999905e+01 1.729740000000000009e+03
5.399999999999999939e-02 7.095720000000000915e-01 2.337525000000000119e+01 8.921469999999999345e+01 1.730710000000000036e+03
5.500000000000000028e-02 7.102124999999999133e-01 2.454420000000000002e+01 9.230635000000000900e+01 1.731599999999999909e+03
5.600000000000000117e-02 7.108045000000000613e-01 2.553130000000000166e+01 9.512739999999999441e+01 1.732420000000000073e+03
5.700000000000000205e-02 7.113609999999999101e-01 2.636214999999999975e+01 9.773739999999999384e+01 1.733179999999999836e+03
5.800000000000000294e-02 7.118955000000000144e-01 2.706564999999999799e+01 1.002017500000000041e+02 1.733904999999999973e+03
5.900000000000000383e-02 7.124219999999999997e-01 2.767235000000000156e+01 1.025869000000000000e+02 1.734599999999999909e+03
6.000000000000000472e-02 7.129535000000000178e-01 2.821240000000000236e+01 1.049569999999999936e+02 1.735284999999999854e+03
6.099999999999999867e-02 7.135015000000000107e-01 2.871389999999999887e+01 1.073685000000000116e+02 1.735970000000000027e+03
6.199999999999999956e-02 7.140724999999999989e-01 2.920110000000000028e+01 1.098659999999999997e+02 1.736675000000000182e+03
6.300000000000000044e-02 7.146734999999999616e-01 2.969194999999999851e+01 1.124795000000000016e+02 1.737400000000000091e+03
6.400000000000000133e-02 7.153035000000000920e-01 3.019689999999999941e+01 1.152204999999999870e+02 1.738150000000000091e+03
6.500000000000000222e-02 7.159590000000000121e-01 3.071760000000000090e+01 1.180815000000000055e+02 1.738934999999999945e+03
6.600000000000000311e-02 7.166325000000000056e-01 3.124694999999999823e+01 1.210335000000000036e+02 1.739740000000000009e+03
6.700000000000000400e-02 7.173125000000000195e-01 3.177009999999999934e+01 1.240324999999999989e+02 1.740559999999999945e+03
6.800000000000000488e-02 7.179839999999999556e-01 3.226595000000000368e+01 1.270194999999999936e+02 1.741375000000000000e+03
6.900000000000000577e-02 7.186325000000000074e-01 3.270955000000000013e+01 1.299250000000000114e+02 1.742175000000000182e+03
7.000000000000000666e-02 7.192410000000000192e-01 3.307455000000000211e+01 1.326779999999999973e+02 1.742940000000000055e+03
7.100000000000000755e-02 7.197959999999999914e-01 3.333575000000000443e+01 1.352094999999999914e+02 1.743654999999999973e+03
7.200000000000000844e-02 7.202844999999999942e-01 3.347115000000000151e+01 1.374565000000000055e+02 1.744304999999999836e+03
7.300000000000000933e-02 7.206970000000000320e-01 3.346334999999999837e+01 1.393695000000000164e+02 1.744869999999999891e+03
7.399999999999999634e-02 7.210274999999999324e-01 3.330124999999999602e+01 1.409134999999999991e+02 1.745345000000000027e+03
7.499999999999999722e-02 7.212735000000000118e-01 3.297984999999999900e+01 1.420689999999999884e+02 1.745714999999999918e+03
7.599999999999999811e-02 7.214350000000000485e-01 3.250115000000000265e+01 1.428340000000000032e+02 1.745990000000000009e+03
7.699999999999999900e-02 7.215165000000000051e-01 3.187335000000000207e+01 1.432220000000000084e+02 1.746164999999999964e+03
7.799999999999999989e-02 7.215249999999999719e-01 3.111040000000000205e+01 1.432604999999999791e+02 1.746240000000000009e+03
7.900000000000000078e-02 7.214700000000000557e-01 3.023109999999999786e+01 1.429904999999999973e+02 1.746230000000000018e+03
8.000000000000000167e-02 7.213624999999999066e-01 2.925810000000000244e+01 1.424604999999999961e+02 1.746150000000000091e+03
8.100000000000000255e-02 7.212144999999999806e-01 2.821675000000000111e+01 1.417275000000000205e+02 1.746000000000000000e+03
8.200000000000000344e-02 7.210389999999999855e-01 2.713345000000000340e+01 1.408495000000000061e+02 1.745804999999999836e+03
8.300000000000000433e-02 7.208474999999999744e-01 2.603490000000000038e+01 1.398865000000000123e+02 1.745579999999999927e+03
8.400000000000000522e-02 7.206520000000000703e-01 2.494630000000000081e+01 1.388924999999999841e+02 1.745345000000000027e+03
8.500000000000000611e-02 7.204634999999999234e-01 2.389039999999999964e+01 1.379200000000000159e+02 1.745095000000000027e+03
8.600000000000000699e-02 7.202895000000000270e-01 2.288629999999999853e+01 1.370115000000000123e+02 1.744860000000000127e+03
8.700000000000000788e-02 7.201364999999999572e-01 2.194879999999999853e+01 1.361990000000000123e+02 1.744634999999999991e+03
8.800000000000000877e-02 7.200094999999999690e-01 2.108784999999999954e+01 1.355065000000000168e+02 1.744445000000000164e+03
8.899999999999999578e-02 7.199089999999999101e-01 2.030809999999999960e+01 1.349459999999999980e+02 1.744279999999999973e+03
8.999999999999999667e-02 7.198350000000000026e-01 1.960930000000000106e+01 1.345179999999999723e+02 1.744139999999999873e+03
9.099999999999999756e-02 7.197849999999998971e-01 1.898649999999999949e+01 1.342139999999999986e+02 1.744039999999999964e+03
9.199999999999999845e-02 7.197540000000000049e-01 1.843049999999999855e+01 1.340169999999999959e+02 1.743964999999999918e+03
9.299999999999999933e-02 7.197375000000000300e-01 1.792875000000000085e+01 1.339019999999999868e+02 1.743909999999999854e+03
9.400000000000000022e-02 7.197275000000000755e-01 1.746630000000000038e+01 1.338385000000000105e+02 1.743875000000000000e+03
9.500000000000000111e-02 7.197180000000000799e-01 1.702635000000000076e+01 1.337940000000000111e+02 1.743844999999999800e+03
9.600000000000000200e-02 7.197009999999999241e-01 1.659179999999999922e+01 1.337344999999999970e+02 1.743815000000000055e+03
9.700000000000000289e-02 7.196705000000001018e-01 1.614590000000000103e+01 1.336270000000000095e+02 1.743779999999999973e+03
9.800000000000000377e-02 7.196194999999999675e-01 1.567340000000000089e+01 1.334410000000000025e+02 1.743730000000000018e+03
9.900000000000000466e-02 7.195439999999999614e-01 1.516145000000000032e+01 1.331519999999999868e+02 1.743654999999999973e+03
1.000000000000000056e-01 7.194400000000000794e-01 1.460030000000000072e+01 1.327409999999999854e+02 1.743549999999999955e+03
1.010000000000000064e-01 7.193070000000000297e-01 1.398395000000000010e+01 1.321970000000000027e+02 1.743414999999999964e+03
1.020000000000000073e-01 7.191440000000000055e-01 1.331067000000000000e+01 1.315180000000000007e+02 1.743244999999999891e+03
1.030000000000000082e-01 7.189544999999999408e-01 1.258276000000000039e+01 1.307100000000000080e+02 1.743039999999999964e+03
1.040000000000000091e-01 7.187419999999999920e-01 1.180679500000000104e+01 1.297864999999999895e+02 1.742809999999999945e+03
1.050000000000000100e-01 7.185110000000000108e-01 1.099310999999999972e+01 1.287704999999999984e+02 1.742555000000000064e+03
1.059999999999999970e-01 7.182699999999999640e-01 1.015521000000000029e+01 1.276899999999999977e+02 1.742275000000000091e+03
1.069999999999999979e-01 7.180250000000000243e-01 9.308984999999999843e+00 1.265790000000000077e+02 1.741990000000000009e+03
1.079999999999999988e-01 7.177839999999999776e-01 8.471750000000000114e+00 1.254729999999999990e+02 1.741700000000000045e+03
1.089999999999999997e-01 7.175564999999999305e-01 7.661400000000000432e+00 1.244085000000000036e+02 1.741420000000000073e+03
1.100000000000000006e-01 7.173490000000000144e-01 6.895265000000000200e+00 1.234214999999999947e+02 1.741144999999999982e+03
1.110000000000000014e-01 7.171680000000000277e-01 6.189175000000000537e+00 1.225439999999999969e+02 1.740904999999999973e+03
1.120000000000000023e-01 7.170179999999999332e-01 5.556594999999999729e+00 1.218025000000000091e+02 1.740690000000000055e+03
1.130000000000000032e-01 7.169045000000000556e-01 5.007920000000000371e+00 1.212179999999999893e+02 1.740514999999999873e+03
1.140000000000000041e-01 7.168284999999999796e-01 4.550015000000000143e+00 1.208024999999999949e+02 1.740380000000000109e+03
1.150000000000000050e-01 7.167905000000001081e-01 4.185929999999999929e+00 1.205614999999999952e+02 1.740289999999999964e+03
1.160000000000000059e-01 7.167885000000000506e-01 3.914905000000000079e+00 1.204909999999999997e+02 1.740244999999999891e+03
1.170000000000000068e-01 7.168194999999999428e-01 3.732590000000000074e+00 1.205799999999999983e+02 1.740239999999999782e+03
1.180000000000000077e-01 7.168805000000000316e-01 3.631459999999999688e+00 1.208110000000000070e+02 1.740269999999999982e+03
1.190000000000000085e-01 7.169639999999999347e-01 3.601334999999999731e+00 1.211620000000000061e+02 1.740339999999999918e+03
1.200000000000000094e-01 7.170659999999999812e-01 3.630069999999999908e+00 1.216055000000000064e+02 1.740434999999999945e+03
1.209999999999999964e-01 7.171790000000000109e-01 3.704200000000000159e+00 1.221140000000000043e+02 1.740549999999999955e+03
1.219999999999999973e-01 7.172970000000000734e-01 3.809669999999999668e+00 1.226569999999999965e+02 1.740679999999999836e+03
1.229999999999999982e-01 7.174145000000000660e-01 3.932484999999999786e+00 1.232065000000000055e+02 1.740815000000000055e+03
1.239999999999999991e-01 7.175255000000000383e-01 4.059280000000000221e+00 1.237359999999999900e+02 1.740944999999999936e+03
1.250000000000000000e-01 7.176249999999999574e-01 4.177870000000000417e+00 1.242224999999999966e+02 1.741070000000000164e+03
1.260000000000000009e-01 7.177095000000000002e-01 4.277624999999999567e+00 1.246454999999999984e+02 1.741179999999999836e+03
1.270000000000000018e-01 7.177769999999999984e-01 4.349800000000000111e+00 1.249915000000000020e+02 1.741279999999999973e+03
1.280000000000000027e-01 7.178249999999999353e-01 4.387755000000000294e+00 1.252489999999999952e+02 1.741360000000000127e+03
1.290000000000000036e-01 7.178525000000000045e-01 4.387039999999999829e+00 1.254120000000000061e+02 1.741409999999999854e+03
1.300000000000000044e-01 7.178594999999999837e-01 4.345404999999999518e+00 1.254805000000000064e+02 1.741440000000000055e+03
1.310000000000000053e-01 7.178474999999999717e-01 4.262744999999999784e+00 1.254559999999999889e+02 1.741444999999999936e+03
1.320000000000000062e-01 7.178180000000000671e-01 4.140914999999999679e+00 1.253460000000000036e+02 1.741430000000000064e+03
1.330000000000000071e-01 7.177729999999999944e-01 3.983500000000000263e+00 1.251599999999999966e+02 1.741394999999999982e+03
1.340000000000000080e-01 7.177154999999999507e-01 3.795535000000000103e+00 1.249095000000000084e+02 1.741340000000000146e+03
1.350000000000000089e-01 7.176485000000000225e-01 3.583155000000000090e+00 1.246084999999999923e+02 1.741269999999999982e+03
1.360000000000000098e-01 7.175759999999999916e-01 3.353200000000000180e+00 1.242704999999999984e+02 1.741190000000000055e+03
1.370000000000000107e-01 7.174989999999999979e-01 3.112814999999999888e+00 1.239104999999999990e+02 1.741110000000000127e+03
1.380000000000000115e-01 7.174220000000000041e-01 2.869069999999999787e+00 1.235420000000000016e+02 1.741014999999999873e+03
1.390000000000000124e-01 7.173469999999999569e-01 2.628550000000000164e+00 1.231769999999999925e+02 1.740920000000000073e+03
1.400000000000000133e-01 7.172750000000001069e-01 2.397075000000000067e+00 1.228255000000000052e+02 1.740829999999999927e+03
1.410000000000000142e-01 7.172089999999999854e-01 2.179375000000000284e+00 1.224954999999999927e+02 1.740740000000000009e+03
1.420000000000000151e-01 7.171490000000000364e-01 1.978984999999999994e+00 1.221910000000000025e+02 1.740659999999999854e+03
1.430000000000000160e-01 7.170950000000000379e-01 1.798086999999999991e+00 1.219149999999999920e+02 1.740585000000000036e+03
1.440000000000000169e-01 7.170464999999999200e-01 1.637569499999999900e+00 1.216659999999999968e+02 1.740514999999999873e+03
1.450000000000000178e-01 7.170024999999999871e-01 1.497101000000000015e+00 1.214420000000000073e+02 1.740450000000000045e+03
1.459999999999999909e-01 7.169624999999999471e-01 1.375304499999999930e+00 1.212365000000000066e+02 1.740390000000000100e+03
1.469999999999999918e-01 7.169239999999998947e-01 1.269960999999999895e+00 1.210439999999999969e+02 1.740335000000000036e+03
1.479999999999999927e-01 7.168859999999999122e-01 1.178296500000000080e+00 1.208569999999999993e+02 1.740275000000000091e+03
1.489999999999999936e-01 7.168464999999999421e-01 1.097220499999999932e+00 1.206670000000000016e+02 1.740224999999999909e+03
1.499999999999999944e-01 7.168039999999999967e-01 1.023592499999999905e+00 1.204685000000000059e+02 1.740170000000000073e+03
1.509999999999999953e-01 7.167569999999999775e-01 9.544664999999999955e-01 1.202535000000000025e+02 1.740105000000000018e+03
1.519999999999999962e-01 7.167049999999999255e-01 8.873044999999999405e-01 1.200174999999999983e+02 1.740045000000000073e+03
1.529999999999999971e-01 7.166470000000000340e-01 8.201110000000000344e-01 1.197579999999999956e+02 1.739974999999999909e+03
1.539999999999999980e-01 7.165829999999999700e-01 7.515904500000000210e-01 1.194724999999999966e+02 1.739900000000000091e+03
1.549999999999999989e-01 7.165135000000000254e-01 6.811679999999999957e-01 1.191624999999999943e+02 1.739815000000000055e+03
1.559999999999999998e-01 7.164390000000000480e-01 6.090539999999999843e-01 1.188300000000000125e+02 1.739724999999999909e+03
1.570000000000000007e-01 7.163610000000000255e-01 5.361945000000000183e-01 1.184799999999999898e+02 1.739630000000000109e+03
1.580000000000000016e-01 7.162805000000000977e-01 4.641874999999999751e-01 1.181170000000000044e+02 1.739535000000000082e+03
1.590000000000000024e-01 7.161990000000000300e-01 3.952005000000000656e-01 1.177500000000000000e+02 1.739434999999999945e+03
