# t [s], A [cm^2], U [cm/s], P [cPa], c [cm/s]
1.000000000000000021e-03 1.894224999999999937e-01 4.385404999999999998e-01 9.918184999999999718e+01 2.185070000000000164e+03
2.000000000000000042e-03 1.893524999999999792e-01 2.174404000000000003e+00 9.512039999999998940e+01 2.184449999999999818e+03
3.000000000000000062e-03 1.891884999999999817e-01 4.284741499999999981e+00 8.957560000000000855e+01 2.183039999999999964e+03
4.000000000000000083e-03 1.889810000000000101e-01 6.661084999999999923e+00 8.396565000000001078e+01 2.181265000000000327e+03
5.000000000000000104e-03 1.887725000000000097e-01 9.165765000000000384e+00 7.935214999999999463e+01 2.179514999999999873e+03
6.000000000000000125e-03 1.885795000000000110e-01 1.149059499999999900e+01 7.570040000000000191e+01 2.177914999999999964e+03
7.000000000000000146e-03 1.884025000000000005e-01 1.340672999999999959e+01 7.248709999999999809e+01 2.176485000000000127e+03
8.000000000000000167e-03 1.882479999999999987e-01 1.494214999999999982e+01 6.966670000000000584e+01 2.175250000000000000e+03
9.000000000000001055e-03 1.881194999999999951e-01 1.616789999999999949e+01 6.740935000000000343e+01 2.174244999999999891e+03
1.000000000000000194e-02 1.880184999999999773e-01 1.711005000000000109e+01 6.569819999999999993e+01 2.173454999999999927e+03
1.099999999999999936e-02 1.879409999999999969e-01 1.780049999999999955e+01 6.446099999999999852e+01 2.172864999999999782e+03
1.200000000000000025e-02 1.878834999999999811e-01 1.825294999999999845e+01 6.357764999999999844e+01 2.172434999999999945e+03
1.300000000000000114e-02 1.878390000000000060e-01 1.847370000000000090e+01 6.285725000000000762e+01 2.172114999999999782e+03
1.400000000000000203e-02 1.878049999999999997e-01 1.855814999999999770e+01 6.230055000000000121e+01 2.171880000000000109e+03
1.499999999999999944e-02 1.877900000000000125e-01 1.872374999999999901e+01 6.232420000000000471e+01 2.171779999999999745e+03
1.600000000000000033e-02 1.878095000000000181e-01 1.919559999999999889e+01 6.354635000000000389e+01 2.171944999999999709e+03
1.700000000000000122e-02 1.878750000000000142e-01 2.004619999999999891e+01 6.627845000000000653e+01 2.172460000000000036e+03
1.800000000000000211e-02 1.879819999999999824e-01 2.112695000000000078e+01 7.017300000000000182e+01 2.173305000000000291e+03
1.900000000000000300e-02 1.881105000000000138e-01 2.213269999999999982e+01 7.428860000000000241e+01 2.174319999999999709e+03
2.000000000000000042e-02 1.882294999999999940e-01 2.274540000000000006e+01 7.749594999999999345e+01 2.175284999999999854e+03
2.100000000000000130e-02 1.883110000000000062e-01 2.277230000000000132e+01 7.896689999999999543e+01 2.175970000000000255e+03
2.200000000000000219e-02 1.883405000000000218e-01 2.221499999999999986e+01 7.849859999999999616e+01 2.176244999999999891e+03
2.299999999999999961e-02 1.883205000000000018e-01 2.124670000000000059e+01 7.653614999999999213e+01 2.176119999999999891e+03
2.400000000000000050e-02 1.882665000000000033e-01 2.011939999999999884e+01 7.391660000000000252e+01 2.175715000000000146e+03
2.500000000000000139e-02 1.882010000000000072e-01 1.905349999999999966e+01 7.148239999999999839e+01 2.175204999999999927e+03
2.600000000000000228e-02 1.881435000000000191e-01 1.816024999999999778e+01 6.975800000000000978e+01 2.174739999999999782e+03
2.700000000000000316e-02 1.881014999999999771e-01 1.742474999999999952e+01 6.881409999999999627e+01 2.174394999999999982e+03
2.800000000000000058e-02 1.880735000000000046e-01 1.674269999999999925e+01 6.833915000000000362e+01 2.174159999999999854e+03
2.900000000000000147e-02 1.880494999999999806e-01 1.598634999999999984e+01 6.784780000000000655e+01 2.173970000000000255e+03
3.000000000000000236e-02 1.880189999999999917e-01 1.507099999999999973e+01 6.692655000000000598e+01 2.173734999999999673e+03
3.099999999999999978e-02 1.879740000000000022e-01 1.399970000000000070e+01 6.542419999999999902e+01 2.173385000000000218e+03
3.200000000000000067e-02 1.879159999999999997e-01 1.287110000000000021e+01 6.352625000000000455e+01 2.172934999999999945e+03
3.300000000000000155e-02 1.878545000000000076e-01 1.185010499999999922e+01 6.169409999999999883e+01 2.172445000000000164e+03
3.400000000000000244e-02 1.878044999999999853e-01 1.111249000000000109e+01 6.049620000000000175e+01 2.172039999999999964e+03
3.500000000000000333e-02 1.877804999999999891e-01 1.078481999999999985e+01 6.040075000000000216e+01 2.171824999999999818e+03
3.600000000000000422e-02 1.877920000000000145e-01 1.090249999999999986e+01 6.160779999999999745e+01 2.171899999999999636e+03
3.700000000000000511e-02 1.878420000000000090e-01 1.139750000000000085e+01 6.397614999999999696e+01 2.172269999999999982e+03
3.799999999999999906e-02 1.879224999999999923e-01 1.211599999999999966e+01 6.705865000000000009e+01 2.172885000000000218e+03
3.899999999999999994e-02 1.880175000000000041e-01 1.285670000000000002e+01 7.021994999999999720e+01 2.173625000000000000e+03
4.000000000000000083e-02 1.881085000000000118e-01 1.341485000000000127e+01 7.279054999999999609e+01 2.174349999999999909e+03
4.100000000000000172e-02 1.881764999999999965e-01 1.362144999999999939e+01 7.421070000000000277e+01 2.174894999999999982e+03
4.200000000000000261e-02 1.882060000000000122e-01 1.336795000000000044e+01 7.412850000000000250e+01 2.175154999999999745e+03
4.300000000000000350e-02 1.881885000000000085e-01 1.261530000000000129e+01 7.243854999999999222e+01 2.175034999999999854e+03
4.400000000000000439e-02 1.881214999999999971e-01 1.138736499999999907e+01 6.926179999999999382e+01 2.174525000000000091e+03
4.499999999999999833e-02 1.880100000000000104e-01 9.754970000000000141e+00 6.488400000000000034e+01 2.173654999999999745e+03
4.599999999999999922e-02 1.878604999999999858e-01 7.816244999999999443e+00 5.967685000000000173e+01 2.172485000000000127e+03
4.700000000000000011e-02 1.876855000000000051e-01 5.679079499999999392e+00 5.402514999999999645e+01 2.171105000000000018e+03
4.800000000000000100e-02 1.874954999999999816e-01 3.448945000000000149e+00 4.827599999999999625e+01 2.169600000000000364e+03
4.900000000000000189e-02 1.873015000000000096e-01 1.223305000000000087e+00 4.271535000000000082e+01 2.168055000000000291e+03
5.000000000000000278e-02 1.871120000000000005e-01 -9.089599999999997681e-01 3.756889999999999930e+01 2.166545000000000073e+03
5.100000000000000366e-02 1.869350000000000178e-01 -2.865554999999999630e+00 3.301659999999999684e+01 2.165130000000000109e+03
5.200000000000000455e-02 1.867769999999999986e-01 -4.568575000000000053e+00 2.921164999999999878e+01 2.163864999999999782e+03
5.300000000000000544e-02 1.866444999999999910e-01 -5.944014999999999382e+00 2.629355000000000331e+01 2.162795000000000073e+03
5.399999999999999939e-02 1.865425000000000000e-01 -6.923774999999999125e+00 2.439205000000000112e+01 2.161965000000000146e+03
5.500000000000000028e-02 1.864759999999999751e-01 -7.449875000000000469e+00 2.362120000000000175e+01 2.161409999999999854e+03
5.600000000000000117e-02 1.864490000000000036e-01 -7.479874999999999829e+00 2.406520000000000081e+01 2.161164999999999964e+03
5.700000000000000205e-02 1.864644999999999775e-01 -6.992039999999999367e+00 2.576355000000000217e+01 2.161255000000000109e+03
5.800000000000000294e-02 1.865229999999999944e-01 -5.988799999999999457e+00 2.869794999999999874e+01 2.161685000000000400e+03
5.900000000000000383e-02 1.866240000000000121e-01 -4.497709999999999653e+00 3.278735000000000355e+01 2.162454999999999927e+03
6.000000000000000472e-02 1.867645000000000000e-01 -2.569539999999999935e+00 3.789090000000000202e+01 2.163534999999999854e+03
6.099999999999999867e-02 1.869394999999999807e-01 -2.740200000000001523e-01 4.381994999999999862e+01 2.164894999999999982e+03
6.199999999999999956e-02 1.871430000000000038e-01 2.305814999999999948e+00 5.035439999999999827e+01 2.166489999999999782e+03
6.300000000000000044e-02 1.873679999999999790e-01 5.079764500000000460e+00 5.726154999999999973e+01 2.168265000000000327e+03
6.400000000000000133e-02 1.876059999999999950e-01 7.956220000000000070e+00 6.431305000000000405e+01 2.170150000000000091e+03
6.500000000000000222e-02 1.878499999999999892e-01 1.084702500000000036e+01 7.129919999999999902e+01 2.172099999999999909e+03
6.600000000000000311e-02 1.880934999999999968e-01 1.367159499999999994e+01 7.803870000000000573e+01 2.174050000000000182e+03
6.700000000000000400e-02 1.883299999999999974e-01 1.636019999999999897e+01 8.438609999999999900e+01 2.175949999999999818e+03
6.800000000000000488e-02 1.885550000000000004e-01 1.885674999999999812e+01 9.023619999999999663e+01 2.177769999999999982e+03
6.900000000000000577e-02 1.887639999999999874e-01 2.112109999999999843e+01 9.552684999999999604e+01 2.179465000000000146e+03
7.000000000000000666e-02 1.889560000000000128e-01 2.313020000000000209e+01 1.002406000000000006e+02 2.181029999999999745e+03
7.100000000000000755e-02 1.891289999999999916e-01 2.487865000000000038e+01 1.044030999999999949e+02 2.182454999999999927e+03
7.200000000000000844e-02 1.892850000000000088e-01 2.637785000000000224e+01 1.080784999999999911e+02 2.183739999999999782e+03
7.300000000000000933e-02 1.894264999999999977e-01 2.765380000000000038e+01 1.113635000000000019e+02 2.184899999999999636e+03
7.399999999999999634e-02 1.895550000000000013e-01 2.874365000000000236e+01 1.143774999999999977e+02 2.185965000000000146e+03
7.499999999999999722e-02 1.896749999999999825e-01 2.969169999999999732e+01 1.172485000000000070e+02 2.186954999999999927e+03
7.599999999999999811e-02 1.897905000000000009e-01 3.054469999999999885e+01 1.201015000000000015e+02 2.187914999999999964e+03
7.699999999999999900e-02 1.899055000000000049e-01 3.134684999999999633e+01 1.230480000000000018e+02 2.188864999999999782e+03
7.799999999999999989e-02 1.900229999999999975e-01 3.213654999999999973e+01 1.261734999999999900e+02 2.189835000000000036e+03
7.900000000000000078e-02 1.901464999999999961e-01 3.294239999999999924e+01 1.295324999999999989e+02 2.190845000000000255e+03
8.000000000000000167e-02 1.902770000000000017e-01 3.378180000000000405e+01 1.331425000000000125e+02 2.191914999999999964e+03
8.100000000000000255e-02 1.904150000000000009e-01 3.465975000000000250e+01 1.369865000000000066e+02 2.193045000000000073e+03
8.200000000000000344e-02 1.905594999999999928e-01 3.556924999999999670e+01 1.410124999999999886e+02 2.194220000000000255e+03
8.300000000000000433e-02 1.907090000000000174e-01 3.649264999999999759e+01 1.451444999999999936e+02 2.195444999999999709e+03
8.400000000000000522e-02 1.908610000000000029e-01 3.740384999999999849e+01 1.492864999999999895e+02 2.196684999999999945e+03
8.500000000000000611e-02 1.910119999999999874e-01 3.827044999999999675e+01 1.533290000000000077e+02 2.197925000000000182e+03
8.600000000000000699e-02 1.911589999999999956e-01 3.905729999999999791e+01 1.571639999999999873e+02 2.199130000000000109e+03
8.700000000000000788e-02 1.912975000000000092e-01 3.972865000000000180e+01 1.606875000000000000e+02 2.200279999999999745e+03
8.800000000000000877e-02 1.914254999999999984e-01 4.025110000000000099e+01 1.638050000000000068e+02 2.201335000000000036e+03
8.899999999999999578e-02 1.915389999999999870e-01 4.059579999999999700e+01 1.664435000000000002e+02 2.202275000000000091e+03
8.999999999999999667e-02 1.916360000000000008e-01 4.074034999999999940e+01 1.685475000000000136e+02 2.203079999999999927e+03
9.099999999999999756e-02 1.917145000000000099e-01 4.067010000000000502e+01 1.700865000000000009e+02 2.203739999999999782e+03
9.199999999999999845e-02 1.917729999999999990e-01 4.037884999999999991e+01 1.710535000000000139e+02 2.204239999999999782e+03
9.299999999999999933e-02 1.918124999999999969e-01 3.986919999999999931e+01 1.714650000000000034e+02 2.204579999999999927e+03
9.400000000000000022e-02 1.918320000000000025e-01 3.915220000000000056e+01 1.713555000000000064e+02 2.204760000000000218e+03
9.500000000000000111e-02 1.918345000000000189e-01 3.824654999999999916e+01 1.707820000000000107e+02 2.204795000000000073e+03
9.600000000000000200e-02 1.918199999999999905e-01 3.717739999999999867e+01 1.698109999999999786e+02 2.204695000000000164e+03
9.700000000000000289e-02 1.917919999999999903e-01 3.597494999999999976e+01 1.685225000000000080e+02 2.204480000000000018e+03
9.800000000000000377e-02 1.917524999999999924e-01 3.467244999999999777e+01 1.669979999999999905e+02 2.204164999999999964e+03
9.900000000000000466e-02 1.917050000000000143e-01 3.330494999999999806e+01 1.653224999999999909e+02 2.203779999999999745e+03
1.000000000000000056e-01 1.916510000000000158e-01 3.190744999999999720e+01 1.635769999999999982e+02 2.203350000000000364e+03
1.010000000000000064e-01 1.915945000000000009e-01 3.051319999999999766e+01 1.618369999999999891e+02 2.202885000000000218e+03
1.020000000000000073e-01 1.915370000000000128e-01 2.915244999999999820e+01 1.601670000000000016e+02 2.202414999999999964e+03
1.030000000000000082e-01 1.914810000000000123e-01 2.785114999999999696e+01 1.586204999999999927e+02 2.201960000000000036e+03
1.040000000000000091e-01 1.914289999999999881e-01 2.663034999999999997e+01 1.572384999999999877e+02 2.201529999999999745e+03
1.050000000000000100e-01 1.913819999999999966e-01 2.550484999999999758e+01 1.560464999999999804e+02 2.201135000000000218e+03
1.059999999999999970e-01 1.913404999999999967e-01 2.448345000000000127e+01 1.550559999999999832e+02 2.200789999999999964e+03
1.069999999999999979e-01 1.913050000000000028e-01 2.356850000000000023e+01 1.542624999999999886e+02 2.200494999999999891e+03
1.079999999999999988e-01 1.912760000000000016e-01 2.275594999999999857e+01 1.536469999999999914e+02 2.200250000000000000e+03
1.089999999999999997e-01 1.912519999999999776e-01 2.203640000000000043e+01 1.531800000000000068e+02 2.200039999999999964e+03
1.100000000000000006e-01 1.912329999999999863e-01 2.139515000000000100e+01 1.528189999999999884e+02 2.199875000000000000e+03
1.110000000000000014e-01 1.912174999999999847e-01 2.081400000000000006e+01 1.525149999999999864e+02 2.199739999999999782e+03
1.120000000000000023e-01 1.912030000000000118e-01 2.027185000000000059e+01 1.522150000000000034e+02 2.199614999999999782e+03
1.130000000000000032e-01 1.911884999999999835e-01 1.974664999999999893e+01 1.518629999999999995e+02 2.199489999999999782e+03
1.140000000000000041e-01 1.911720000000000086e-01 1.921620000000000061e+01 1.514070000000000107e+02 2.199355000000000018e+03
1.150000000000000050e-01 1.911519999999999886e-01 1.866024999999999778e+01 1.508000000000000114e+02 2.199185000000000400e+03
1.160000000000000059e-01 1.911269999999999913e-01 1.806094999999999828e+01 1.500039999999999907e+02 2.198974999999999909e+03
1.170000000000000068e-01 1.910950000000000149e-01 1.740479999999999805e+01 1.489925000000000068e+02 2.198720000000000255e+03
1.180000000000000077e-01 1.910560000000000036e-01 1.668299999999999983e+01 1.477515000000000214e+02 2.198399999999999636e+03
1.190000000000000085e-01 1.910094999999999987e-01 1.589205000000000112e+01 1.462819999999999823e+02 2.198029999999999745e+03
1.200000000000000094e-01 1.909555000000000002e-01 1.503430000000000177e+01 1.445985000000000014e+02 2.197590000000000146e+03
1.209999999999999964e-01 1.908944999999999947e-01 1.411734999999999829e+01 1.427300000000000182e+02 2.197090000000000146e+03
1.219999999999999973e-01 1.908274999999999832e-01 1.315375000000000050e+01 1.407164999999999964e+02 2.196545000000000073e+03
1.229999999999999982e-01 1.907554999999999945e-01 1.216033000000000008e+01 1.386075000000000159e+02 2.195960000000000036e+03
1.239999999999999991e-01 1.906805000000000028e-01 1.115690999999999988e+01 1.364579999999999984e+02 2.195350000000000364e+03
1.250000000000000000e-01 1.906039999999999957e-01 1.016516000000000020e+01 1.343269999999999982e+02 2.194724999999999909e+03
1.260000000000000009e-01 1.905284999999999895e-01 9.207304999999999851e+00 1.322719999999999914e+02 2.194110000000000127e+03
1.270000000000000018e-01 1.904554999999999998e-01 8.304945000000000022e+00 1.303485000000000014e+02 2.193515000000000327e+03
1.280000000000000027e-01 1.903870000000000007e-01 7.477579999999999671e+00 1.286020000000000039e+02 2.192949999999999818e+03
1.290000000000000036e-01 1.903245000000000076e-01 6.741915000000000546e+00 1.270724999999999909e+02 2.192435000000000400e+03
1.300000000000000044e-01 1.902689999999999937e-01 6.110875000000000057e+00 1.257874999999999943e+02 2.191980000000000018e+03
1.310000000000000053e-01 1.902225000000000166e-01 5.593130000000000379e+00 1.247634999999999934e+02 2.191590000000000146e+03
1.320000000000000062e-01 1.901840000000000197e-01 5.192809999999999704e+00 1.240049999999999955e+02 2.191269999999999982e+03
1.330000000000000071e-01 1.901549999999999907e-01 4.909520000000000550e+00 1.235060000000000002e+02 2.191024999999999636e+03
1.340000000000000080e-01 1.901349999999999985e-01 4.738520000000000287e+00 1.232495000000000118e+02 2.190849999999999909e+03
1.350000000000000089e-01 1.901229999999999865e-01 4.671215000000000117e+00 1.232104999999999961e+02 2.190744999999999891e+03
1.360000000000000098e-01 1.901180000000000092e-01 4.695730000000000182e+00 1.233564999999999969e+02 2.190699999999999818e+03
1.370000000000000107e-01 1.901205000000000256e-01 4.797600000000000087e+00 1.236504999999999939e+02 2.190704999999999927e+03
1.380000000000000115e-01 1.901275000000000048e-01 4.960580000000000211e+00 1.240519999999999925e+02 2.190755000000000109e+03
1.390000000000000124e-01 1.901384999999999881e-01 5.167415000000000092e+00 1.245200000000000102e+02 2.190835000000000036e+03
1.400000000000000133e-01 1.901519999999999877e-01 5.400624999999999787e+00 1.250140000000000100e+02 2.190939999999999600e+03
1.410000000000000142e-01 1.901660000000000017e-01 5.643240000000000478e+00 1.254975000000000023e+02 2.191055000000000291e+03
1.420000000000000151e-01 1.901809999999999889e-01 5.879444999999999588e+00 1.259360000000000070e+02 2.191170000000000073e+03
1.430000000000000160e-01 1.901940000000000019e-01 6.095169999999999533e+00 1.263004999999999995e+02 2.191279999999999745e+03
1.440000000000000169e-01 1.902050000000000129e-01 6.278559999999999697e+00 1.265690000000000026e+02 2.191364999999999782e+03
1.450000000000000178e-01 1.902129999999999932e-01 6.420329999999999870e+00 1.267235000000000014e+02 2.191430000000000291e+03
1.459999999999999909e-01 1.902174999999999838e-01 6.513989999999999725e+00 1.267564999999999884e+02 2.191470000000000255e+03
1.469999999999999918e-01 1.902175000000000116e-01 6.555934999999999846e+00 1.266634999999999991e+02 2.191474999999999909e+03
1.479999999999999927e-01 1.902139999999999942e-01 6.545424999999999827e+00 1.264484999999999957e+02 2.191449999999999818e+03
1.489999999999999936e-01 1.902065000000000006e-01 6.484389999999999432e+00 1.261209999999999951e+02 2.191389999999999873e+03
1.499999999999999944e-01 1.901950000000000029e-01 6.377100000000000435e+00 1.256945000000000050e+02 2.191304999999999836e+03
1.509999999999999953e-01 1.901805000000000023e-01 6.229789999999999495e+00 1.251885000000000048e+02 2.191185000000000400e+03
1.519999999999999962e-01 1.901629999999999987e-01 6.050124999999999531e+00 1.246219999999999999e+02 2.191050000000000182e+03
1.529999999999999971e-01 1.901440000000000075e-01 5.846680000000000099e+00 1.240169999999999959e+02 2.190890000000000327e+03
1.539999999999999980e-01 1.901229999999999865e-01 5.628339999999999677e+00 1.233960000000000008e+02 2.190730000000000018e+03
1.549999999999999989e-01 1.901015000000000066e-01 5.403814999999999813e+00 1.227764999999999986e+02 2.190554999999999836e+03
1.559999999999999998e-01 1.900799999999999990e-01 5.181105000000000516e+00 1.221775000000000091e+02 2.190385000000000218e+03
1.570000000000000007e-01 1.900594999999999923e-01 4.967154999999999987e+00 1.216125000000000114e+02 2.190215000000000146e+03
1.580000000000000016e-01 1.900399999999999867e-01 4.767500000000000071e+00 1.210905000000000058e+02 2.190050000000000182e+03
1.590000000000000024e-01 1.900215000000000098e-01 4.586135000000000517e+00 1.206179999999999950e+02 2.189904999999999745e+03
