# t [s], A [cm^2], U [cm/s], P [cPa], c [cm/s]
1.000000000000000021e-03 1.230694999999999983e-01 3.175175000000000081e-01 8.865375000000000227e+01 2.051804999999999836e+03
2.000000000000000042e-03 1.230389999999999956e-01 1.750090999999999841e+00 8.553034999999999854e+01 2.051409999999999854e+03
3.000000000000000062e-03 1.229550000000000087e-01 3.504526000000000252e+00 8.126550000000000296e+01 2.050365000000000236e+03
4.000000000000000083e-03 1.228400000000000047e-01 5.473090499999999636e+00 7.669374999999999432e+01 2.048965000000000146e+03
5.000000000000000104e-03 1.227169999999999928e-01 7.589990000000000236e+00 7.266310000000000002e+01 2.047474999999999909e+03
6.000000000000000125e-03 1.225984999999999991e-01 9.681115000000000137e+00 6.941479999999999961e+01 2.046065000000000055e+03
7.000000000000000146e-03 1.224879999999999997e-01 1.153475000000000072e+01 6.665484999999999616e+01 2.044764999999999873e+03
8.000000000000000167e-03 1.223859999999999948e-01 1.308071999999999946e+01 6.414605000000000246e+01 2.043590000000000146e+03
9.000000000000001055e-03 1.222965000000000024e-01 1.436730000000000018e+01 6.196264999999999645e+01 2.042575000000000045e+03
1.000000000000000194e-02 1.222209999999999963e-01 1.542965000000000053e+01 6.018545000000000300e+01 2.041724999999999909e+03
1.099999999999999936e-02 1.221585000000000032e-01 1.628119999999999834e+01 5.878544999999999732e+01 2.041030000000000200e+03
1.200000000000000025e-02 1.221089999999999953e-01 1.693645000000000067e+01 5.770369999999999777e+01 2.040490000000000009e+03
1.300000000000000114e-02 1.220694999999999975e-01 1.739890000000000114e+01 5.684680000000000177e+01 2.040065000000000055e+03
1.400000000000000203e-02 1.220375000000000071e-01 1.767559999999999931e+01 5.609819999999999851e+01 2.039720000000000027e+03
1.499999999999999944e-02 1.220100000000000073e-01 1.782829999999999870e+01 5.545574999999999477e+01 2.039445000000000164e+03
1.600000000000000033e-02 1.219920000000000032e-01 1.799139999999999873e+01 5.514659999999999940e+01 2.039259999999999991e+03
1.700000000000000122e-02 1.219889999999999863e-01 1.831850000000000023e+01 5.554420000000000357e+01 2.039240000000000009e+03
1.800000000000000211e-02 1.220070000000000043e-01 1.889659999999999940e+01 5.692614999999999981e+01 2.039450000000000045e+03
1.900000000000000300e-02 1.220480000000000037e-01 1.969174999999999898e+01 5.925699999999999790e+01 2.039909999999999854e+03
2.000000000000000042e-02 1.221065000000000067e-01 2.055859999999999843e+01 6.214055000000000462e+01 2.040569999999999936e+03
2.100000000000000130e-02 1.221724999999999894e-01 2.130079999999999885e+01 6.495459999999999923e+01 2.041319999999999936e+03
2.200000000000000219e-02 1.222319999999999934e-01 2.174730000000000274e+01 6.708145000000000380e+01 2.042005000000000109e+03
2.299999999999999961e-02 1.222739999999999938e-01 2.181029999999999802e+01 6.812284999999999968e+01 2.042519999999999982e+03
2.400000000000000050e-02 1.222950000000000148e-01 2.150639999999999930e+01 6.801404999999999745e+01 2.042779999999999973e+03
2.500000000000000139e-02 1.222945000000000004e-01 2.093690000000000140e+01 6.700565000000000282e+01 2.042800000000000182e+03
2.600000000000000228e-02 1.222774999999999973e-01 2.024000000000000199e+01 6.553334999999999866e+01 2.042629999999999882e+03
2.700000000000000316e-02 1.222535000000000149e-01 1.953794999999999860e+01 6.404144999999999754e+01 2.042365000000000009e+03
2.800000000000000058e-02 1.222285000000000038e-01 1.889945000000000164e+01 6.283205000000000240e+01 2.042085000000000036e+03
2.900000000000000147e-02 1.222070000000000101e-01 1.832779999999999987e+01 6.199139999999999873e+01 2.041839999999999918e+03
3.000000000000000236e-02 1.221894999999999926e-01 1.777535000000000309e+01 6.140515000000000612e+01 2.041639999999999873e+03
3.099999999999999978e-02 1.221734999999999904e-01 1.717314999999999969e+01 6.084239999999999782e+01 2.041450000000000045e+03
3.200000000000000067e-02 1.221544999999999992e-01 1.646545000000000059e+01 6.006824999999999903e+01 2.041245000000000118e+03
3.300000000000000155e-02 1.221295000000000019e-01 1.563725000000000165e+01 5.894774999999999920e+01 2.040964999999999918e+03
3.400000000000000244e-02 1.220979999999999982e-01 1.472654999999999959e+01 5.750854999999999961e+01 2.040614999999999782e+03
3.500000000000000333e-02 1.220615000000000033e-01 1.381889999999999930e+01 5.594459999999999411e+01 2.040210000000000036e+03
3.600000000000000422e-02 1.220259999999999956e-01 1.302544999999999931e+01 5.456324999999999648e+01 2.039800000000000182e+03
3.700000000000000511e-02 1.219974999999999948e-01 1.245189999999999841e+01 5.369334999999999525e+01 2.039470000000000027e+03
3.799999999999999906e-02 1.219814999999999927e-01 1.216965000000000074e+01 5.358559999999999945e+01 2.039279999999999973e+03
3.899999999999999994e-02 1.219839999999999952e-01 1.219589999999999996e+01 5.433854999999999791e+01 2.039284999999999854e+03
4.000000000000000083e-02 1.220040000000000013e-01 1.248985000000000056e+01 5.586825000000000330e+01 2.039494999999999891e+03
4.100000000000000172e-02 1.220400000000000096e-01 1.296215000000000117e+01 5.792780000000000484e+01 2.039884999999999991e+03
4.200000000000000261e-02 1.220860000000000001e-01 1.349439999999999884e+01 6.016320000000000334e+01 2.040389999999999873e+03
4.300000000000000350e-02 1.221335000000000059e-01 1.396219999999999928e+01 6.218850000000000477e+01 2.040929999999999836e+03
4.400000000000000439e-02 1.221754999999999924e-01 1.425609999999999999e+01 6.365814999999999202e+01 2.041409999999999854e+03
4.499999999999999833e-02 1.222044999999999937e-01 1.429640000000000022e+01 6.432210000000000605e+01 2.041744999999999891e+03
4.599999999999999922e-02 1.222159999999999913e-01 1.404044999999999987e+01 6.405405000000000371e+01 2.041884999999999991e+03
4.700000000000000011e-02 1.222069999999999962e-01 1.348165000000000013e+01 6.285229999999999961e+01 2.041795000000000073e+03
4.800000000000000100e-02 1.221770000000000078e-01 1.264344999999999963e+01 6.081860000000000355e+01 2.041470000000000027e+03
4.900000000000000189e-02 1.221285000000000009e-01 1.156986500000000007e+01 5.812314999999999543e+01 2.040929999999999836e+03
5.000000000000000278e-02 1.220640000000000058e-01 1.031625000000000014e+01 5.496760000000000446e+01 2.040215000000000146e+03
5.100000000000000366e-02 1.219884999999999997e-01 8.941134999999999167e+00 5.155375000000000085e+01 2.039365000000000009e+03
5.200000000000000455e-02 1.219060000000000005e-01 7.501834999999999809e+00 4.806345000000000312e+01 2.038429999999999836e+03
5.300000000000000544e-02 1.218200000000000116e-01 6.052694999999999936e+00 4.465099999999999625e+01 2.037465000000000146e+03
5.399999999999999939e-02 1.217349999999999960e-01 4.645350000000000534e+00 4.144485000000000241e+01 2.036500000000000000e+03
5.500000000000000028e-02 1.216540000000000121e-01 3.330311350000000115e+00 3.855594999999999573e+01 2.035575000000000045e+03
5.600000000000000117e-02 1.215800000000000075e-01 2.158199000000000201e+00 3.608670000000000044e+01 2.034730000000000018e+03
5.700000000000000205e-02 1.215159999999999990e-01 1.180155000000000065e+00 3.413750000000000284e+01 2.033990000000000009e+03
5.800000000000000294e-02 1.214645000000000030e-01 4.469100000000001405e-01 3.280944999999999823e+01 2.033400000000000091e+03
5.900000000000000383e-02 1.214289999999999953e-01 6.595000000000017515e-03 3.220104999999999507e+01 2.032980000000000018e+03
6.000000000000000472e-02 1.214114999999999917e-01 -9.832950000000000024e-02 3.240200000000000102e+01 2.032764999999999873e+03
6.099999999999999867e-02 1.214144999999999947e-01 1.655774999999999608e-01 3.348425000000000296e+01 2.032775000000000091e+03
6.199999999999999956e-02 1.214399999999999924e-01 8.197464999999999336e-01 3.549295000000000044e+01 2.033039999999999964e+03
6.300000000000000044e-02 1.214884999999999993e-01 1.871484999999999843e+00 3.844004999999999939e+01 2.033565000000000055e+03
6.400000000000000133e-02 1.215614999999999890e-01 3.313101000000000074e+00 4.230065000000000452e+01 2.034365000000000009e+03
6.500000000000000222e-02 1.216565000000000007e-01 5.122234999999999872e+00 4.701350000000000051e+01 2.035425000000000182e+03
6.600000000000000311e-02 1.217745000000000077e-01 7.263320000000000221e+00 5.248465000000000202e+01 2.036740000000000009e+03
6.700000000000000400e-02 1.219119999999999926e-01 9.689935000000000187e+00 5.859429999999999694e+01 2.038279999999999973e+03
6.800000000000000488e-02 1.220654999999999935e-01 1.234735999999999834e+01 6.520475000000000421e+01 2.040014999999999873e+03
6.900000000000000577e-02 1.222330000000000083e-01 1.517586999999999975e+01 7.216874999999998863e+01 2.041909999999999854e+03
7.000000000000000666e-02 1.224105000000000054e-01 1.811340000000000217e+01 7.933789999999999054e+01 2.043930000000000064e+03
7.100000000000000755e-02 1.225939999999999946e-01 2.109854999999999947e+01 8.657050000000000978e+01 2.046029999999999973e+03
7.200000000000000844e-02 1.227810000000000012e-01 2.407350000000000279e+01 9.373765000000000214e+01 2.048175000000000182e+03
7.300000000000000933e-02 1.229679999999999940e-01 2.698620000000000374e+01 1.007301500000000090e+02 2.050320000000000164e+03
7.399999999999999634e-02 1.231514999999999971e-01 2.979250000000000398e+01 1.074609999999999985e+02 2.052449999999999818e+03
7.499999999999999722e-02 1.233299999999999952e-01 3.245810000000000173e+01 1.138710000000000093e+02 2.054519999999999982e+03
7.599999999999999811e-02 1.235020000000000007e-01 3.495895000000000152e+01 1.199265000000000043e+02 2.056515000000000327e+03
7.699999999999999900e-02 1.236655000000000115e-01 3.728185000000000571e+01 1.256229999999999905e+02 2.058430000000000291e+03
7.799999999999999989e-02 1.238219999999999876e-01 3.942345000000000255e+01 1.309790000000000134e+02 2.060260000000000218e+03
7.900000000000000078e-02 1.239699999999999969e-01 4.138904999999999745e+01 1.360310000000000059e+02 2.062005000000000109e+03
8.000000000000000167e-02 1.241114999999999857e-01 4.319079999999999586e+01 1.408290000000000077e+02 2.063670000000000073e+03
8.100000000000000255e-02 1.242465000000000097e-01 4.484505000000000052e+01 1.454284999999999854e+02 2.065265000000000327e+03
8.200000000000000344e-02 1.243769999999999876e-01 4.637050000000000693e+01 1.498865000000000123e+02 2.066800000000000182e+03
8.300000000000000433e-02 1.245035000000000031e-01 4.778564999999999685e+01 1.542504999999999882e+02 2.068300000000000182e+03
8.400000000000000522e-02 1.246275000000000022e-01 4.910734999999999673e+01 1.585595000000000141e+02 2.069765000000000327e+03
8.500000000000000611e-02 1.247494999999999854e-01 5.034890000000000043e+01 1.628380000000000223e+02 2.071215000000000146e+03
8.600000000000000699e-02 1.248704999999999954e-01 5.151970000000000027e+01 1.670955000000000155e+02 2.072639999999999873e+03
8.700000000000000788e-02 1.249900000000000039e-01 5.262444999999999595e+01 1.713259999999999934e+02 2.074055000000000291e+03
8.800000000000000877e-02 1.251085000000000114e-01 5.366324999999999790e+01 1.755115000000000123e+02 2.075460000000000036e+03
8.899999999999999578e-02 1.252245000000000164e-01 5.463204999999999956e+01 1.796209999999999809e+02 2.076840000000000146e+03
8.999999999999999667e-02 1.253385000000000193e-01 5.552309999999999945e+01 1.836170000000000186e+02 2.078194999999999709e+03
9.099999999999999756e-02 1.254494999999999916e-01 5.632590000000000430e+01 1.874544999999999959e+02 2.079510000000000218e+03
9.199999999999999845e-02 1.255554999999999866e-01 5.702824999999999989e+01 1.910885000000000105e+02 2.080779999999999745e+03
9.299999999999999933e-02 1.256565000000000043e-01 5.761664999999999992e+01 1.944719999999999800e+02 2.081980000000000018e+03
9.400000000000000022e-02 1.257504999999999873e-01 5.807800000000000296e+01 1.975620000000000118e+02 2.083105000000000018e+03
9.500000000000000111e-02 1.258370000000000044e-01 5.840005000000000024e+01 2.003195000000000050e+02 2.084139999999999873e+03
9.600000000000000200e-02 1.259149999999999991e-01 5.857229999999999848e+01 2.027135000000000105e+02 2.085074999999999818e+03
9.700000000000000289e-02 1.259830000000000116e-01 5.858684999999999832e+01 2.047205000000000155e+02 2.085900000000000091e+03
9.800000000000000377e-02 1.260415000000000008e-01 5.843895000000000550e+01 2.063265000000000100e+02 2.086609999999999673e+03
9.900000000000000466e-02 1.260900000000000076e-01 5.812749999999999773e+01 2.075275000000000034e+02 2.087194999999999709e+03
1.000000000000000056e-01 1.261269999999999891e-01 5.765555000000000518e+01 2.083294999999999959e+02 2.087650000000000091e+03
1.010000000000000064e-01 1.261545000000000027e-01 5.703010000000000446e+01 2.087510000000000048e+02 2.087989999999999782e+03
1.020000000000000073e-01 1.261714999999999920e-01 5.626209999999999667e+01 2.088165000000000191e+02 2.088210000000000036e+03
1.030000000000000082e-01 1.261795000000000000e-01 5.536625000000000085e+01 2.085635000000000048e+02 2.088315000000000055e+03
1.040000000000000091e-01 1.261795000000000000e-01 5.436020000000000607e+01 2.080335000000000036e+02 2.088319999999999709e+03
1.050000000000000100e-01 1.261714999999999920e-01 5.326385000000000502e+01 2.072740000000000009e+02 2.088239999999999782e+03
1.059999999999999970e-01 1.261569999999999914e-01 5.209870000000000090e+01 2.063350000000000080e+02 2.088079999999999927e+03
1.069999999999999979e-01 1.261380000000000001e-01 5.088680000000000092e+01 2.052674999999999841e+02 2.087859999999999673e+03
1.079999999999999988e-01 1.261144999999999905e-01 4.964985000000000070e+01 2.041200000000000045e+02 2.087590000000000146e+03
1.089999999999999997e-01 1.260884999999999923e-01 4.840815000000000623e+01 2.029379999999999882e+02 2.087284999999999854e+03
1.100000000000000006e-01 1.260609999999999786e-01 4.718019999999999925e+01 2.017609999999999957e+02 2.086960000000000036e+03
1.110000000000000014e-01 1.260335000000000205e-01 4.598170000000000357e+01 2.006209999999999809e+02 2.086630000000000109e+03
1.120000000000000023e-01 1.260050000000000059e-01 4.482504999999999740e+01 1.995420000000000016e+02 2.086300000000000182e+03
1.130000000000000032e-01 1.259784999999999933e-01 4.371940000000000026e+01 1.985405000000000086e+02 2.085984999999999673e+03
1.140000000000000041e-01 1.259529999999999816e-01 4.266989999999999839e+01 1.976225000000000023e+02 2.085675000000000182e+03
1.150000000000000050e-01 1.259294999999999998e-01 4.167830000000000013e+01 1.967880000000000109e+02 2.085389999999999873e+03
1.160000000000000059e-01 1.259069999999999911e-01 4.074254999999999427e+01 1.960255000000000223e+02 2.085119999999999891e+03
1.170000000000000068e-01 1.258864999999999845e-01 3.985770000000000124e+01 1.953195000000000050e+02 2.084869999999999891e+03
1.180000000000000077e-01 1.258664999999999923e-01 3.901574999999999704e+01 1.946485000000000127e+02 2.084630000000000109e+03
1.190000000000000085e-01 1.258475000000000010e-01 3.820685000000000286e+01 1.939859999999999900e+02 2.084399999999999636e+03
1.200000000000000094e-01 1.258285000000000098e-01 3.741939999999999600e+01 1.933034999999999854e+02 2.084164999999999964e+03
1.209999999999999964e-01 1.258090000000000042e-01 3.664124999999999943e+01 1.925709999999999980e+02 2.083935000000000400e+03
1.219999999999999973e-01 1.257874999999999965e-01 3.585999999999999943e+01 1.917615000000000123e+02 2.083680000000000291e+03
1.229999999999999982e-01 1.257649999999999879e-01 3.506390000000000384e+01 1.908480000000000132e+02 2.083404999999999745e+03
1.239999999999999991e-01 1.257395000000000040e-01 3.424259999999999593e+01 1.898090000000000259e+02 2.083100000000000364e+03
1.250000000000000000e-01 1.257109999999999894e-01 3.338734999999999786e+01 1.886274999999999977e+02 2.082764999999999873e+03
1.260000000000000009e-01 1.256790000000000129e-01 3.249184999999999945e+01 1.872930000000000064e+02 2.082385000000000218e+03
1.270000000000000018e-01 1.256430000000000047e-01 3.155215000000000103e+01 1.858015000000000043e+02 2.081960000000000036e+03
1.280000000000000027e-01 1.256035000000000068e-01 3.056729999999999947e+01 1.841544999999999845e+02 2.081489999999999782e+03
1.290000000000000036e-01 1.255594999999999906e-01 2.953894999999999982e+01 1.823620000000000232e+02 2.080980000000000018e+03
1.300000000000000044e-01 1.255119999999999847e-01 2.847155000000000058e+01 1.804399999999999977e+02 2.080420000000000073e+03
1.310000000000000053e-01 1.254615000000000036e-01 2.737205000000000155e+01 1.784085000000000036e+02 2.079829999999999927e+03
1.320000000000000062e-01 1.254085000000000061e-01 2.624960000000000093e+01 1.762939999999999827e+02 2.079199999999999818e+03
1.330000000000000071e-01 1.253525000000000056e-01 2.511495000000000033e+01 1.741254999999999882e+02 2.078545000000000073e+03
1.340000000000000080e-01 1.252959999999999907e-01 2.398015000000000185e+01 1.719345000000000141e+02 2.077875000000000000e+03
1.350000000000000089e-01 1.252379999999999882e-01 2.285790000000000077e+01 1.697524999999999977e+02 2.077194999999999709e+03
1.360000000000000098e-01 1.251805000000000001e-01 2.176089999999999947e+01 1.676105000000000018e+02 2.076515000000000327e+03
1.370000000000000107e-01 1.251240000000000130e-01 2.070129999999999981e+01 1.655384999999999991e+02 2.075840000000000146e+03
1.380000000000000115e-01 1.250689999999999857e-01 1.969035000000000224e+01 1.635615000000000236e+02 2.075190000000000055e+03
1.390000000000000124e-01 1.250155000000000016e-01 1.873770000000000024e+01 1.617019999999999982e+02 2.074565000000000055e+03
1.400000000000000133e-01 1.249654999999999933e-01 1.785125000000000028e+01 1.599759999999999991e+02 2.073970000000000255e+03
1.410000000000000142e-01 1.249180000000000013e-01 1.703659999999999997e+01 1.583949999999999818e+02 2.073409999999999854e+03
1.420000000000000151e-01 1.248750000000000138e-01 1.629745000000000132e+01 1.569655000000000200e+02 2.072890000000000327e+03
1.430000000000000160e-01 1.248345000000000010e-01 1.563494999999999990e+01 1.556875000000000000e+02 2.072414999999999964e+03
1.440000000000000169e-01 1.247989999999999933e-01 1.504819999999999958e+01 1.545559999999999832e+02 2.071984999999999673e+03
1.450000000000000178e-01 1.247660000000000019e-01 1.453434999999999988e+01 1.535635000000000048e+02 2.071599999999999909e+03
1.459999999999999909e-01 1.247370000000000007e-01 1.408884999999999899e+01 1.526965000000000146e+02 2.071250000000000000e+03
1.469999999999999918e-01 1.247115000000000029e-01 1.370560000000000045e+01 1.519399999999999977e+02 2.070939999999999600e+03
1.479999999999999927e-01 1.246884999999999938e-01 1.337744999999999962e+01 1.512775000000000034e+02 2.070659999999999854e+03
1.489999999999999936e-01 1.246685000000000015e-01 1.309639999999999915e+01 1.506899999999999977e+02 2.070420000000000073e+03
1.499999999999999944e-01 1.246499999999999969e-01 1.285425000000000040e+01 1.501589999999999918e+02 2.070199999999999818e+03
1.509999999999999953e-01 1.246329999999999938e-01 1.264250000000000007e+01 1.496670000000000016e+02 2.069994999999999891e+03
1.519999999999999962e-01 1.246174999999999922e-01 1.245289999999999964e+01 1.491959999999999980e+02 2.069809999999999945e+03
1.529999999999999971e-01 1.246030000000000054e-01 1.227765000000000128e+01 1.487319999999999993e+02 2.069635000000000218e+03
1.539999999999999980e-01 1.245880000000000043e-01 1.210975000000000001e+01 1.482595000000000027e+02 2.069460000000000036e+03
1.549999999999999989e-01 1.245740000000000042e-01 1.194294999999999973e+01 1.477690000000000055e+02 2.069289999999999964e+03
1.559999999999999998e-01 1.245594999999999897e-01 1.177214999999999989e+01 1.472515000000000214e+02 2.069114999999999782e+03
1.570000000000000007e-01 1.245445000000000024e-01 1.159345000000000070e+01 1.466999999999999886e+02 2.068940000000000055e+03
1.580000000000000016e-01 1.245284999999999864e-01 1.140435000000000088e+01 1.461129999999999995e+02 2.068755000000000109e+03
1.590000000000000024e-01 1.245114999999999972e-01 1.120351000000000141e+01 1.454904999999999973e+02 2.068560000000000400e+03
