# t [s], A [cm^2], U [cm/s], P [cPa], c [cm/s]
1.000000000000000021e-03 1.637855000000000005e-01 1.653620899999999894e-01 1.020878500000000031e+02 1.741184999999999945e+03
2.000000000000000042e-03 1.637720000000000009e-01 1.516692499999999999e+00 9.954939999999999145e+01 1.741059999999999945e+03
3.000000000000000062e-03 1.636859999999999982e-01 3.233235000000000081e+00 9.633314999999998918e+01 1.740309999999999945e+03
4.000000000000000083e-03 1.635435000000000083e-01 5.146727000000000274e+00 9.254659999999999798e+01 1.739099999999999909e+03
5.000000000000000104e-03 1.633664999999999978e-01 7.208979000000000248e+00 8.870275000000000887e+01 1.737619999999999891e+03
6.000000000000000125e-03 1.631759999999999877e-01 9.360229999999999606e+00 8.518950000000000955e+01 1.736029999999999973e+03
7.000000000000000146e-03 1.629845000000000044e-01 1.150087500000000063e+01 8.214714999999999634e+01 1.734449999999999818e+03
8.000000000000000167e-03 1.627985000000000126e-01 1.351879000000000097e+01 7.951285000000000025e+01 1.732940000000000055e+03
9.000000000000001055e-03 1.626219999999999888e-01 1.534045000000000059e+01 7.716734999999999900e+01 1.731514999999999873e+03
1.000000000000000194e-02 1.624570000000000181e-01 1.695029999999999859e+01 7.506034999999999968e+01 1.730210000000000036e+03
1.099999999999999936e-02 1.623080000000000078e-01 1.836250000000000071e+01 7.320794999999999675e+01 1.729039999999999964e+03
1.200000000000000025e-02 1.621754999999999725e-01 1.959134999999999849e+01 7.162669999999999959e+01 1.728009999999999991e+03
1.300000000000000114e-02 1.620604999999999962e-01 2.064545000000000030e+01 7.030599999999999739e+01 1.727119999999999891e+03
1.400000000000000203e-02 1.619619999999999949e-01 2.153110000000000213e+01 6.921625000000000227e+01 1.726369999999999891e+03
1.499999999999999944e-02 1.618780000000000219e-01 2.225290000000000035e+01 6.831595000000000084e+01 1.725735000000000127e+03
1.600000000000000033e-02 1.618069999999999786e-01 2.281555000000000177e+01 6.755620000000000402e+01 1.725210000000000036e+03
1.700000000000000122e-02 1.617469999999999741e-01 2.323259999999999792e+01 6.689914999999999168e+01 1.724769999999999982e+03
1.800000000000000211e-02 1.616960000000000064e-01 2.353624999999999901e+01 6.634614999999999441e+01 1.724400000000000091e+03
1.900000000000000300e-02 1.616560000000000219e-01 2.377795000000000059e+01 6.595399999999999352e+01 1.724119999999999891e+03
2.000000000000000042e-02 1.616285000000000083e-01 2.401805000000000234e+01 6.582129999999999370e+01 1.723924999999999955e+03
2.100000000000000130e-02 1.616164999999999963e-01 2.430830000000000268e+01 6.604999999999999716e+01 1.723855000000000018e+03
2.200000000000000219e-02 1.616230000000000167e-01 2.467630000000000123e+01 6.670029999999999859e+01 1.723920000000000073e+03
2.299999999999999961e-02 1.616489999999999871e-01 2.511854999999999905e+01 6.776054999999999495e+01 1.724130000000000109e+03
2.400000000000000050e-02 1.616920000000000024e-01 2.560324999999999918e+01 6.914224999999999000e+01 1.724469999999999800e+03
2.500000000000000139e-02 1.617474999999999885e-01 2.608104999999999762e+01 7.069919999999999050e+01 1.724909999999999854e+03
2.600000000000000228e-02 1.618114999999999970e-01 2.649864999999999782e+01 7.226165000000000305e+01 1.725410000000000082e+03
2.700000000000000316e-02 1.618760000000000199e-01 2.681159999999999854e+01 7.367310000000000514e+01 1.725924999999999955e+03
2.800000000000000058e-02 1.619364999999999832e-01 2.699304999999999666e+01 7.482015000000001237e+01 1.726414999999999964e+03
2.900000000000000147e-02 1.619889999999999941e-01 2.703679999999999950e+01 7.564869999999999095e+01 1.726845000000000027e+03
3.000000000000000236e-02 1.620324999999999960e-01 2.695499999999999829e+01 7.616415000000000646e+01 1.727194999999999936e+03
3.099999999999999978e-02 1.620645000000000002e-01 2.677234999999999943e+01 7.641870000000000118e+01 1.727465000000000146e+03
3.200000000000000067e-02 1.620880000000000098e-01 2.651780000000000115e+01 7.649030000000000484e+01 1.727664999999999964e+03
3.300000000000000155e-02 1.621039999999999981e-01 2.621750000000000114e+01 7.645919999999999561e+01 1.727800000000000182e+03
3.400000000000000244e-02 1.621154999999999957e-01 2.588919999999999888e+01 7.638920000000000243e+01 1.727905000000000200e+03
3.500000000000000333e-02 1.621239999999999903e-01 2.554029999999999845e+01 7.631610000000000582e+01 1.727970000000000027e+03
3.600000000000000422e-02 1.621299999999999963e-01 2.516870000000000118e+01 7.624569999999999936e+01 1.728019999999999982e+03
3.700000000000000511e-02 1.621329999999999993e-01 2.476644999999999897e+01 7.615985000000000582e+01 1.728054999999999836e+03
3.799999999999999906e-02 1.621340000000000003e-01 2.432394999999999996e+01 7.602779999999999916e+01 1.728065000000000055e+03
3.899999999999999994e-02 1.621314999999999840e-01 2.383500000000000085e+01 7.581990000000000407e+01 1.728050000000000182e+03
4.000000000000000083e-02 1.621245000000000047e-01 2.330004999999999882e+01 7.551959999999999695e+01 1.728009999999999991e+03
4.100000000000000172e-02 1.621139999999999803e-01 2.272865000000000180e+01 7.513165000000000759e+01 1.727930000000000064e+03
4.200000000000000261e-02 1.620995000000000075e-01 2.213875000000000171e+01 7.468489999999999895e+01 1.727825000000000045e+03
4.300000000000000350e-02 1.620829999999999771e-01 2.155509999999999948e+01 7.422934999999999661e+01 1.727700000000000045e+03
4.400000000000000439e-02 1.620665000000000022e-01 2.100540000000000163e+01 7.382800000000000296e+01 1.727569999999999936e+03
4.499999999999999833e-02 1.620515000000000150e-01 2.051590000000000202e+01 7.354599999999999227e+01 1.727454999999999927e+03
4.599999999999999922e-02 1.620419999999999916e-01 2.010764999999999958e+01 7.343914999999999793e+01 1.727380000000000109e+03
4.700000000000000011e-02 1.620389999999999886e-01 1.979319999999999879e+01 7.354349999999999454e+01 1.727355000000000018e+03
4.800000000000000100e-02 1.620440000000000214e-01 1.957475000000000165e+01 7.386984999999999957e+01 1.727389999999999873e+03
4.900000000000000189e-02 1.620579999999999798e-01 1.944420000000000215e+01 7.440119999999998868e+01 1.727490000000000009e+03
5.000000000000000278e-02 1.620794999999999875e-01 1.938455000000000084e+01 7.509569999999999368e+01 1.727644999999999982e+03
5.100000000000000366e-02 1.621070000000000011e-01 1.937245000000000061e+01 7.589249999999999829e+01 1.727860000000000127e+03
5.200000000000000455e-02 1.621394999999999920e-01 1.938125000000000142e+01 7.672044999999999959e+01 1.728105000000000018e+03
5.300000000000000544e-02 1.621734999999999982e-01 1.938380000000000081e+01 7.750624999999999432e+01 1.728365000000000009e+03
5.399999999999999939e-02 1.622065000000000035e-01 1.935539999999999949e+01 7.818304999999999438e+01 1.728625000000000000e+03
5.500000000000000028e-02 1.622355000000000047e-01 1.927555000000000263e+01 7.869634999999999536e+01 1.728849999999999909e+03
5.600000000000000117e-02 1.622589999999999866e-01 1.912894999999999968e+01 7.900745000000000573e+01 1.729029999999999973e+03
5.700000000000000205e-02 1.622744999999999882e-01 1.890610000000000213e+01 7.909505000000000052e+01 1.729159999999999854e+03
5.800000000000000294e-02 1.622819999999999818e-01 1.860255000000000081e+01 7.895380000000000109e+01 1.729219999999999800e+03
5.900000000000000383e-02 1.622794999999999932e-01 1.821829999999999927e+01 7.859190000000000964e+01 1.729204999999999927e+03
6.000000000000000472e-02 1.622679999999999956e-01 1.775704999999999956e+01 7.802779999999999916e+01 1.729119999999999891e+03
6.099999999999999867e-02 1.622480000000000033e-01 1.722455000000000069e+01 7.728604999999998881e+01 1.728965000000000146e+03
6.199999999999999956e-02 1.622195000000000165e-01 1.662859999999999872e+01 7.639470000000000027e+01 1.728744999999999891e+03
6.300000000000000044e-02 1.621830000000000216e-01 1.597775000000000034e+01 7.538269999999999982e+01 1.728470000000000027e+03
6.400000000000000133e-02 1.621410000000000073e-01 1.528180000000000049e+01 7.427850000000000819e+01 1.728144999999999982e+03
6.500000000000000222e-02 1.620935000000000015e-01 1.455095000000000027e+01 7.310984999999999445e+01 1.727775000000000091e+03
6.600000000000000311e-02 1.620425000000000060e-01 1.379669999999999952e+01 7.190375000000000227e+01 1.727380000000000109e+03
6.700000000000000400e-02 1.619884999999999797e-01 1.303144999999999953e+01 7.068750000000000000e+01 1.726960000000000036e+03
6.800000000000000488e-02 1.619325000000000070e-01 1.226896999999999949e+01 6.948920000000001096e+01 1.726525000000000091e+03
6.900000000000000577e-02 1.618775000000000075e-01 1.152437499999999915e+01 6.833870000000000289e+01 1.726095000000000027e+03
7.000000000000000666e-02 1.618229999999999946e-01 1.081393500000000074e+01 6.726754999999999995e+01 1.725670000000000073e+03
7.100000000000000755e-02 1.617709999999999981e-01 1.015482500000000066e+01 6.630904999999999916e+01 1.725269999999999982e+03
7.200000000000000844e-02 1.617239999999999789e-01 9.564630000000001075e+00 6.549764999999999304e+01 1.724900000000000091e+03
7.300000000000000933e-02 1.616830000000000211e-01 9.060954999999999870e+00 6.486750000000000682e+01 1.724575000000000045e+03
7.399999999999999634e-02 1.616495000000000015e-01 8.660405000000000797e+00 6.445140000000000668e+01 1.724309999999999945e+03
7.499999999999999722e-02 1.616249999999999909e-01 8.378260000000000929e+00 6.427924999999999045e+01 1.724110000000000127e+03
7.599999999999999811e-02 1.616114999999999913e-01 8.227560000000000429e+00 6.437624999999999886e+01 1.723994999999999891e+03
7.699999999999999900e-02 1.616095000000000170e-01 8.218630000000000990e+00 6.476189999999999714e+01 1.723974999999999909e+03
7.799999999999999989e-02 1.616205000000000003e-01 8.358679999999999666e+00 6.544884999999999309e+01 1.724045000000000073e+03
7.900000000000000078e-02 1.616449999999999831e-01 8.651490000000000791e+00 6.644219999999999970e+01 1.724224999999999909e+03
8.000000000000000167e-02 1.616835000000000078e-01 9.097374999999999545e+00 6.773964999999999748e+01 1.724514999999999873e+03
8.100000000000000255e-02 1.617359999999999909e-01 9.693165000000000475e+00 6.933135000000000048e+01 1.724904999999999973e+03
8.200000000000000344e-02 1.618020000000000014e-01 1.043262500000000159e+01 7.120085000000000264e+01 1.725414999999999964e+03
8.300000000000000433e-02 1.618819999999999981e-01 1.130664499999999961e+01 7.332595000000000596e+01 1.726025000000000091e+03
8.400000000000000522e-02 1.619740000000000069e-01 1.230377000000000010e+01 7.568004999999999427e+01 1.726730000000000018e+03
8.500000000000000611e-02 1.620774999999999855e-01 1.341075000000000017e+01 7.823355000000000814e+01 1.727525000000000091e+03
8.600000000000000699e-02 1.621914999999999885e-01 1.461334999999999873e+01 8.095520000000000493e+01 1.728409999999999854e+03
8.700000000000000788e-02 1.623145000000000004e-01 1.589635000000000176e+01 8.381360000000000809e+01 1.729365000000000009e+03
8.800000000000000877e-02 1.624450000000000061e-01 1.724474999999999980e+01 8.677835000000000321e+01 1.730380000000000109e+03
8.899999999999999578e-02 1.625824999999999909e-01 1.864379999999999882e+01 8.982124999999999204e+01 1.731449999999999818e+03
8.999999999999999667e-02 1.627244999999999941e-01 2.007959999999999923e+01 9.291724999999999568e+01 1.732559999999999945e+03
9.099999999999999756e-02 1.628700000000000148e-01 2.153950000000000031e+01 9.604484999999999673e+01 1.733704999999999927e+03
9.199999999999999845e-02 1.630189999999999972e-01 2.301194999999999879e+01 9.918635000000000446e+01 1.734880000000000109e+03
9.299999999999999933e-02 1.631704999999999961e-01 2.448709999999999809e+01 1.023284500000000037e+02 1.736065000000000055e+03
9.400000000000000022e-02 1.633225000000000093e-01 2.595619999999999905e+01 1.054611999999999910e+02 1.737269999999999982e+03
9.500000000000000111e-02 1.634754999999999958e-01 2.741230000000000189e+01 1.085775000000000006e+02 1.738480000000000018e+03
9.600000000000000200e-02 1.636285000000000101e-01 2.884939999999999927e+01 1.116734999999999900e+02 1.739694999999999936e+03
9.700000000000000289e-02 1.637815000000000243e-01 3.026239999999999952e+01 1.147469999999999999e+02 1.740914999999999964e+03
9.800000000000000377e-02 1.639344999999999830e-01 3.164730000000000132e+01 1.177969999999999970e+02 1.742130000000000109e+03
9.900000000000000466e-02 1.640869999999999829e-01 3.300055000000000405e+01 1.208224999999999909e+02 1.743349999999999909e+03
1.000000000000000056e-01 1.642385000000000095e-01 3.431884999999999764e+01 1.238229999999999933e+02 1.744565000000000055e+03
1.010000000000000064e-01 1.643895000000000217e-01 3.559924999999999784e+01 1.267965000000000089e+02 1.745769999999999982e+03
1.020000000000000073e-01 1.645395000000000052e-01 3.683880000000000621e+01 1.297419999999999902e+02 1.746974999999999909e+03
1.030000000000000082e-01 1.646885000000000154e-01 3.803444999999999965e+01 1.326535000000000082e+02 1.748170000000000073e+03
1.040000000000000091e-01 1.648359999999999825e-01 3.918305000000000149e+01 1.355269999999999868e+02 1.749360000000000127e+03
1.050000000000000100e-01 1.649820000000000175e-01 4.028130000000000166e+01 1.383555000000000064e+02 1.750539999999999964e+03
1.059999999999999970e-01 1.651259999999999950e-01 4.132574999999999932e+01 1.411320000000000050e+02 1.751704999999999927e+03
1.069999999999999979e-01 1.652675000000000116e-01 4.231289999999999907e+01 1.438474999999999966e+02 1.752849999999999909e+03
1.079999999999999988e-01 1.654065000000000119e-01 4.323914999999999509e+01 1.464929999999999950e+02 1.753980000000000018e+03
1.089999999999999997e-01 1.655429999999999957e-01 4.410105000000000075e+01 1.490584999999999809e+02 1.755079999999999927e+03
1.100000000000000006e-01 1.656755000000000033e-01 4.489499999999999602e+01 1.515349999999999966e+02 1.756160000000000082e+03
1.110000000000000014e-01 1.658040000000000069e-01 4.561775000000000091e+01 1.539134999999999991e+02 1.757210000000000036e+03
1.120000000000000023e-01 1.659279999999999922e-01 4.626609999999999445e+01 1.561829999999999927e+02 1.758220000000000027e+03
1.130000000000000032e-01 1.660475000000000145e-01 4.683735000000000070e+01 1.583360000000000127e+02 1.759194999999999936e+03
1.140000000000000041e-01 1.661610000000000031e-01 4.732880000000000109e+01 1.603650000000000091e+02 1.760125000000000000e+03
1.150000000000000050e-01 1.662690000000000001e-01 4.773839999999999861e+01 1.622620000000000005e+02 1.761009999999999991e+03
1.160000000000000059e-01 1.663709999999999911e-01 4.806434999999999746e+01 1.640205000000000268e+02 1.761849999999999909e+03
1.170000000000000068e-01 1.664670000000000039e-01 4.830530000000000257e+01 1.656355000000000075e+02 1.762634999999999991e+03
1.180000000000000077e-01 1.665554999999999952e-01 4.846065000000000111e+01 1.671030000000000086e+02 1.763369999999999891e+03
1.190000000000000085e-01 1.666374999999999940e-01 4.853009999999999735e+01 1.684199999999999875e+02 1.764039999999999964e+03
1.200000000000000094e-01 1.667119999999999991e-01 4.851415000000000077e+01 1.695844999999999914e+02 1.764659999999999854e+03
1.209999999999999964e-01 1.667794999999999972e-01 4.841394999999999982e+01 1.705964999999999918e+02 1.765220000000000027e+03
1.219999999999999973e-01 1.668390000000000151e-01 4.823140000000000072e+01 1.714569999999999936e+02 1.765724999999999909e+03
1.229999999999999982e-01 1.668924999999999992e-01 4.796909999999999741e+01 1.721689999999999827e+02 1.766159999999999854e+03
1.239999999999999991e-01 1.669375000000000164e-01 4.763034999999999997e+01 1.727369999999999948e+02 1.766545000000000073e+03
1.250000000000000000e-01 1.669760000000000133e-01 4.721940000000000026e+01 1.731664999999999850e+02 1.766865000000000009e+03
1.260000000000000009e-01 1.670069999999999888e-01 4.674089999999999634e+01 1.734654999999999916e+02 1.767134999999999991e+03
1.270000000000000018e-01 1.670320000000000138e-01 4.620035000000000025e+01 1.736419999999999959e+02 1.767345000000000027e+03
1.280000000000000027e-01 1.670504999999999907e-01 4.560360000000000014e+01 1.737065000000000055e+02 1.767500000000000000e+03
1.290000000000000036e-01 1.670630000000000170e-01 4.495704999999999529e+01 1.736694999999999993e+02 1.767615000000000009e+03
1.300000000000000044e-01 1.670705000000000107e-01 4.426725000000000421e+01 1.735420000000000016e+02 1.767684999999999945e+03
1.310000000000000053e-01 1.670729999999999993e-01 4.354094999999999516e+01 1.733354999999999961e+02 1.767714999999999918e+03
1.320000000000000062e-01 1.670710000000000250e-01 4.278475000000000250e+01 1.730620000000000118e+02 1.767704999999999927e+03
1.330000000000000071e-01 1.670654999999999779e-01 4.200529999999999831e+01 1.727320000000000277e+02 1.767664999999999964e+03
1.340000000000000080e-01 1.670559999999999823e-01 4.120865000000000578e+01 1.723550000000000182e+02 1.767595000000000027e+03
1.350000000000000089e-01 1.670439999999999980e-01 4.040070000000000050e+01 1.719414999999999907e+02 1.767494999999999891e+03
1.360000000000000098e-01 1.670294999999999974e-01 3.958659999999999712e+01 1.714989999999999952e+02 1.767384999999999991e+03
1.370000000000000107e-01 1.670129999999999948e-01 3.877100000000000080e+01 1.710355000000000132e+02 1.767250000000000000e+03
1.380000000000000115e-01 1.669950000000000045e-01 3.795789999999999509e+01 1.705554999999999950e+02 1.767105000000000018e+03
1.390000000000000124e-01 1.669754999999999989e-01 3.715035000000000309e+01 1.700639999999999930e+02 1.766940000000000055e+03
1.400000000000000133e-01 1.669545000000000057e-01 3.635105000000000075e+01 1.695625000000000000e+02 1.766775000000000091e+03
1.410000000000000142e-01 1.669329999999999981e-01 3.556154999999999688e+01 1.690534999999999854e+02 1.766594999999999800e+03
1.420000000000000151e-01 1.669100000000000028e-01 3.478300000000000125e+01 1.685370000000000061e+02 1.766414999999999964e+03
1.430000000000000160e-01 1.668864999999999932e-01 3.401585000000000036e+01 1.680109999999999957e+02 1.766220000000000027e+03
1.440000000000000169e-01 1.668620000000000103e-01 3.325985000000000014e+01 1.674744999999999777e+02 1.766019999999999982e+03
1.450000000000000178e-01 1.668374999999999997e-01 3.251424999999999699e+01 1.669245000000000232e+02 1.765815000000000055e+03
1.459999999999999909e-01 1.668109999999999871e-01 3.177799999999999869e+01 1.663575000000000159e+02 1.765599999999999909e+03
1.469999999999999918e-01 1.667845000000000022e-01 3.104954999999999643e+01 1.657694999999999936e+02 1.765380000000000109e+03
1.479999999999999927e-01 1.667565000000000019e-01 3.032724999999999937e+01 1.651569999999999823e+02 1.765150000000000091e+03
1.489999999999999936e-01 1.667270000000000141e-01 2.960904999999999987e+01 1.645155000000000030e+02 1.764909999999999854e+03
1.499999999999999944e-01 1.666960000000000108e-01 2.889305000000000234e+01 1.638410000000000082e+02 1.764654999999999973e+03
1.509999999999999953e-01 1.666640000000000066e-01 2.817739999999999867e+01 1.631299999999999955e+02 1.764394999999999982e+03
1.519999999999999962e-01 1.666294999999999860e-01 2.746025000000000205e+01 1.623795000000000073e+02 1.764110000000000127e+03
1.529999999999999971e-01 1.665935000000000055e-01 2.674000000000000199e+01 1.615869999999999891e+02 1.763815000000000055e+03
1.539999999999999980e-01 1.665554999999999952e-01 2.601545000000000130e+01 1.607504999999999882e+02 1.763505000000000109e+03
1.549999999999999989e-01 1.665149999999999963e-01 2.528565000000000040e+01 1.598695000000000164e+02 1.763180000000000064e+03
1.559999999999999998e-01 1.664729999999999821e-01 2.455010000000000048e+01 1.589445000000000050e+02 1.762829999999999927e+03
1.570000000000000007e-01 1.664285000000000070e-01 2.380884999999999962e+01 1.579759999999999991e+02 1.762470000000000027e+03
1.580000000000000016e-01 1.663814999999999877e-01 2.306235000000000213e+01 1.569664999999999964e+02 1.762090000000000146e+03
1.590000000000000024e-01 1.663334999999999952e-01 2.231165000000000020e+01 1.559200000000000159e+02 1.761695000000000164e+03
