# t [s], A [cm^2], U [cm/s], P [cPa], c [cm/s]
1.000000000000000021e-03 7.646785000000000387e-01 6.695500000000000063e-03 9.350944999999998686e+01 1.821309999999999945e+03
2.000000000000000042e-03 7.646690000000000431e-01 5.941899999999999959e-03 9.347405000000000541e+01 1.821299999999999955e+03
3.000000000000000062e-03 7.647555000000000325e-01 1.603971000000000147e-01 9.365925000000000011e+01 1.821335000000000036e+03
4.000000000000000083e-03 7.647815000000000030e-01 2.378870000000000151e-01 9.374190000000000111e+01 1.821355000000000018e+03
5.000000000000000104e-03 7.646874999999999645e-01 1.212960000000000149e-01 9.347409999999999286e+01 1.821305000000000064e+03
6.000000000000000125e-03 7.645960000000000534e-01 -6.230499999999972172e-03 9.307410000000000139e+01 1.821215000000000146e+03
7.000000000000000146e-03 7.644774999999999210e-01 -1.950950000000000184e-01 9.252164999999999395e+01 1.821099999999999909e+03
8.000000000000000167e-03 7.642619999999999969e-01 -5.750150000000000539e-01 9.161549999999999727e+01 1.820904999999999973e+03
9.000000000000001055e-03 7.639549999999999397e-01 -1.133280000000000065e+00 9.030984999999999729e+01 1.820630000000000109e+03
1.000000000000000194e-02 7.635259999999999270e-01 -1.906099999999999905e+00 8.849814999999999543e+01 1.820240000000000009e+03
1.099999999999999936e-02 7.629544999999999799e-01 -2.905264999999999986e+00 8.608990000000000009e+01 1.819724999999999909e+03
1.200000000000000025e-02 7.623225000000000140e-01 -3.958149999999999835e+00 8.327060000000000173e+01 1.819099999999999909e+03
1.300000000000000114e-02 7.617734999999999923e-01 -4.772492999999999874e+00 8.048060000000000969e+01 1.818450000000000045e+03
1.400000000000000203e-02 7.614015000000000644e-01 -5.132039999999999935e+00 7.813795000000000357e+01 1.817875000000000000e+03
1.499999999999999944e-02 7.612010000000000165e-01 -5.005869999999999820e+00 7.641355000000000075e+01 1.817404999999999973e+03
1.600000000000000033e-02 7.610894999999999744e-01 -4.526349999999999874e+00 7.519325000000000614e+01 1.817035000000000082e+03
1.700000000000000122e-02 7.609600000000000808e-01 -3.897825000000000095e+00 7.418090000000000828e+01 1.816715000000000146e+03
1.800000000000000211e-02 7.607334999999999514e-01 -3.295945000000000125e+00 7.305865000000000009e+01 1.816380000000000109e+03
1.900000000000000300e-02 7.603900000000000103e-01 -2.797447999999999713e+00 7.163129999999999598e+01 1.815994999999999891e+03
2.000000000000000042e-02 7.599650000000000016e-01 -2.367847500000000327e+00 6.989225000000000421e+01 1.815550000000000182e+03
2.100000000000000130e-02 7.595239999999999769e-01 -1.908579999999999943e+00 6.798574999999999591e+01 1.815065000000000055e+03
2.200000000000000219e-02 7.591215000000000046e-01 -1.331000000000000183e+00 6.609909999999999286e+01 1.814575000000000045e+03
2.299999999999999961e-02 7.587734999999999896e-01 -6.147750000000000714e-01 6.435144999999999982e+01 1.814105000000000018e+03
2.400000000000000050e-02 7.584530000000000438e-01 1.715949999999999420e-01 6.272854999999999848e+01 1.813659999999999854e+03
2.500000000000000139e-02 7.580990000000000784e-01 8.870399999999998286e-01 6.107774999999999466e+01 1.813210000000000036e+03
2.600000000000000228e-02 7.576389999999999514e-01 1.359465000000000146e+00 5.915470000000000539e+01 1.812715000000000146e+03
2.700000000000000316e-02 7.570130000000000470e-01 1.438854999999999773e+00 5.670510000000000161e+01 1.812115000000000009e+03
2.800000000000000058e-02 7.561990000000000656e-01 1.046444999999999848e+00 5.355689999999999884e+01 1.811369999999999891e+03
2.900000000000000147e-02 7.552190000000000847e-01 2.021000000000006125e-01 4.968949999999999534e+01 1.810480000000000018e+03
3.000000000000000236e-02 7.541370000000000573e-01 -9.819650000000006429e-01 4.525310000000000343e+01 1.809454999999999927e+03
3.099999999999999978e-02 7.530384999999999440e-01 -2.336795000000000400e+00 4.053209999999999980e+01 1.808355000000000018e+03
3.200000000000000067e-02 7.520100000000000673e-01 -3.682655000000000456e+00 3.587415000000000020e+01 1.807255000000000109e+03
3.300000000000000155e-02 7.511194999999999400e-01 -4.867564999999999920e+00 3.161619999999999919e+01 1.806210000000000036e+03
3.400000000000000244e-02 7.504105000000000913e-01 -5.788050000000000139e+00 2.802839999999999776e+01 1.805300000000000182e+03
3.500000000000000333e-02 7.499014999999999986e-01 -6.392960000000000420e+00 2.528490000000000038e+01 1.804570000000000164e+03
3.600000000000000422e-02 7.495899999999999785e-01 -6.674250000000000682e+00 2.346034999999999826e+01 1.804039999999999964e+03
3.700000000000000511e-02 7.494610000000000438e-01 -6.651020000000000820e+00 2.254645000000000010e+01 1.803715000000000146e+03
3.799999999999999906e-02 7.494959999999999400e-01 -6.352159999999999584e+00 2.248089999999999833e+01 1.803599999999999909e+03
3.899999999999999994e-02 7.496760000000000090e-01 -5.802570000000000228e+00 2.317804999999999893e+01 1.803670000000000073e+03
4.000000000000000083e-02 7.499879999999999880e-01 -5.016649499999999762e+00 2.455270000000000152e+01 1.803914999999999964e+03
4.100000000000000172e-02 7.504214999999999636e-01 -3.999925000000000175e+00 2.653190000000000026e+01 1.804309999999999945e+03
4.200000000000000261e-02 7.509689999999999976e-01 -2.756379999999999608e+00 2.905345000000000155e+01 1.804855000000000018e+03
4.300000000000000350e-02 7.516184999999999672e-01 -1.297604999999999897e+00 3.205610000000000070e+01 1.805514999999999873e+03
4.400000000000000439e-02 7.523550000000001070e-01 3.504849999999999355e-01 3.546864999999999668e+01 1.806285000000000082e+03
4.499999999999999833e-02 7.531555000000000888e-01 2.145534999999999748e+00 3.920264999999999844e+01 1.807144999999999982e+03
4.599999999999999922e-02 7.539934999999999832e-01 4.031290000000000262e+00 4.315189999999999770e+01 1.808065000000000055e+03
4.700000000000000011e-02 7.548410000000000952e-01 5.943929999999999936e+00 4.719800000000000040e+01 1.809019999999999982e+03
4.800000000000000100e-02 7.556715000000000515e-01 7.819464499999999596e+00 5.122090000000000032e+01 1.809990000000000009e+03
4.900000000000000189e-02 7.564625000000000377e-01 9.601325000000000998e+00 5.511079999999999757e+01 1.810940000000000055e+03
5.000000000000000278e-02 7.571974999999999678e-01 1.124529500000000048e+01 5.877864999999999895e+01 1.811860000000000127e+03
5.100000000000000366e-02 7.578685000000000560e-01 1.272245999999999810e+01 6.216349999999999909e+01 1.812720000000000027e+03
5.200000000000000455e-02 7.584729999999999528e-01 1.401941499999999863e+01 6.523505000000000109e+01 1.813514999999999873e+03
5.300000000000000544e-02 7.590155000000000651e-01 1.513609999999999900e+01 6.799254999999999427e+01 1.814244999999999891e+03
5.399999999999999939e-02 7.595034999999999981e-01 1.608340000000000103e+01 7.046035000000000537e+01 1.814900000000000091e+03
5.500000000000000028e-02 7.599484999999999157e-01 1.687969999999999970e+01 7.268190000000001305e+01 1.815505000000000109e+03
5.600000000000000117e-02 7.603634999999999700e-01 1.754854999999999876e+01 7.471340000000000714e+01 1.816059999999999945e+03
5.700000000000000205e-02 7.607614999999999794e-01 1.811645000000000039e+01 7.661809999999999832e+01 1.816579999999999927e+03
5.800000000000000294e-02 7.611559999999999437e-01 1.861059999999999803e+01 7.846049999999999613e+01 1.817075000000000045e+03
5.900000000000000383e-02 7.615585000000000271e-01 1.905734999999999957e+01 8.030100000000000193e+01 1.817569999999999936e+03
6.000000000000000472e-02 7.619774999999999743e-01 1.948010000000000019e+01 8.219124999999999659e+01 1.818065000000000055e+03
6.099999999999999867e-02 7.624210000000000154e-01 1.989710000000000178e+01 8.416974999999999341e+01 1.818575000000000045e+03
6.199999999999999956e-02 7.628904999999999159e-01 2.032000000000000028e+01 8.625764999999999816e+01 1.819110000000000127e+03
6.300000000000000044e-02 7.633845000000000214e-01 2.075280000000000058e+01 8.845709999999999695e+01 1.819670000000000073e+03
6.400000000000000133e-02 7.638964999999999783e-01 2.119140000000000157e+01 9.075069999999999482e+01 1.820250000000000000e+03
6.500000000000000222e-02 7.644180000000000419e-01 2.162484999999999857e+01 9.310314999999999941e+01 1.820840000000000146e+03
6.600000000000000311e-02 7.649359999999999493e-01 2.203659999999999997e+01 9.546505000000000507e+01 1.821440000000000055e+03
6.700000000000000400e-02 7.654384999999999106e-01 2.240684999999999860e+01 9.777799999999999159e+01 1.822035000000000082e+03
6.800000000000000488e-02 7.659119999999999262e-01 2.271459999999999724e+01 9.997899999999999920e+01 1.822599999999999909e+03
6.900000000000000577e-02 7.663424999999999265e-01 2.293990000000000151e+01 1.020081500000000005e+02 1.823125000000000000e+03
7.000000000000000666e-02 7.667209999999999859e-01 2.306550000000000011e+01 1.038110000000000070e+02 1.823610000000000127e+03
7.100000000000000755e-02 7.670390000000000263e-01 2.307809999999999917e+01 1.053430000000000035e+02 1.824029999999999973e+03
7.200000000000000844e-02 7.672915000000000152e-01 2.296905000000000285e+01 1.065734999999999957e+02 1.824369999999999891e+03
7.300000000000000933e-02 7.674750000000000183e-01 2.273505000000000109e+01 1.074849999999999994e+02 1.824644999999999982e+03
7.399999999999999634e-02 7.675910000000000233e-01 2.237780000000000058e+01 1.080734999999999957e+02 1.824840000000000146e+03
7.499999999999999722e-02 7.676435000000000342e-01 2.190404999999999802e+01 1.083489999999999895e+02 1.824954999999999927e+03
7.599999999999999811e-02 7.676365000000000549e-01 2.132509999999999906e+01 1.083349999999999937e+02 1.824994999999999891e+03
7.699999999999999900e-02 7.675779999999999825e-01 2.065625000000000000e+01 1.080629999999999882e+02 1.824970000000000027e+03
7.799999999999999989e-02 7.674775000000000347e-01 1.991570000000000107e+01 1.075745000000000005e+02 1.824889999999999873e+03
7.900000000000000078e-02 7.673445000000000960e-01 1.912424999999999997e+01 1.069145000000000039e+02 1.824759999999999991e+03
8.000000000000000167e-02 7.671890000000000098e-01 1.830344999999999800e+01 1.061347000000000094e+02 1.824599999999999909e+03
8.100000000000000255e-02 7.670224999999999405e-01 1.747500000000000142e+01 1.052835000000000036e+02 1.824409999999999854e+03
8.200000000000000344e-02 7.668534999999999657e-01 1.665954999999999941e+01 1.044086000000000070e+02 1.824204999999999927e+03
8.300000000000000433e-02 7.666904999999999415e-01 1.587545000000000073e+01 1.035528999999999940e+02 1.824000000000000000e+03
8.400000000000000522e-02 7.665414999999999868e-01 1.513790000000000013e+01 1.027537999999999982e+02 1.823800000000000182e+03
8.500000000000000611e-02 7.664104999999999945e-01 1.445834999999999937e+01 1.020386000000000024e+02 1.823619999999999891e+03
8.600000000000000699e-02 7.663010000000000099e-01 1.384365000000000023e+01 1.014260000000000019e+02 1.823460000000000036e+03
8.700000000000000788e-02 7.662139999999999507e-01 1.329649999999999821e+01 1.009253999999999962e+02 1.823320000000000164e+03
8.800000000000000877e-02 7.661474999999999813e-01 1.281496500000000083e+01 1.005366999999999962e+02 1.823210000000000036e+03
8.899999999999999578e-02 7.661005000000000731e-01 1.239330999999999960e+01 1.002498999999999967e+02 1.823125000000000000e+03
8.999999999999999667e-02 7.660679999999999712e-01 1.202221000000000117e+01 1.000486999999999966e+02 1.823055000000000064e+03
9.099999999999999756e-02 7.660445000000000171e-01 1.168963499999999911e+01 9.991015000000000157e+01 1.823005000000000109e+03
9.199999999999999845e-02 7.660244999999999971e-01 1.138170999999999999e+01 9.980660000000000309e+01 1.822965000000000146e+03
9.299999999999999933e-02 7.660015000000000018e-01 1.108333499999999994e+01 9.970805000000000007e+01 1.822929999999999836e+03
9.400000000000000022e-02 7.659700000000000397e-01 1.077944499999999906e+01 9.958410000000000650e+01 1.822889999999999873e+03
9.500000000000000111e-02 7.659225000000000616e-01 1.045586499999999930e+01 9.940639999999999077e+01 1.822840000000000146e+03
9.600000000000000200e-02 7.658564999999999401e-01 1.010012000000000043e+01 9.914934999999999832e+01 1.822775000000000091e+03
9.700000000000000289e-02 7.657665000000000166e-01 9.702584999999999127e+00 9.879404999999999859e+01 1.822694999999999936e+03
9.800000000000000377e-02 7.656525000000000691e-01 9.256959999999999411e+00 9.832750000000000057e+01 1.822585000000000036e+03
9.900000000000000466e-02 7.655129999999999990e-01 8.760894999999999655e+00 9.774520000000001119e+01 1.822444999999999936e+03
1.000000000000000056e-01 7.653505000000000447e-01 8.216020000000000323e+00 9.705064999999999031e+01 1.822284999999999854e+03
1.010000000000000064e-01 7.651689999999999880e-01 7.628190000000000026e+00 9.625739999999998986e+01 1.822099999999999909e+03
1.020000000000000073e-01 7.649734999999999729e-01 7.006750000000000256e+00 9.538524999999999920e+01 1.821894999999999982e+03
1.030000000000000082e-01 7.647694999999999910e-01 6.364254999999999995e+00 9.446110000000000184e+01 1.821675000000000182e+03
1.040000000000000091e-01 7.645655000000000090e-01 5.715510000000000090e+00 9.351749999999999829e+01 1.821444999999999936e+03
1.050000000000000100e-01 7.643680000000000474e-01 5.076624999999999943e+00 9.258915000000000362e+01 1.821220000000000027e+03
1.059999999999999970e-01 7.641854999999999620e-01 4.464024999999999466e+00 9.171160000000000423e+01 1.820994999999999891e+03
1.069999999999999979e-01 7.640240000000000364e-01 3.893415000000000070e+00 9.091890000000000782e+01 1.820799999999999955e+03
1.079999999999999988e-01 7.638905000000000278e-01 3.378829999999999778e+00 9.024134999999999707e+01 1.820619999999999891e+03
1.089999999999999997e-01 7.637890000000000512e-01 2.931840000000000224e+00 8.970355000000000700e+01 1.820470000000000027e+03
1.100000000000000006e-01 7.637214999999999421e-01 2.560929999999999929e+00 8.932355000000001155e+01 1.820365000000000009e+03
1.110000000000000014e-01 7.636914999999999676e-01 2.271094999999999864e+00 8.911115000000000919e+01 1.820289999999999964e+03
1.120000000000000023e-01 7.636965000000000003e-01 2.063690000000000246e+00 8.906820000000000448e+01 1.820259999999999991e+03
1.130000000000000032e-01 7.637359999999999705e-01 1.936570000000000125e+00 8.918870000000001141e+01 1.820264999999999873e+03
1.140000000000000041e-01 7.638049999999999562e-01 1.884349999999999969e+00 8.945924999999999727e+01 1.820309999999999945e+03
1.150000000000000050e-01 7.638994999999999536e-01 1.898909999999999876e+00 8.986064999999999259e+01 1.820389999999999873e+03
1.160000000000000059e-01 7.640149999999999997e-01 1.969994999999999941e+00 9.036899999999999977e+01 1.820490000000000009e+03
1.170000000000000068e-01 7.641439999999999344e-01 2.085833000000000048e+00 9.095734999999999104e+01 1.820619999999999891e+03
1.180000000000000077e-01 7.642815000000000580e-01 2.233839999999999826e+00 9.159754999999999825e+01 1.820769999999999982e+03
1.190000000000000085e-01 7.644214999999999760e-01 2.401205000000000034e+00 9.226130000000000564e+01 1.820920000000000073e+03
1.200000000000000094e-01 7.645589999999999886e-01 2.575514999999999777e+00 9.292185000000000628e+01 1.821074999999999818e+03
1.209999999999999964e-01 7.646884999999999932e-01 2.745200000000000085e+00 9.355494999999999095e+01 1.821230000000000018e+03
1.219999999999999973e-01 7.648059999999999858e-01 2.899980000000000224e+00 9.413965000000000316e+01 1.821375000000000000e+03
1.229999999999999982e-01 7.649090000000000611e-01 3.031150000000000233e+00 9.465914999999999679e+01 1.821505000000000109e+03
1.239999999999999991e-01 7.649945000000000217e-01 3.131835000000000147e+00 9.510070000000000334e+01 1.821619999999999891e+03
1.250000000000000000e-01 7.650624999999999787e-01 3.197119999999999962e+00 9.545625000000001137e+01 1.821715000000000146e+03
1.260000000000000009e-01 7.651110000000000966e-01 3.224090000000000344e+00 9.572200000000000841e+01 1.821795000000000073e+03
1.270000000000000018e-01 7.651414999999999189e-01 3.211834999999999773e+00 9.589824999999999022e+01 1.821849999999999909e+03
1.280000000000000027e-01 7.651544999999999597e-01 3.161335000000000228e+00 9.598920000000001096e+01 1.821884999999999991e+03
1.290000000000000036e-01 7.651520000000000543e-01 3.075269999999999726e+00 9.600225000000000364e+01 1.821900000000000091e+03
1.300000000000000044e-01 7.651369999999999560e-01 2.957794999999999952e+00 9.594740000000000180e+01 1.821894999999999982e+03
1.310000000000000053e-01 7.651114999999999444e-01 2.814214999999999911e+00 9.583670000000000755e+01 1.821884999999999991e+03
1.320000000000000062e-01 7.650784999999999947e-01 2.650649999999999729e+00 9.568330000000000268e+01 1.821855000000000018e+03
1.330000000000000071e-01 7.650405000000000122e-01 2.473615000000000119e+00 9.550084999999999980e+01 1.821815000000000055e+03
1.340000000000000080e-01 7.650010000000000421e-01 2.289660000000000029e+00 9.530240000000000578e+01 1.821775000000000091e+03
1.350000000000000089e-01 7.649624999999999897e-01 2.104969999999999786e+00 9.509995000000000687e+01 1.821735000000000127e+03
1.360000000000000098e-01 7.649254999999999249e-01 1.924989999999999979e+00 9.490370000000000061e+01 1.821684999999999945e+03
1.370000000000000107e-01 7.648924999999999752e-01 1.754215000000000080e+00 9.472129999999999939e+01 1.821639999999999873e+03
1.380000000000000115e-01 7.648639999999999883e-01 1.595948000000000144e+00 9.455785000000000196e+01 1.821605000000000018e+03
1.390000000000000124e-01 7.648399999999999643e-01 1.452218500000000079e+00 9.441554999999999609e+01 1.821570000000000164e+03
1.400000000000000133e-01 7.648204999999999032e-01 1.323798000000000030e+00 9.429370000000000118e+01 1.821534999999999854e+03
1.410000000000000142e-01 7.648034999999999695e-01 1.210301999999999989e+00 9.418919999999999959e+01 1.821505000000000109e+03
1.420000000000000151e-01 7.647889999999999411e-01 1.110371500000000067e+00 9.409704999999999586e+01 1.821480000000000018e+03
1.430000000000000160e-01 7.647745000000000237e-01 1.021913999999999989e+00 9.401044999999999163e+01 1.821460000000000036e+03
1.440000000000000169e-01 7.647585000000000077e-01 9.423624999999999918e-01 9.392210000000000036e+01 1.821434999999999945e+03
1.450000000000000178e-01 7.647395000000000165e-01 8.689620000000000122e-01 9.382464999999999122e+01 1.821409999999999854e+03
1.459999999999999909e-01 7.647165000000000212e-01 7.990160000000000595e-01 9.371105000000000018e+01 1.821380000000000109e+03
1.469999999999999918e-01 7.646874999999999645e-01 7.300770000000000870e-01 9.357540000000000191e+01 1.821345000000000027e+03
1.479999999999999927e-01 7.646530000000000271e-01 6.601185000000000525e-01 9.341325000000000500e+01 1.821305000000000064e+03
1.489999999999999936e-01 7.646114999999999995e-01 5.876452500000000079e-01 9.322190000000000509e+01 1.821259999999999991e+03
1.499999999999999944e-01 7.645629999999999926e-01 5.117450500000000346e-01 9.300029999999999575e+01 1.821204999999999927e+03
1.509999999999999953e-01 7.645085000000000353e-01 4.321269999999999833e-01 9.274930000000000518e+01 1.821139999999999873e+03
1.519999999999999962e-01 7.644484999999999753e-01 3.491150000000000642e-01 9.247145000000000437e+01 1.821075000000000045e+03
1.529999999999999971e-01 7.643834999999999935e-01 2.636290000000000022e-01 9.217090000000000316e+01 1.821000000000000000e+03
1.539999999999999980e-01 7.643145000000000078e-01 1.771575000000000233e-01 9.185314999999999941e+01 1.820924999999999955e+03
1.549999999999999989e-01 7.642444999999999933e-01 9.170000000000000373e-02 9.152479999999999905e+01 1.820840000000000146e+03
1.559999999999999998e-01 7.641735000000000610e-01 9.702000000000043922e-03 9.119350000000000023e+01 1.820760000000000218e+03
1.570000000000000007e-01 7.641044999999999643e-01 -6.604550000000003473e-02 9.086754999999999427e+01 1.820674999999999955e+03
1.580000000000000016e-01 7.640385000000000648e-01 -1.325279999999999792e-01 9.055539999999999168e+01 1.820595000000000027e+03
1.590000000000000024e-01 7.639780000000000459e-01 -1.866629999999999956e-01 9.026564999999999372e+01 1.820525000000000091e+03
