# t [s], A [cm^2], U [cm/s], P [cPa], c [cm/s]
1.000000000000000021e-03 1.364374999999999893e-01 3.150414999999999743e-01 9.225659999999999172e+01 1.990559999999999945e+03
2.000000000000000042e-03 1.364115000000000189e-01 1.732980500000000035e+00 8.923385000000000389e+01 1.990235000000000127e+03
3.000000000000000062e-03 1.363280000000000047e-01 3.458366000000000273e+00 8.523355000000000814e+01 1.989244999999999891e+03
4.000000000000000083e-03 1.362079999999999957e-01 5.377151500000000084e+00 8.089615000000000578e+01 1.987849999999999909e+03
5.000000000000000104e-03 1.360740000000000005e-01 7.433849999999999625e+00 7.696375000000000455e+01 1.986304999999999836e+03
6.000000000000000125e-03 1.359410000000000063e-01 9.498414999999999608e+00 7.372364999999999213e+01 1.984784999999999854e+03
7.000000000000000146e-03 1.358135000000000037e-01 1.139829500000000095e+01 7.101099999999999568e+01 1.983355000000000018e+03
8.000000000000000167e-03 1.356950000000000101e-01 1.304140999999999906e+01 6.859114999999999895e+01 1.982039999999999964e+03
9.000000000000001055e-03 1.355870000000000131e-01 1.444135999999999953e+01 6.644429999999999836e+01 1.980864999999999782e+03
1.000000000000000194e-02 1.354925000000000157e-01 1.563080000000000069e+01 6.463814999999999600e+01 1.979845000000000027e+03
1.099999999999999936e-02 1.354124999999999912e-01 1.662225000000000108e+01 6.317180000000000462e+01 1.978984999999999900e+03
1.200000000000000025e-02 1.353455000000000075e-01 1.742150000000000176e+01 6.199204999999999188e+01 1.978279999999999973e+03
1.300000000000000114e-02 1.352904999999999802e-01 1.803119999999999834e+01 6.102400000000000091e+01 1.977704999999999927e+03
1.400000000000000203e-02 1.352440000000000031e-01 1.845439999999999969e+01 6.017789999999999395e+01 1.977234999999999900e+03
1.499999999999999944e-02 1.352045000000000052e-01 1.871990000000000265e+01 5.940749999999999886e+01 1.976835000000000036e+03
1.600000000000000033e-02 1.351715000000000000e-01 1.890420000000000300e+01 5.879630000000000223e+01 1.976509999999999991e+03
1.700000000000000122e-02 1.351494999999999780e-01 1.911909999999999954e+01 5.856664999999999566e+01 1.976295000000000073e+03
1.800000000000000211e-02 1.351439999999999864e-01 1.946594999999999942e+01 5.897575000000000500e+01 1.976244999999999891e+03
1.900000000000000300e-02 1.351585000000000147e-01 1.998795000000000144e+01 6.016440000000000055e+01 1.976410000000000082e+03
2.000000000000000042e-02 1.351930000000000076e-01 2.064999999999999858e+01 6.205689999999999884e+01 1.976789999999999964e+03
2.100000000000000130e-02 1.352444999999999897e-01 2.135285000000000011e+01 6.436329999999999529e+01 1.977345000000000027e+03
2.200000000000000219e-02 1.353044999999999942e-01 2.197129999999999939e+01 6.667300000000000182e+01 1.977994999999999891e+03
2.299999999999999961e-02 1.353630000000000111e-01 2.239665000000000106e+01 6.858644999999999925e+01 1.978634999999999991e+03
2.400000000000000050e-02 1.354120000000000046e-01 2.256705000000000183e+01 6.983084999999999809e+01 1.979190000000000055e+03
2.500000000000000139e-02 1.354464999999999975e-01 2.247919999999999874e+01 7.032059999999999889e+01 1.979579999999999927e+03
2.600000000000000228e-02 1.354644999999999877e-01 2.217880000000000251e+01 7.015125000000000455e+01 1.979799999999999955e+03
2.700000000000000316e-02 1.354684999999999917e-01 2.173774999999999835e+01 6.953834999999999411e+01 1.979865000000000009e+03
2.800000000000000058e-02 1.354624999999999857e-01 2.122735000000000127e+01 6.872990000000000066e+01 1.979820000000000164e+03
2.900000000000000147e-02 1.354509999999999881e-01 2.069769999999999754e+01 6.792619999999999436e+01 1.979704999999999927e+03
3.000000000000000236e-02 1.354380000000000028e-01 2.016794999999999760e+01 6.723075000000000045e+01 1.979565000000000055e+03
3.099999999999999978e-02 1.354239999999999888e-01 1.962914999999999921e+01 6.664279999999999404e+01 1.979420000000000073e+03
3.200000000000000067e-02 1.354100000000000026e-01 1.905604999999999905e+01 6.608525000000000205e+01 1.979269999999999982e+03
3.300000000000000155e-02 1.353940000000000143e-01 1.842310000000000159e+01 6.545380000000000109e+01 1.979099999999999909e+03
3.400000000000000244e-02 1.353745000000000087e-01 1.771884999999999977e+01 6.466864999999999952e+01 1.978894999999999982e+03
3.500000000000000333e-02 1.353504999999999847e-01 1.695544999999999902e+01 6.371330000000000382e+01 1.978639999999999873e+03
3.600000000000000422e-02 1.353225000000000122e-01 1.616989999999999839e+01 6.265090000000000003e+01 1.978345000000000027e+03
3.700000000000000511e-02 1.352929999999999966e-01 1.541779999999999973e+01 6.161384999999999934e+01 1.978034999999999854e+03
3.799999999999999906e-02 1.352659999999999973e-01 1.476135000000000019e+01 6.077214999999999634e+01 1.977740000000000009e+03
3.899999999999999994e-02 1.352444999999999897e-01 1.425485000000000113e+01 6.028924999999999557e+01 1.977509999999999991e+03
4.000000000000000083e-02 1.352329999999999921e-01 1.393249999999999922e+01 6.027970000000000539e+01 1.977375000000000000e+03
4.100000000000000172e-02 1.352329999999999921e-01 1.380049999999999955e+01 6.077944999999999709e+01 1.977369999999999891e+03
4.200000000000000261e-02 1.352464999999999917e-01 1.383565000000000111e+01 6.173474999999999824e+01 1.977494999999999891e+03
4.300000000000000350e-02 1.352705000000000157e-01 1.399034999999999940e+01 6.301274999999999693e+01 1.977740000000000009e+03
4.400000000000000439e-02 1.353024999999999922e-01 1.420115000000000016e+01 6.442624999999999602e+01 1.978075000000000045e+03
4.499999999999999833e-02 1.353380000000000138e-01 1.439954999999999963e+01 6.576760000000000161e+01 1.978445000000000164e+03
4.599999999999999922e-02 1.353710000000000191e-01 1.452155000000000129e+01 6.684199999999999875e+01 1.978804999999999836e+03
4.700000000000000011e-02 1.353980000000000183e-01 1.451585000000000036e+01 6.749459999999999127e+01 1.979095000000000027e+03
4.800000000000000100e-02 1.354150000000000076e-01 1.434764999999999979e+01 6.762665000000001214e+01 1.979279999999999973e+03
4.900000000000000189e-02 1.354184999999999972e-01 1.400014999999999965e+01 6.719974999999999454e+01 1.979325000000000045e+03
5.000000000000000278e-02 1.354075000000000140e-01 1.347269999999999968e+01 6.623075000000000045e+01 1.979215000000000146e+03
5.100000000000000366e-02 1.353825000000000167e-01 1.277735000000000021e+01 6.477850000000000819e+01 1.978954999999999927e+03
5.200000000000000455e-02 1.353440000000000198e-01 1.193513000000000090e+01 6.292870000000000630e+01 1.978554999999999836e+03
5.300000000000000544e-02 1.352944999999999842e-01 1.097213499999999975e+01 6.077880000000000393e+01 1.978025000000000091e+03
5.399999999999999939e-02 1.352355000000000085e-01 9.917020000000000834e+00 5.842685000000000173e+01 1.977394999999999982e+03
5.500000000000000028e-02 1.351694999999999980e-01 8.799314999999999998e+00 5.596450000000000102e+01 1.976684999999999945e+03
5.600000000000000117e-02 1.350994999999999835e-01 7.648859999999999992e+00 5.347459999999999525e+01 1.975934999999999945e+03
5.700000000000000205e-02 1.350270000000000081e-01 6.496169999999999334e+00 5.103244999999999720e+01 1.975150000000000091e+03
5.800000000000000294e-02 1.349545000000000050e-01 5.372495000000000687e+00 4.870850000000000080e+01 1.974369999999999891e+03
5.900000000000000383e-02 1.348840000000000039e-01 4.310349999999999682e+00 4.657150000000000034e+01 1.973615000000000009e+03
6.000000000000000472e-02 1.348185000000000078e-01 3.343284000000000145e+00 4.469055000000000177e+01 1.972900000000000091e+03
6.099999999999999867e-02 1.347599999999999909e-01 2.505189999999999806e+00 4.313519999999999754e+01 1.972264999999999873e+03
6.199999999999999956e-02 1.347094999999999820e-01 1.829146500000000009e+00 4.197405000000000541e+01 1.971719999999999800e+03
6.300000000000000044e-02 1.346709999999999852e-01 1.345820500000000086e+00 4.127134999999999820e+01 1.971289999999999964e+03
6.400000000000000133e-02 1.346450000000000147e-01 1.081730499999999928e+00 4.108275000000000432e+01 1.970994999999999891e+03
6.500000000000000222e-02 1.346340000000000037e-01 1.057558499999999846e+00 4.145114999999999839e+01 1.970865000000000009e+03
6.600000000000000311e-02 1.346390000000000087e-01 1.286782499999999940e+00 4.240250000000000341e+01 1.970900000000000091e+03
6.700000000000000400e-02 1.346609999999999752e-01 1.774764999999999926e+00 4.394339999999999691e+01 1.971119999999999891e+03
6.800000000000000488e-02 1.346999999999999864e-01 2.518398499999999984e+00 4.606005000000000393e+01 1.971525000000000091e+03
6.900000000000000577e-02 1.347559999999999869e-01 3.506284999999999652e+00 4.871875000000000000e+01 1.972110000000000127e+03
7.000000000000000666e-02 1.348290000000000044e-01 4.719540000000000290e+00 5.186789999999999878e+01 1.972869999999999891e+03
7.100000000000000755e-02 1.349170000000000091e-01 6.132880000000000109e+00 5.544160000000000110e+01 1.973800000000000182e+03
7.200000000000000844e-02 1.350179999999999991e-01 7.716194999999999915e+00 5.936359999999999815e+01 1.974880000000000109e+03
7.300000000000000933e-02 1.351304999999999867e-01 9.436135000000000161e+00 6.355230000000000246e+01 1.976079999999999927e+03
7.399999999999999634e-02 1.352519999999999833e-01 1.125792999999999999e+01 6.792515000000000214e+01 1.977389999999999873e+03
7.499999999999999722e-02 1.353805000000000147e-01 1.314702999999999911e+01 7.240350000000000819e+01 1.978769999999999982e+03
7.599999999999999811e-02 1.355139999999999956e-01 1.507065000000000055e+01 7.691604999999999848e+01 1.980215000000000146e+03
7.699999999999999900e-02 1.356499999999999928e-01 1.699934999999999974e+01 8.140250000000000341e+01 1.981684999999999945e+03
7.799999999999999989e-02 1.357865000000000044e-01 1.890760000000000218e+01 8.581524999999999181e+01 1.983170000000000073e+03
7.900000000000000078e-02 1.359225000000000017e-01 2.077474999999999739e+01 9.012080000000000268e+01 1.984654999999999973e+03
8.000000000000000167e-02 1.360569999999999835e-01 2.258530000000000015e+01 9.429964999999999975e+01 1.986125000000000000e+03
8.100000000000000255e-02 1.361884999999999901e-01 2.432864999999999966e+01 9.834459999999999980e+01 1.987570000000000164e+03
8.200000000000000344e-02 1.363174999999999804e-01 2.599889999999999901e+01 1.022599500000000035e+02 1.988994999999999891e+03
8.300000000000000433e-02 1.364434999999999953e-01 2.759394999999999953e+01 1.060582500000000010e+02 1.990380000000000109e+03
8.400000000000000522e-02 1.365659999999999930e-01 2.911465000000000103e+01 1.097574999999999932e+02 1.991744999999999891e+03
8.500000000000000611e-02 1.366870000000000029e-01 3.056404999999999816e+01 1.133769999999999953e+02 1.993075000000000045e+03
8.600000000000000699e-02 1.368054999999999966e-01 3.194619999999999749e+01 1.169364999999999952e+02 1.994389999999999873e+03
8.700000000000000788e-02 1.369225000000000025e-01 3.326534999999999798e+01 1.204534999999999911e+02 1.995690000000000055e+03
8.800000000000000877e-02 1.370379999999999932e-01 3.452535000000000309e+01 1.239390000000000072e+02 1.996970000000000027e+03
8.899999999999999578e-02 1.371519999999999961e-01 3.572894999999999754e+01 1.274000000000000057e+02 1.998244999999999891e+03
8.999999999999999667e-02 1.372654999999999847e-01 3.687734999999999985e+01 1.308354999999999961e+02 1.999514999999999873e+03
9.099999999999999756e-02 1.373780000000000001e-01 3.797025000000000006e+01 1.342404999999999973e+02 2.000769999999999982e+03
9.199999999999999845e-02 1.374894999999999867e-01 3.900554999999999950e+01 1.376020000000000039e+02 2.002014999999999873e+03
9.299999999999999933e-02 1.375989999999999991e-01 3.997955000000000325e+01 1.409019999999999868e+02 2.003240000000000009e+03
9.400000000000000022e-02 1.377069999999999961e-01 4.088710000000000377e+01 1.441214999999999975e+02 2.004450000000000045e+03
9.500000000000000111e-02 1.378125000000000044e-01 4.172214999999999918e+01 1.472350000000000136e+02 2.005630000000000109e+03
9.600000000000000200e-02 1.379150000000000098e-01 4.247755000000000081e+01 1.502179999999999893e+02 2.006779999999999973e+03
9.700000000000000289e-02 1.380135000000000112e-01 4.314594999999999914e+01 1.530449999999999875e+02 2.007884999999999991e+03
9.800000000000000377e-02 1.381069999999999798e-01 4.371985000000000099e+01 1.556914999999999907e+02 2.008945000000000164e+03
9.900000000000000466e-02 1.381950000000000123e-01 4.419214999999999804e+01 1.581334999999999980e+02 2.009940000000000055e+03
1.000000000000000056e-01 1.382774999999999976e-01 4.455639999999999645e+01 1.603514999999999873e+02 2.010869999999999891e+03
1.010000000000000064e-01 1.383535000000000181e-01 4.480729999999999791e+01 1.623290000000000077e+02 2.011730000000000018e+03
1.020000000000000073e-01 1.384215000000000029e-01 4.494095000000000084e+01 1.640514999999999759e+02 2.012505000000000109e+03
1.030000000000000082e-01 1.384825000000000084e-01 4.495504999999999995e+01 1.655115000000000123e+02 2.013195000000000164e+03
1.040000000000000091e-01 1.385350000000000192e-01 4.484935000000000116e+01 1.667060000000000173e+02 2.013805000000000064e+03
1.050000000000000100e-01 1.385800000000000087e-01 4.462565000000000026e+01 1.676374999999999886e+02 2.014319999999999936e+03
1.059999999999999970e-01 1.386165000000000036e-01 4.428790000000000049e+01 1.683125000000000000e+02 2.014740000000000009e+03
1.069999999999999979e-01 1.386454999999999771e-01 4.384220000000000539e+01 1.687445000000000164e+02 2.015079999999999927e+03
1.079999999999999988e-01 1.386669999999999847e-01 4.329664999999999964e+01 1.689515000000000100e+02 2.015329999999999927e+03
1.089999999999999997e-01 1.386809999999999987e-01 4.266110000000000468e+01 1.689540000000000077e+02 2.015500000000000000e+03
1.100000000000000006e-01 1.386890000000000067e-01 4.194695000000000107e+01 1.687775000000000034e+02 2.015599999999999909e+03
1.110000000000000014e-01 1.386904999999999943e-01 4.116660000000000252e+01 1.684484999999999957e+02 2.015630000000000109e+03
1.120000000000000023e-01 1.386875000000000191e-01 4.033294999999999675e+01 1.679954999999999927e+02 2.015599999999999909e+03
1.130000000000000032e-01 1.386795000000000111e-01 3.945924999999999727e+01 1.674460000000000264e+02 2.015514999999999873e+03
1.140000000000000041e-01 1.386685000000000001e-01 3.855819999999999936e+01 1.668274999999999864e+02 2.015394999999999982e+03
1.150000000000000050e-01 1.386539999999999995e-01 3.764204999999999757e+01 1.661639999999999873e+02 2.015244999999999891e+03
1.160000000000000059e-01 1.386379999999999835e-01 3.672175000000000011e+01 1.654764999999999873e+02 2.015065000000000055e+03
1.170000000000000068e-01 1.386199999999999932e-01 3.580674999999999386e+01 1.647845000000000084e+02 2.014869999999999891e+03
1.180000000000000077e-01 1.386020000000000030e-01 3.490524999999999523e+01 1.641000000000000227e+02 2.014670000000000073e+03
1.190000000000000085e-01 1.385830000000000117e-01 3.402309999999999945e+01 1.634329999999999927e+02 2.014454999999999927e+03
1.200000000000000094e-01 1.385640000000000205e-01 3.316474999999999795e+01 1.627889999999999873e+02 2.014244999999999891e+03
1.209999999999999964e-01 1.385450000000000015e-01 3.233249999999999602e+01 1.621690000000000111e+02 2.014029999999999973e+03
1.219999999999999973e-01 1.385270000000000112e-01 3.152705000000000268e+01 1.615709999999999980e+02 2.013824999999999818e+03
1.229999999999999982e-01 1.385089999999999932e-01 3.074735000000000085e+01 1.609879999999999995e+02 2.013615000000000009e+03
1.239999999999999991e-01 1.384905000000000164e-01 2.999105000000000132e+01 1.604110000000000014e+02 2.013409999999999854e+03
1.250000000000000000e-01 1.384724999999999984e-01 2.925455000000000183e+01 1.598309999999999889e+02 2.013199999999999818e+03
1.260000000000000009e-01 1.384539999999999937e-01 2.853340000000000032e+01 1.592350000000000136e+02 2.012994999999999891e+03
1.270000000000000018e-01 1.384350000000000025e-01 2.782249999999999801e+01 1.586094999999999970e+02 2.012779999999999973e+03
1.280000000000000027e-01 1.384150000000000102e-01 2.711664999999999992e+01 1.579440000000000168e+02 2.012554999999999836e+03
1.290000000000000036e-01 1.383940000000000170e-01 2.641044999999999732e+01 1.572245000000000061e+02 2.012315000000000055e+03
1.300000000000000044e-01 1.383709999999999940e-01 2.569899999999999807e+01 1.564424999999999955e+02 2.012054999999999836e+03
1.310000000000000053e-01 1.383459999999999968e-01 2.497789999999999822e+01 1.555879999999999939e+02 2.011775000000000091e+03
1.320000000000000062e-01 1.383199999999999985e-01 2.424350000000000094e+01 1.546560000000000059e+02 2.011474999999999909e+03
1.330000000000000071e-01 1.382904999999999829e-01 2.349334999999999951e+01 1.536424999999999841e+02 2.011150000000000091e+03
1.340000000000000080e-01 1.382589999999999930e-01 2.272605000000000075e+01 1.525469999999999970e+02 2.010795000000000073e+03
1.350000000000000089e-01 1.382255000000000011e-01 2.194145000000000323e+01 1.513725000000000023e+02 2.010420000000000073e+03
1.360000000000000098e-01 1.381890000000000063e-01 2.114079999999999870e+01 1.501245000000000118e+02 2.010014999999999873e+03
1.370000000000000107e-01 1.381505000000000094e-01 2.032654999999999745e+01 1.488125000000000000e+02 2.009585000000000036e+03
1.380000000000000115e-01 1.381100000000000105e-01 1.950244999999999962e+01 1.474474999999999909e+02 2.009134999999999991e+03
1.390000000000000124e-01 1.380684999999999829e-01 1.867324999999999946e+01 1.460430000000000064e+02 2.008670000000000073e+03
1.400000000000000133e-01 1.380250000000000088e-01 1.784485000000000099e+01 1.446154999999999973e+02 2.008184999999999945e+03
1.410000000000000142e-01 1.379809999999999925e-01 1.702349999999999852e+01 1.431814999999999998e+02 2.007690000000000055e+03
1.420000000000000151e-01 1.379365000000000174e-01 1.621610000000000085e+01 1.417584999999999980e+02 2.007190000000000055e+03
1.430000000000000160e-01 1.378920000000000146e-01 1.542975000000000207e+01 1.403644999999999925e+02 2.006694999999999936e+03
1.440000000000000169e-01 1.378484999999999849e-01 1.467129999999999868e+01 1.390149999999999864e+02 2.006204999999999927e+03
1.450000000000000178e-01 1.378054999999999974e-01 1.394725000000000037e+01 1.377270000000000039e+02 2.005730000000000018e+03
1.459999999999999909e-01 1.377645000000000119e-01 1.326350000000000051e+01 1.365134999999999934e+02 2.005264999999999873e+03
1.469999999999999918e-01 1.377249999999999863e-01 1.262519999999999953e+01 1.353854999999999791e+02 2.004829999999999927e+03
1.479999999999999927e-01 1.376884999999999915e-01 1.203631999999999991e+01 1.343520000000000039e+02 2.004414999999999964e+03
1.489999999999999936e-01 1.376539999999999986e-01 1.149980000000000047e+01 1.334184999999999945e+02 2.004029999999999973e+03
1.499999999999999944e-01 1.376229999999999953e-01 1.101740500000000011e+01 1.325875000000000057e+02 2.003674999999999955e+03
1.509999999999999953e-01 1.375945000000000085e-01 1.058982999999999919e+01 1.318600000000000136e+02 2.003360000000000127e+03
1.519999999999999962e-01 1.375689999999999968e-01 1.021635500000000008e+01 1.312334999999999923e+02 2.003069999999999936e+03
1.529999999999999971e-01 1.375464999999999882e-01 9.895450000000000301e+00 1.307019999999999982e+02 2.002809999999999945e+03
1.539999999999999980e-01 1.375270000000000103e-01 9.624565000000000481e+00 1.302605000000000075e+02 2.002590000000000146e+03
1.549999999999999989e-01 1.375099999999999933e-01 9.400190000000000268e+00 1.299000000000000057e+02 2.002400000000000091e+03
1.559999999999999998e-01 1.374960000000000071e-01 9.218434999999999491e+00 1.296109999999999900e+02 2.002235000000000127e+03
1.570000000000000007e-01 1.374839999999999951e-01 9.074680000000000746e+00 1.293840000000000146e+02 2.002095000000000027e+03
1.580000000000000016e-01 1.374739999999999851e-01 8.964085000000000747e+00 1.292075000000000102e+02 2.001980000000000018e+03
1.590000000000000024e-01 1.374659999999999771e-01 8.881660000000000110e+00 1.290724999999999909e+02 2.001884999999999991e+03
