# t [s], A [cm^2], U [cm/s], P [cPa], c [cm/s]
1.000000000000000021e-03 1.732239999999999891e-01 6.035860000000000669e-01 1.010315999999999974e+02 2.359934999999999945e+03
2.000000000000000042e-03 1.731364999999999987e-01 2.574615500000000168e+00 9.573675000000000068e+01 2.359000000000000000e+03
3.000000000000000062e-03 1.729620000000000046e-01 4.957799500000000137e+00 8.883379999999999654e+01 2.357185000000000400e+03
4.000000000000000083e-03 1.727629999999999999e-01 7.656105000000000160e+00 8.256825000000000614e+01 2.355135000000000218e+03
5.000000000000000104e-03 1.725784999999999958e-01 1.036304999999999943e+01 7.785499999999998977e+01 2.353250000000000000e+03
6.000000000000000125e-03 1.724104999999999943e-01 1.262042999999999893e+01 7.391705000000000325e+01 2.351585000000000036e+03
7.000000000000000146e-03 1.722619999999999985e-01 1.436744999999999983e+01 7.034605000000000530e+01 2.350144999999999982e+03
8.000000000000000167e-03 1.721400000000000152e-01 1.573600000000000065e+01 6.747544999999999504e+01 2.348975000000000364e+03
9.000000000000001055e-03 1.720444999999999891e-01 1.676344999999999885e+01 6.530504999999999427e+01 2.348074999999999818e+03
1.000000000000000194e-02 1.719739999999999880e-01 1.751085000000000136e+01 6.376314999999999600e+01 2.347409999999999854e+03
1.099999999999999936e-02 1.719235000000000069e-01 1.800294999999999845e+01 6.271359999999999957e+01 2.346954999999999927e+03
1.200000000000000025e-02 1.718839999999999812e-01 1.823474999999999824e+01 6.182510000000000616e+01 2.346605000000000018e+03
1.300000000000000114e-02 1.718554999999999944e-01 1.839264999999999972e+01 6.123184999999999434e+01 2.346359999999999673e+03
1.400000000000000203e-02 1.718554999999999944e-01 1.886959999999999837e+01 6.191840000000000543e+01 2.346380000000000109e+03
1.499999999999999944e-02 1.719074999999999909e-01 1.994590000000000174e+01 6.489445000000000618e+01 2.346869999999999891e+03
1.600000000000000033e-02 1.720160000000000022e-01 2.149419999999999931e+01 7.002079999999999416e+01 2.347899999999999636e+03
1.700000000000000122e-02 1.721535000000000148e-01 2.300115000000000265e+01 7.571674999999999045e+01 2.349225000000000364e+03
1.800000000000000211e-02 1.722754999999999981e-01 2.385790000000000077e+01 7.975530000000000541e+01 2.350430000000000291e+03
1.900000000000000300e-02 1.723375000000000046e-01 2.369729999999999848e+01 8.049199999999999022e+01 2.351085000000000036e+03
2.000000000000000042e-02 1.723210000000000020e-01 2.257565000000000310e+01 7.773144999999999527e+01 2.350984999999999673e+03
2.100000000000000130e-02 1.722380000000000022e-01 2.091079999999999828e+01 7.274875000000000114e+01 2.350230000000000018e+03
2.200000000000000219e-02 1.721260000000000012e-01 1.923509999999999920e+01 6.751500000000000057e+01 2.349159999999999854e+03
2.299999999999999961e-02 1.720220000000000082e-01 1.792889999999999873e+01 6.366020000000000323e+01 2.348144999999999982e+03
2.400000000000000050e-02 1.719509999999999927e-01 1.708075000000000188e+01 6.178244999999999720e+01 2.347430000000000291e+03
2.500000000000000139e-02 1.719144999999999979e-01 1.651794999999999902e+01 6.139199999999999591e+01 2.347050000000000182e+03
2.600000000000000228e-02 1.718959999999999932e-01 1.595214999999999961e+01 6.137650000000000006e+01 2.346859999999999673e+03
2.700000000000000316e-02 1.718735000000000124e-01 1.515194999999999936e+01 6.066434999999999889e+01 2.346639999999999873e+03
2.800000000000000058e-02 1.718300000000000105e-01 1.406734999999999935e+01 5.877329999999999899e+01 2.346235000000000127e+03
2.900000000000000147e-02 1.717664999999999886e-01 1.286015000000000086e+01 5.603239999999999554e+01 2.345630000000000109e+03
3.000000000000000236e-02 1.716965000000000019e-01 1.183327000000000062e+01 5.341055000000000064e+01 2.344954999999999927e+03
3.099999999999999978e-02 1.716455000000000064e-01 1.129363000000000028e+01 5.204940000000000566e+01 2.344444999999999709e+03
3.200000000000000067e-02 1.716349999999999820e-01 1.141685000000000016e+01 5.273564999999999969e+01 2.344315000000000055e+03
3.300000000000000155e-02 1.716750000000000220e-01 1.217215000000000025e+01 5.555169999999999675e+01 2.344654999999999745e+03
3.400000000000000244e-02 1.717589999999999950e-01 1.332965000000000089e+01 5.983129999999999882e+01 2.345434999999999945e+03
3.500000000000000333e-02 1.718649999999999900e-01 1.453384999999999927e+01 6.438945000000001073e+01 2.346444999999999709e+03
3.600000000000000422e-02 1.719645000000000201e-01 1.540520000000000067e+01 6.789600000000000080e+01 2.347409999999999854e+03
3.700000000000000511e-02 1.720274999999999999e-01 1.563199999999999967e+01 6.924035000000000650e+01 2.348039999999999964e+03
3.799999999999999906e-02 1.720315000000000039e-01 1.503004999999999924e+01 6.777955000000000041e+01 2.348109999999999673e+03
3.899999999999999994e-02 1.719654999999999934e-01 1.356119999999999948e+01 6.342259999999999565e+01 2.347505000000000109e+03
4.000000000000000083e-02 1.718304999999999971e-01 1.131497499999999867e+01 5.656080000000000041e+01 2.346234999999999673e+03
4.100000000000000172e-02 1.716364999999999974e-01 8.468495000000000772e+00 4.789894999999999925e+01 2.344390000000000327e+03
4.200000000000000261e-02 1.714019999999999988e-01 5.239785000000000359e+00 3.825804999999999723e+01 2.342139999999999873e+03
4.300000000000000350e-02 1.711445000000000050e-01 1.850365000000000038e+00 2.841474999999999795e+01 2.339659999999999854e+03
4.400000000000000439e-02 1.708830000000000071e-01 -1.496269999999999989e+00 1.901140999999999792e+01 2.337135000000000218e+03
4.499999999999999833e-02 1.706330000000000069e-01 -4.621380000000000265e+00 1.053888500000000050e+01 2.334710000000000036e+03
4.599999999999999922e-02 1.704064999999999885e-01 -7.368064999999999642e+00 3.366620000000000168e+00 2.332510000000000218e+03
4.700000000000000011e-02 1.702150000000000052e-01 -9.595925000000001148e+00 -2.211049999999999738e+00 2.330639999999999873e+03
4.800000000000000100e-02 1.700665000000000093e-01 -1.117980000000000018e+01 -5.941444999999999865e+00 2.329180000000000291e+03
4.900000000000000189e-02 1.699694999999999956e-01 -1.201425000000000054e+01 -7.607860000000000511e+00 2.328204999999999927e+03
5.000000000000000278e-02 1.699299999999999977e-01 -1.202469999999999928e+01 -7.052019999999999733e+00 2.327775000000000091e+03
5.100000000000000366e-02 1.699515000000000053e-01 -1.117997000000000085e+01 -4.214609999999999523e+00 2.327935000000000400e+03
5.200000000000000455e-02 1.700355000000000061e-01 -9.502795000000000769e+00 8.260850000000001803e-01 2.328684999999999945e+03
5.300000000000000544e-02 1.701774999999999816e-01 -7.072775000000000034e+00 7.834425999999999668e+00 2.330000000000000000e+03
5.399999999999999939e-02 1.703715000000000090e-01 -4.020564999999999500e+00 1.642821999999999960e+01 2.331819999999999709e+03
5.500000000000000028e-02 1.706060000000000076e-01 -5.133799999999997254e-01 2.611899999999999977e+01 2.334050000000000182e+03
5.600000000000000117e-02 1.708685000000000065e-01 3.263435000000000308e+00 3.637205000000000155e+01 2.336559999999999945e+03
5.700000000000000205e-02 1.711449999999999916e-01 7.125180999999999543e+00 4.666799999999999926e+01 2.339225000000000364e+03
5.800000000000000294e-02 1.714225000000000054e-01 1.090254999999999974e+01 5.655285000000000650e+01 2.341920000000000073e+03
5.900000000000000383e-02 1.716904999999999959e-01 1.445118499999999884e+01 6.566665000000000418e+01 2.344534999999999854e+03
6.000000000000000472e-02 1.719384999999999941e-01 1.765650000000000119e+01 7.375284999999999513e+01 2.346970000000000255e+03
6.099999999999999867e-02 1.721604999999999941e-01 2.043564999999999898e+01 8.065460000000000207e+01 2.349164999999999964e+03
6.199999999999999956e-02 1.723525000000000196e-01 2.273895000000000266e+01 8.630734999999999957e+01 2.351069999999999709e+03
6.300000000000000044e-02 1.725119999999999987e-01 2.455049999999999955e+01 9.073284999999999911e+01 2.352670000000000073e+03
6.400000000000000133e-02 1.726409999999999889e-01 2.588905000000000101e+01 9.403560000000000230e+01 2.353965000000000146e+03
6.500000000000000222e-02 1.727409999999999779e-01 2.680669999999999931e+01 9.639789999999999281e+01 2.354985000000000127e+03
6.600000000000000311e-02 1.728164999999999840e-01 2.738560000000000016e+01 9.807095000000001050e+01 2.355769999999999982e+03
6.700000000000000400e-02 1.728764999999999885e-01 2.773114999999999952e+01 9.935965000000000202e+01 2.356385000000000218e+03
6.800000000000000488e-02 1.729275000000000118e-01 2.796260000000000190e+01 1.005937500000000000e+02 2.356914999999999964e+03
6.900000000000000577e-02 1.729785000000000073e-01 2.820199999999999818e+01 1.021009999999999991e+02 2.357430000000000291e+03
7.000000000000000666e-02 1.730379999999999974e-01 2.856179999999999808e+01 1.041724999999999994e+02 2.358029999999999745e+03
7.100000000000000755e-02 1.731125000000000025e-01 2.913414999999999822e+01 1.070319999999999965e+02 2.358760000000000218e+03
7.200000000000000844e-02 1.732080000000000009e-01 2.998214999999999719e+01 1.108149999999999977e+02 2.359699999999999818e+03
7.300000000000000933e-02 1.733270000000000088e-01 3.113404999999999845e+01 1.155540000000000020e+02 2.360860000000000127e+03
7.399999999999999634e-02 1.734694999999999987e-01 3.258169999999999789e+01 1.211749999999999972e+02 2.362255000000000109e+03
7.499999999999999722e-02 1.736334999999999962e-01 3.428249999999999886e+01 1.275099999999999909e+02 2.363864999999999782e+03
7.599999999999999811e-02 1.738149999999999973e-01 3.616504999999999370e+01 1.343154999999999859e+02 2.365644999999999982e+03
7.699999999999999900e-02 1.740059999999999940e-01 3.813719999999999999e+01 1.412975000000000136e+02 2.367525000000000091e+03
7.799999999999999989e-02 1.742000000000000215e-01 4.009510000000000218e+01 1.481419999999999959e+02 2.369444999999999709e+03
7.900000000000000078e-02 1.743879999999999875e-01 4.193290000000000362e+01 1.545434999999999945e+02 2.371315000000000055e+03
8.000000000000000167e-02 1.745630000000000237e-01 4.355150000000000432e+01 1.602300000000000182e+02 2.373065000000000055e+03
8.100000000000000255e-02 1.747179999999999844e-01 4.486584999999999468e+01 1.649800000000000182e+02 2.374625000000000000e+03
8.200000000000000344e-02 1.748474999999999890e-01 4.581074999999999875e+01 1.686390000000000100e+02 2.375930000000000291e+03
8.300000000000000433e-02 1.749475000000000058e-01 4.634440000000000026e+01 1.711220000000000141e+02 2.376949999999999818e+03
8.400000000000000522e-02 1.750160000000000049e-01 4.645060000000000144e+01 1.724180000000000064e+02 2.377664999999999964e+03
8.500000000000000611e-02 1.750530000000000141e-01 4.613790000000000191e+01 1.725825000000000102e+02 2.378065000000000055e+03
8.600000000000000699e-02 1.750605000000000078e-01 4.543840000000000146e+01 1.717309999999999945e+02 2.378170000000000073e+03
8.700000000000000788e-02 1.750410000000000021e-01 4.440364999999999895e+01 1.700235000000000127e+02 2.378000000000000000e+03
8.800000000000000877e-02 1.749990000000000157e-01 4.310075000000000500e+01 1.676570000000000107e+02 2.377609999999999673e+03
8.899999999999999578e-02 1.749400000000000122e-01 4.160679999999999978e+01 1.648445000000000107e+02 2.377034999999999854e+03
8.999999999999999667e-02 1.748684999999999823e-01 4.000384999999999991e+01 1.618045000000000186e+02 2.376340000000000146e+03
9.099999999999999756e-02 1.747910000000000019e-01 3.837344999999999828e+01 1.587470000000000141e+02 2.375579999999999927e+03
9.199999999999999845e-02 1.747130000000000072e-01 3.679210000000000491e+01 1.558625000000000114e+02 2.374804999999999836e+03
9.299999999999999933e-02 1.746389999999999887e-01 3.532690000000000197e+01 1.533129999999999882e+02 2.374069999999999709e+03
9.400000000000000022e-02 1.745740000000000069e-01 3.403224999999999767e+01 1.512239999999999895e+02 2.373414999999999964e+03
9.500000000000000111e-02 1.745205000000000228e-01 3.294695000000000107e+01 1.496790000000000020e+02 2.372869999999999891e+03
9.600000000000000200e-02 1.744804999999999828e-01 3.209284999999999854e+01 1.487164999999999964e+02 2.372460000000000036e+03
9.700000000000000289e-02 1.744554999999999856e-01 3.147404999999999831e+01 1.483285000000000196e+02 2.372199999999999818e+03
9.800000000000000377e-02 1.744450000000000167e-01 3.107764999999999844e+01 1.484660000000000082e+02 2.372074999999999818e+03
9.900000000000000466e-02 1.744475000000000053e-01 3.087510000000000332e+01 1.490380000000000109e+02 2.372090000000000146e+03
1.000000000000000056e-01 1.744610000000000050e-01 3.082509999999999906e+01 1.499240000000000066e+02 2.372204999999999927e+03
1.010000000000000064e-01 1.744819999999999982e-01 3.087660000000000338e+01 1.509809999999999945e+02 2.372404999999999745e+03
1.020000000000000073e-01 1.745069999999999955e-01 3.097279999999999944e+01 1.520529999999999973e+02 2.372635000000000218e+03
1.030000000000000082e-01 1.745309999999999917e-01 3.105525000000000091e+01 1.529865000000000066e+02 2.372875000000000000e+03
1.040000000000000091e-01 1.745514999999999983e-01 3.106790000000000163e+01 1.536345000000000027e+02 2.373074999999999818e+03
1.050000000000000100e-01 1.745634999999999826e-01 3.096099999999999852e+01 1.538740000000000236e+02 2.373195000000000164e+03
1.059999999999999970e-01 1.745650000000000257e-01 3.069460000000000122e+01 1.536094999999999970e+02 2.373210000000000036e+03
1.069999999999999979e-01 1.745524999999999993e-01 3.024105000000000132e+01 1.527810000000000059e+02 2.373095000000000255e+03
1.079999999999999988e-01 1.745249999999999857e-01 2.958695000000000164e+01 1.513695000000000164e+02 2.372835000000000036e+03
1.089999999999999997e-01 1.744824999999999848e-01 2.873389999999999844e+01 1.493954999999999984e+02 2.372425000000000182e+03
1.100000000000000006e-01 1.744255000000000111e-01 2.769819999999999993e+01 1.469189999999999827e+02 2.371869999999999891e+03
1.110000000000000014e-01 1.743554999999999966e-01 2.650934999999999775e+01 1.440355000000000132e+02 2.371184999999999945e+03
1.120000000000000023e-01 1.742750000000000132e-01 2.520779999999999887e+01 1.408654999999999973e+02 2.370394999999999982e+03
1.130000000000000032e-01 1.741874999999999951e-01 2.384205000000000041e+01 1.375475000000000136e+02 2.369534999999999854e+03
1.140000000000000041e-01 1.740970000000000018e-01 2.246515000000000128e+01 1.342300000000000182e+02 2.368640000000000327e+03
1.150000000000000050e-01 1.740065000000000084e-01 2.113100000000000023e+01 1.310585000000000093e+02 2.367744999999999891e+03
1.160000000000000059e-01 1.739204999999999779e-01 1.989095000000000013e+01 1.281684999999999945e+02 2.366890000000000327e+03
1.170000000000000068e-01 1.738425000000000109e-01 1.879054999999999964e+01 1.256759999999999877e+02 2.366105000000000018e+03
1.180000000000000077e-01 1.737750000000000128e-01 1.786680000000000135e+01 1.236719999999999970e+02 2.365434999999999945e+03
1.190000000000000085e-01 1.737204999999999999e-01 1.714614999999999867e+01 1.222164999999999964e+02 2.364880000000000109e+03
1.200000000000000094e-01 1.736810000000000020e-01 1.664314999999999856e+01 1.213375000000000057e+02 2.364475000000000364e+03
1.209999999999999964e-01 1.736564999999999914e-01 1.636015000000000086e+01 1.210294999999999987e+02 2.364220000000000255e+03
1.219999999999999973e-01 1.736475000000000102e-01 1.628764999999999930e+01 1.212560000000000002e+02 2.364114999999999782e+03
1.229999999999999982e-01 1.736520000000000008e-01 1.640514999999999901e+01 1.219525000000000006e+02 2.364144999999999982e+03
1.239999999999999991e-01 1.736690000000000178e-01 1.668319999999999936e+01 1.230335000000000036e+02 2.364300000000000182e+03
1.250000000000000000e-01 1.736965000000000037e-01 1.708555000000000135e+01 1.243970000000000056e+02 2.364559999999999945e+03
1.260000000000000009e-01 1.737314999999999832e-01 1.757144999999999868e+01 1.259320000000000022e+02 2.364889999999999873e+03
1.270000000000000018e-01 1.737710000000000088e-01 1.809839999999999804e+01 1.275270000000000010e+02 2.365275000000000091e+03
1.280000000000000027e-01 1.738115000000000077e-01 1.862465000000000259e+01 1.290730000000000075e+02 2.365675000000000182e+03
1.290000000000000036e-01 1.738514999999999922e-01 1.911155000000000115e+01 1.304739999999999895e+02 2.366064999999999600e+03
1.300000000000000044e-01 1.738870000000000138e-01 1.952544999999999931e+01 1.316490000000000009e+02 2.366420000000000073e+03
1.310000000000000053e-01 1.739169999999999883e-01 1.983970000000000056e+01 1.325370000000000061e+02 2.366720000000000255e+03
1.320000000000000062e-01 1.739394999999999969e-01 2.003535000000000110e+01 1.330980000000000132e+02 2.366949999999999818e+03
1.330000000000000071e-01 1.739534999999999831e-01 2.010200000000000031e+01 1.333145000000000095e+02 2.367100000000000364e+03
1.340000000000000080e-01 1.739585000000000159e-01 2.003819999999999979e+01 1.331935000000000002e+02 2.367154999999999745e+03
1.350000000000000089e-01 1.739545000000000119e-01 1.985069999999999979e+01 1.327615000000000123e+02 2.367130000000000109e+03
1.360000000000000098e-01 1.739435000000000009e-01 1.955349999999999966e+01 1.320634999999999764e+02 2.367019999999999982e+03
1.370000000000000107e-01 1.739244999999999819e-01 1.916689999999999827e+01 1.311595000000000084e+02 2.366845000000000255e+03
1.380000000000000115e-01 1.739010000000000000e-01 1.871560000000000201e+01 1.301165000000000020e+02 2.366619999999999891e+03
1.390000000000000124e-01 1.738740000000000008e-01 1.822684999999999889e+01 1.290095000000000027e+02 2.366355000000000018e+03
1.400000000000000133e-01 1.738445000000000129e-01 1.772869999999999990e+01 1.279119999999999919e+02 2.366074999999999818e+03
1.410000000000000142e-01 1.738165000000000127e-01 1.724804999999999922e+01 1.268905000000000030e+02 2.365789999999999964e+03
1.420000000000000151e-01 1.737900000000000000e-01 1.680880000000000152e+01 1.260039999999999907e+02 2.365525000000000091e+03
1.430000000000000160e-01 1.737674999999999914e-01 1.643094999999999928e+01 1.252985000000000042e+02 2.365305000000000291e+03
1.440000000000000169e-01 1.737489999999999868e-01 1.612910000000000110e+01 1.248060000000000116e+02 2.365114999999999782e+03
1.450000000000000178e-01 1.737365000000000159e-01 1.591199999999999903e+01 1.245409999999999968e+02 2.364989999999999782e+03
1.459999999999999909e-01 1.737299999999999955e-01 1.578250000000000064e+01 1.245035000000000025e+02 2.364920000000000073e+03
1.469999999999999918e-01 1.737294999999999812e-01 1.573734999999999928e+01 1.246775000000000091e+02 2.364904999999999745e+03
1.479999999999999927e-01 1.737334999999999852e-01 1.576810000000000045e+01 1.250335000000000036e+02 2.364945000000000164e+03
1.489999999999999936e-01 1.737429999999999808e-01 1.586165000000000092e+01 1.255324999999999989e+02 2.365029999999999745e+03
1.499999999999999944e-01 1.737559999999999938e-01 1.600145000000000195e+01 1.261260000000000048e+02 2.365154999999999745e+03
1.509999999999999953e-01 1.737714999999999954e-01 1.616875000000000284e+01 1.267634999999999934e+02 2.365300000000000182e+03
1.519999999999999962e-01 1.737875000000000114e-01 1.634384999999999977e+01 1.273909999999999911e+02 2.365454999999999927e+03
1.529999999999999971e-01 1.738034999999999997e-01 1.650744999999999862e+01 1.279594999999999914e+02 2.365614999999999782e+03
1.539999999999999980e-01 1.738175000000000137e-01 1.664229999999999876e+01 1.284244999999999948e+02 2.365755000000000109e+03
1.549999999999999989e-01 1.738290000000000113e-01 1.673355000000000103e+01 1.287514999999999930e+02 2.365869999999999891e+03
1.559999999999999998e-01 1.738365000000000049e-01 1.677035000000000053e+01 1.289170000000000016e+02 2.365949999999999818e+03
1.570000000000000007e-01 1.738399999999999945e-01 1.674615000000000009e+01 1.289080000000000155e+02 2.365985000000000127e+03
1.580000000000000016e-01 1.738389999999999935e-01 1.665899999999999892e+01 1.287255000000000109e+02 2.365974999999999909e+03
1.590000000000000024e-01 1.738334999999999742e-01 1.651149999999999807e+01 1.283824999999999932e+02 2.365930000000000291e+03
