# t [s], A [cm^2], U [cm/s], P [cPa], c [cm/s]
1.000000000000000021e-03 1.776810000000000056e-01 2.968335000000000279e-01 1.037655000000000030e+02 2.113045000000000073e+03
2.000000000000000042e-03 1.776395000000000057e-01 1.831626500000000046e+00 1.004047999999999945e+02 2.112644999999999982e+03
3.000000000000000062e-03 1.775174999999999947e-01 3.737746000000000013e+00 9.577989999999999782e+01 2.111524999999999636e+03
4.000000000000000083e-03 1.773460000000000036e-01 5.880468500000000098e+00 9.068610000000001037e+01 2.109980000000000018e+03
5.000000000000000104e-03 1.771574999999999955e-01 8.186434999999999462e+00 8.603600000000000136e+01 2.108300000000000182e+03
6.000000000000000125e-03 1.769735000000000058e-01 1.048831000000000024e+01 8.217589999999999861e+01 2.106670000000000073e+03
7.000000000000000146e-03 1.768000000000000127e-01 1.257417000000000051e+01 7.890080000000000382e+01 2.105170000000000073e+03
8.000000000000000167e-03 1.766395000000000048e-01 1.434748499999999893e+01 7.596860000000000923e+01 2.103800000000000182e+03
9.000000000000001055e-03 1.764970000000000150e-01 1.583404999999999951e+01 7.340579999999999927e+01 2.102600000000000364e+03
1.000000000000000194e-02 1.763750000000000040e-01 1.706994999999999862e+01 7.129449999999999932e+01 2.101590000000000146e+03
1.099999999999999936e-02 1.762745000000000006e-01 1.807164999999999822e+01 6.962434999999999263e+01 2.100760000000000218e+03
1.200000000000000025e-02 1.761939999999999895e-01 1.884955000000000069e+01 6.832885000000000275e+01 2.100105000000000018e+03
1.300000000000000114e-02 1.761285000000000212e-01 1.940514999999999901e+01 6.729795000000000016e+01 2.099590000000000146e+03
1.400000000000000203e-02 1.760760000000000103e-01 1.974779999999999802e+01 6.640860000000000696e+01 2.099175000000000182e+03
1.499999999999999944e-02 1.760319999999999940e-01 1.993650000000000233e+01 6.564679999999999893e+01 2.098840000000000146e+03
1.600000000000000033e-02 1.760010000000000185e-01 2.009410000000000096e+01 6.520480000000000587e+01 2.098610000000000127e+03
1.700000000000000122e-02 1.759899999999999798e-01 2.036374999999999957e+01 6.541450000000000387e+01 2.098534999999999854e+03
1.800000000000000211e-02 1.760069999999999968e-01 2.083735000000000070e+01 6.654544999999998822e+01 2.098685000000000400e+03
1.900000000000000300e-02 1.760539999999999883e-01 2.150789999999999935e+01 6.861469999999999914e+01 2.099079999999999927e+03
2.000000000000000042e-02 1.761270000000000058e-01 2.227254999999999896e+01 7.133010000000000161e+01 2.099689999999999600e+03
2.100000000000000130e-02 1.762134999999999951e-01 2.297744999999999749e+01 7.418575000000001296e+01 2.100414999999999964e+03
2.200000000000000219e-02 1.762989999999999835e-01 2.347814999999999941e+01 7.664350000000000307e+01 2.101149999999999636e+03
2.299999999999999961e-02 1.763710000000000000e-01 2.368710000000000093e+01 7.831024999999999636e+01 2.101769999999999982e+03
2.400000000000000050e-02 1.764204999999999801e-01 2.359445000000000192e+01 7.904319999999999879e+01 2.102215000000000146e+03
2.500000000000000139e-02 1.764459999999999917e-01 2.325719999999999743e+01 7.895350000000000534e+01 2.102449999999999818e+03
2.600000000000000228e-02 1.764515000000000111e-01 2.276784999999999926e+01 7.832335000000000491e+01 2.102519999999999982e+03
2.700000000000000316e-02 1.764435000000000031e-01 2.221629999999999683e+01 7.747939999999999827e+01 2.102465000000000146e+03
2.800000000000000058e-02 1.764295000000000169e-01 2.166035000000000110e+01 7.667499999999999716e+01 2.102354999999999563e+03
2.900000000000000147e-02 1.764140000000000152e-01 2.111379999999999768e+01 7.602185000000000059e+01 2.102230000000000018e+03
3.000000000000000236e-02 1.763990000000000002e-01 2.055259999999999820e+01 7.548464999999998781e+01 2.102105000000000018e+03
3.099999999999999978e-02 1.763819999999999832e-01 1.993459999999999965e+01 7.493020000000001346e+01 2.101969999999999800e+03
3.200000000000000067e-02 1.763615000000000044e-01 1.922315000000000040e+01 7.420484999999999332e+01 2.101795000000000073e+03
3.300000000000000155e-02 1.763330000000000175e-01 1.840824999999999889e+01 7.321180000000001087e+01 2.101565000000000055e+03
3.400000000000000244e-02 1.762960000000000083e-01 1.751705000000000112e+01 7.196394999999999698e+01 2.101265000000000327e+03
3.500000000000000333e-02 1.762539999999999940e-01 1.661224999999999952e+01 7.059579999999999700e+01 2.100914999999999964e+03
3.600000000000000422e-02 1.762110000000000065e-01 1.577789999999999893e+01 6.933320000000000505e+01 2.100560000000000400e+03
3.700000000000000511e-02 1.761739999999999973e-01 1.509864999999999924e+01 6.843184999999999718e+01 2.100250000000000000e+03
3.799999999999999906e-02 1.761510000000000020e-01 1.463780000000000037e+01 6.810525000000001228e+01 2.100050000000000182e+03
3.899999999999999994e-02 1.761459999999999970e-01 1.442220000000000013e+01 6.846529999999999916e+01 2.099989999999999782e+03
4.000000000000000083e-02 1.761619999999999853e-01 1.443574999999999875e+01 6.949125000000000796e+01 2.100105000000000018e+03
4.100000000000000172e-02 1.761959999999999915e-01 1.462450000000000117e+01 7.103434999999998922e+01 2.100375000000000000e+03
4.200000000000000261e-02 1.762440000000000118e-01 1.490835000000000043e+01 7.285085000000000832e+01 2.100760000000000218e+03
4.300000000000000350e-02 1.762984999999999969e-01 1.519679999999999964e+01 7.465335000000000321e+01 2.101210000000000036e+03
4.400000000000000439e-02 1.763510000000000078e-01 1.540470000000000006e+01 7.616434999999999889e+01 2.101649999999999636e+03
4.499999999999999833e-02 1.763939999999999952e-01 1.546359999999999957e+01 7.716065000000000396e+01 2.102014999999999873e+03
4.599999999999999922e-02 1.764215000000000089e-01 1.532880000000000109e+01 7.750090000000000146e+01 2.102250000000000000e+03
4.700000000000000011e-02 1.764290000000000025e-01 1.498060000000000080e+01 7.713290000000000646e+01 2.102320000000000164e+03
4.800000000000000100e-02 1.764149999999999885e-01 1.442089999999999961e+01 7.608429999999999893e+01 2.102220000000000255e+03
4.900000000000000189e-02 1.763804999999999956e-01 1.366809999999999903e+01 7.444140000000000157e+01 2.101940000000000055e+03
5.000000000000000278e-02 1.763270000000000115e-01 1.275035000000000096e+01 7.232384999999999309e+01 2.101500000000000000e+03
5.100000000000000366e-02 1.762575000000000114e-01 1.170037999999999911e+01 6.986175000000000068e+01 2.100929999999999836e+03
5.200000000000000455e-02 1.761770000000000003e-01 1.055198999999999998e+01 6.717879999999999541e+01 2.100255000000000109e+03
5.300000000000000544e-02 1.760875000000000079e-01 9.338374999999999204e+00 6.438460000000000605e+01 2.099510000000000218e+03
5.399999999999999939e-02 1.759930000000000105e-01 8.092515000000000569e+00 6.157374999999999687e+01 2.098725000000000364e+03
5.500000000000000028e-02 1.758965000000000112e-01 6.848150000000000404e+00 5.883034999999999570e+01 2.097914999999999964e+03
5.600000000000000117e-02 1.758014999999999994e-01 5.640789999999999971e+00 5.623439999999999372e+01 2.097119999999999891e+03
5.700000000000000205e-02 1.757104999999999917e-01 4.508630000000000138e+00 5.386759999999999593e+01 2.096355000000000018e+03
5.800000000000000294e-02 1.756270000000000053e-01 3.492073500000000053e+00 5.181615000000000038e+01 2.095650000000000091e+03
5.900000000000000383e-02 1.755545000000000022e-01 2.632601000000000191e+00 5.017014999999999958e+01 2.095029999999999745e+03
6.000000000000000472e-02 1.754954999999999987e-01 1.970596999999999932e+00 4.901975000000000193e+01 2.094529999999999745e+03
6.099999999999999867e-02 1.754539999999999988e-01 1.542756000000000016e+00 4.844835000000000491e+01 2.094164999999999964e+03
6.199999999999999956e-02 1.754320000000000046e-01 1.379399999999999959e+00 4.852559999999999718e+01 2.093965000000000146e+03
6.300000000000000044e-02 1.754320000000000046e-01 1.502129999999999965e+00 4.930010000000000048e+01 2.093944999999999709e+03
6.400000000000000133e-02 1.754565000000000152e-01 1.922159999999999869e+00 5.079449999999999932e+01 2.094130000000000109e+03
6.500000000000000222e-02 1.755050000000000221e-01 2.639510000000000467e+00 5.300230000000000530e+01 2.094519999999999982e+03
6.600000000000000311e-02 1.755784999999999985e-01 3.643075000000000063e+00 5.588839999999999719e+01 2.095110000000000127e+03
6.700000000000000400e-02 1.756749999999999978e-01 4.911509999999999820e+00 5.939139999999999731e+01 2.095900000000000091e+03
6.800000000000000488e-02 1.757934999999999914e-01 6.414820000000000633e+00 6.342844999999999800e+01 2.096875000000000000e+03
6.900000000000000577e-02 1.759304999999999897e-01 8.116419999999999746e+00 6.790135000000000787e+01 2.098005000000000109e+03
7.000000000000000666e-02 1.760829999999999895e-01 9.975329999999999586e+00 7.270355000000000700e+01 2.099274999999999636e+03
7.100000000000000755e-02 1.762485000000000024e-01 1.194876000000000005e+01 7.772714999999999463e+01 2.100650000000000091e+03
7.200000000000000844e-02 1.764220000000000232e-01 1.399441500000000005e+01 8.286945000000000050e+01 2.102105000000000018e+03
7.300000000000000933e-02 1.766014999999999946e-01 1.607244999999999990e+01 8.803860000000000241e+01 2.103619999999999891e+03
7.399999999999999634e-02 1.767835000000000101e-01 1.814744999999999919e+01 9.315819999999999368e+01 2.105154999999999745e+03
7.499999999999999722e-02 1.769649999999999834e-01 2.018965000000000032e+01 9.817025000000001000e+01 2.106695000000000164e+03
7.599999999999999811e-02 1.771449999999999969e-01 2.217555000000000121e+01 1.030361499999999921e+02 2.108220000000000255e+03
7.699999999999999900e-02 1.773210000000000064e-01 2.408820000000000050e+01 1.077349999999999994e+02 2.109720000000000255e+03
7.799999999999999989e-02 1.774930000000000119e-01 2.591665000000000063e+01 1.122630000000000052e+02 2.111189999999999600e+03
7.900000000000000078e-02 1.776599999999999846e-01 2.765545000000000186e+01 1.166299999999999955e+02 2.112619999999999891e+03
8.000000000000000167e-02 1.778224999999999945e-01 2.930319999999999681e+01 1.208530000000000086e+02 2.114010000000000218e+03
8.100000000000000255e-02 1.779810000000000003e-01 3.086145000000000138e+01 1.249550000000000125e+02 2.115375000000000000e+03
8.200000000000000344e-02 1.781355000000000022e-01 3.233339999999999748e+01 1.289579999999999984e+02 2.116704999999999927e+03
8.300000000000000433e-02 1.782864999999999867e-01 3.372290000000000276e+01 1.328815000000000168e+02 2.118015000000000327e+03
8.400000000000000522e-02 1.784350000000000103e-01 3.503325000000000244e+01 1.367389999999999759e+02 2.119300000000000182e+03
8.500000000000000611e-02 1.785815000000000041e-01 3.626685000000000514e+01 1.405360000000000014e+02 2.120559999999999945e+03
8.600000000000000699e-02 1.787249999999999950e-01 3.742464999999999975e+01 1.442724999999999795e+02 2.121804999999999836e+03
8.700000000000000788e-02 1.788664999999999838e-01 3.850594999999999857e+01 1.479389999999999930e+02 2.123029999999999745e+03
8.800000000000000877e-02 1.790049999999999975e-01 3.950835000000000008e+01 1.515204999999999984e+02 2.124235000000000127e+03
8.899999999999999578e-02 1.791404999999999803e-01 4.042820000000000391e+01 1.549970000000000141e+02 2.125409999999999854e+03
8.999999999999999667e-02 1.792719999999999869e-01 4.126050000000000040e+01 1.583449999999999989e+02 2.126554999999999836e+03
9.099999999999999756e-02 1.793984999999999885e-01 4.199960000000000093e+01 1.615384999999999991e+02 2.127659999999999854e+03
9.199999999999999845e-02 1.795200000000000129e-01 4.263899999999999579e+01 1.645509999999999877e+02 2.128715000000000146e+03
9.299999999999999933e-02 1.796344999999999748e-01 4.317220000000000368e+01 1.673555000000000064e+02 2.129719999999999800e+03
9.400000000000000022e-02 1.797414999999999985e-01 4.359270000000000067e+01 1.699279999999999973e+02 2.130659999999999854e+03
9.500000000000000111e-02 1.798405000000000142e-01 4.389464999999999861e+01 1.722459999999999809e+02 2.131525000000000091e+03
9.600000000000000200e-02 1.799300000000000066e-01 4.407290000000000418e+01 1.742894999999999754e+02 2.132309999999999945e+03
9.700000000000000289e-02 1.800105000000000177e-01 4.412369999999999948e+01 1.760430000000000064e+02 2.133014999999999873e+03
9.800000000000000377e-02 1.800800000000000178e-01 4.404480000000000217e+01 1.774970000000000141e+02 2.133635000000000218e+03
9.900000000000000466e-02 1.801389999999999936e-01 4.383610000000000184e+01 1.786449999999999818e+02 2.134159999999999854e+03
1.000000000000000056e-01 1.801869999999999861e-01 4.349940000000000140e+01 1.794889999999999759e+02 2.134590000000000146e+03
1.010000000000000064e-01 1.802245000000000097e-01 4.303929999999999723e+01 1.800360000000000014e+02 2.134930000000000291e+03
1.020000000000000073e-01 1.802509999999999946e-01 4.246255000000000024e+01 1.803000000000000114e+02 2.135170000000000073e+03
1.030000000000000082e-01 1.802674999999999972e-01 4.177844999999999942e+01 1.803015000000000043e+02 2.135324999999999818e+03
1.040000000000000091e-01 1.802739999999999898e-01 4.099830000000000041e+01 1.800649999999999977e+02 2.135400000000000091e+03
1.050000000000000100e-01 1.802730000000000166e-01 4.013530000000000086e+01 1.796215000000000259e+02 2.135390000000000327e+03
1.059999999999999970e-01 1.802635000000000209e-01 3.920380000000000109e+01 1.790040000000000191e+02 2.135319999999999709e+03
1.069999999999999979e-01 1.802475000000000049e-01 3.821909999999999741e+01 1.782460000000000093e+02 2.135190000000000055e+03
1.079999999999999988e-01 1.802259999999999973e-01 3.719639999999999702e+01 1.773824999999999932e+02 2.135010000000000218e+03
1.089999999999999997e-01 1.801999999999999991e-01 3.615075000000000216e+01 1.764474999999999909e+02 2.134789999999999964e+03
1.100000000000000006e-01 1.801709999999999978e-01 3.509619999999999607e+01 1.754705000000000155e+02 2.134539999999999964e+03
1.110000000000000014e-01 1.801399999999999946e-01 3.404534999999999911e+01 1.744789999999999850e+02 2.134275000000000091e+03
1.120000000000000023e-01 1.801074999999999759e-01 3.300914999999999822e+01 1.734934999999999832e+02 2.134000000000000000e+03
1.130000000000000032e-01 1.800744999999999985e-01 3.199650000000000105e+01 1.725319999999999823e+02 2.133710000000000036e+03
1.140000000000000041e-01 1.800424999999999942e-01 3.101385000000000147e+01 1.716039999999999850e+02 2.133429999999999836e+03
1.150000000000000050e-01 1.800100000000000033e-01 3.006560000000000343e+01 1.707164999999999964e+02 2.133149999999999636e+03
1.160000000000000059e-01 1.799790000000000001e-01 2.915364999999999895e+01 1.698684999999999832e+02 2.132875000000000000e+03
1.170000000000000068e-01 1.799485000000000112e-01 2.827765000000000128e+01 1.690554999999999950e+02 2.132605000000000018e+03
1.180000000000000077e-01 1.799184999999999812e-01 2.743529999999999802e+01 1.682674999999999841e+02 2.132349999999999909e+03
1.190000000000000085e-01 1.798894999999999800e-01 2.662249999999999872e+01 1.674919999999999902e+02 2.132090000000000146e+03
1.200000000000000094e-01 1.798609999999999931e-01 2.583375000000000199e+01 1.667135000000000105e+02 2.131835000000000036e+03
1.209999999999999964e-01 1.798315000000000052e-01 2.506244999999999834e+01 1.659139999999999873e+02 2.131579999999999927e+03
1.219999999999999973e-01 1.798009999999999886e-01 2.430134999999999934e+01 1.650755000000000052e+02 2.131309999999999945e+03
1.229999999999999982e-01 1.797690000000000121e-01 2.354315000000000069e+01 1.641800000000000068e+02 2.131034999999999854e+03
1.239999999999999991e-01 1.797354999999999925e-01 2.278059999999999974e+01 1.632110000000000127e+02 2.130739999999999782e+03
1.250000000000000000e-01 1.796995000000000120e-01 2.200730000000000075e+01 1.621550000000000011e+02 2.130425000000000182e+03
1.260000000000000009e-01 1.796599999999999864e-01 2.121784999999999854e+01 1.610009999999999764e+02 2.130085000000000036e+03
1.270000000000000018e-01 1.796169999999999989e-01 2.040825000000000244e+01 1.597420000000000186e+02 2.129715000000000146e+03
1.280000000000000027e-01 1.795709999999999806e-01 1.957625000000000171e+01 1.583759999999999764e+02 2.129314999999999600e+03
1.290000000000000036e-01 1.795209999999999861e-01 1.872140000000000271e+01 1.569060000000000059e+02 2.128885000000000218e+03
1.300000000000000044e-01 1.794675000000000020e-01 1.784525000000000006e+01 1.553394999999999868e+02 2.128420000000000073e+03
1.310000000000000053e-01 1.794105000000000005e-01 1.695120000000000005e+01 1.536884999999999764e+02 2.127930000000000291e+03
1.320000000000000062e-01 1.793509999999999827e-01 1.604469999999999885e+01 1.519705000000000155e+02 2.127420000000000073e+03
1.330000000000000071e-01 1.792890000000000039e-01 1.513255000000000017e+01 1.502060000000000173e+02 2.126885000000000218e+03
1.340000000000000080e-01 1.792249999999999954e-01 1.422305000000000064e+01 1.484189999999999827e+02 2.126329999999999927e+03
1.350000000000000089e-01 1.791610000000000147e-01 1.332525000000000048e+01 1.466334999999999980e+02 2.125774999999999636e+03
1.360000000000000098e-01 1.790964999999999918e-01 1.244878500000000088e+01 1.448754999999999882e+02 2.125215000000000146e+03
1.370000000000000107e-01 1.790325000000000111e-01 1.160328000000000159e+01 1.431705000000000041e+02 2.124664999999999964e+03
1.380000000000000115e-01 1.789705000000000046e-01 1.079781000000000013e+01 1.415420000000000016e+02 2.124135000000000218e+03
1.390000000000000124e-01 1.789105000000000001e-01 1.004076000000000057e+01 1.400099999999999909e+02 2.123614999999999782e+03
1.400000000000000133e-01 1.788544999999999996e-01 9.339209999999999567e+00 1.385910000000000082e+02 2.123125000000000000e+03
1.410000000000000142e-01 1.788015000000000021e-01 8.698740000000000805e+00 1.372984999999999900e+02 2.122664999999999964e+03
1.420000000000000151e-01 1.787529999999999952e-01 8.123294999999998822e+00 1.361399999999999864e+02 2.122244999999999891e+03
1.430000000000000160e-01 1.787090000000000067e-01 7.615044999999999398e+00 1.351189999999999998e+02 2.121859999999999673e+03
1.440000000000000169e-01 1.786694999999999811e-01 7.174385000000000012e+00 1.342344999999999970e+02 2.121514999999999873e+03
1.450000000000000178e-01 1.786349999999999882e-01 6.800029999999999575e+00 1.334814999999999827e+02 2.121210000000000036e+03
1.459999999999999909e-01 1.786050000000000137e-01 6.489180000000000170e+00 1.328520000000000039e+02 2.120944999999999709e+03
1.469999999999999918e-01 1.785784999999999734e-01 6.237729999999999997e+00 1.323344999999999914e+02 2.120710000000000036e+03
1.479999999999999927e-01 1.785565000000000069e-01 6.040509999999999380e+00 1.319149999999999920e+02 2.120519999999999982e+03
1.489999999999999936e-01 1.785380000000000023e-01 5.891550000000000509e+00 1.315805000000000007e+02 2.120349999999999909e+03
1.499999999999999944e-01 1.785229999999999873e-01 5.784370000000000012e+00 1.313145000000000095e+02 2.120215000000000146e+03
1.509999999999999953e-01 1.785100000000000020e-01 5.712229999999999919e+00 1.311019999999999754e+02 2.120099999999999909e+03
1.519999999999999962e-01 1.784995000000000054e-01 5.668379999999999974e+00 1.309284999999999854e+02 2.120005000000000109e+03
1.529999999999999971e-01 1.784899999999999820e-01 5.646290000000000475e+00 1.307810000000000059e+02 2.119920000000000073e+03
1.539999999999999980e-01 1.784824999999999884e-01 5.639789999999999637e+00 1.306475000000000080e+02 2.119855000000000018e+03
1.549999999999999989e-01 1.784755000000000091e-01 5.643285000000000551e+00 1.305175000000000125e+02 2.119789999999999964e+03
1.559999999999999998e-01 1.784689999999999888e-01 5.651819999999999844e+00 1.303820000000000050e+02 2.119730000000000018e+03
1.570000000000000007e-01 1.784620000000000095e-01 5.661179999999999879e+00 1.302350000000000136e+02 2.119670000000000073e+03
1.580000000000000016e-01 1.784550000000000025e-01 5.667925000000000324e+00 1.300705000000000098e+02 2.119605000000000018e+03
1.590000000000000024e-01 1.784479999999999955e-01 5.669414999999999871e+00 1.298870000000000005e+02 2.119545000000000073e+03
