# t [s], A [cm^2], U [cm/s], P [cPa], c [cm/s]
1.000000000000000021e-03 1.219095000000000040e-01 8.626999999999998558e-02 1.000020999999999987e+02 1.883454999999999927e+03
2.000000000000000042e-03 1.218990000000000073e-01 1.274855000000000071e+00 9.764144999999999186e+01 1.883309999999999945e+03
3.000000000000000062e-03 1.218404999999999905e-01 2.837161000000000044e+00 9.451984999999999104e+01 1.882574999999999818e+03
4.000000000000000083e-03 1.217445000000000055e-01 4.609765999999999586e+00 9.074209999999999354e+01 1.881400000000000091e+03
5.000000000000000104e-03 1.216269999999999990e-01 6.542740499999999848e+00 8.682245000000000346e+01 1.879974999999999909e+03
6.000000000000000125e-03 1.214999999999999969e-01 8.578495000000000203e+00 8.317750000000000909e+01 1.878454999999999927e+03
7.000000000000000146e-03 1.213740000000000097e-01 1.061731999999999942e+01 7.997924999999999329e+01 1.876954999999999927e+03
8.000000000000000167e-03 1.212524999999999992e-01 1.253916500000000056e+01 7.717295000000000016e+01 1.875529999999999973e+03
9.000000000000001055e-03 1.211369999999999947e-01 1.426475499999999919e+01 7.463720000000000709e+01 1.874190000000000055e+03
1.000000000000000194e-02 1.210299999999999987e-01 1.578010000000000090e+01 7.233445000000000391e+01 1.872974999999999909e+03
1.099999999999999936e-02 1.209329999999999850e-01 1.710190000000000055e+01 7.029890000000000327e+01 1.871880000000000109e+03
1.200000000000000025e-02 1.208479999999999971e-01 1.824569999999999936e+01 6.855899999999999750e+01 1.870924999999999955e+03
1.300000000000000114e-02 1.207745000000000068e-01 1.922125000000000128e+01 6.711029999999999518e+01 1.870115000000000009e+03
1.400000000000000203e-02 1.207125000000000004e-01 2.003430000000000177e+01 6.592285000000001105e+01 1.869445000000000164e+03
1.499999999999999944e-02 1.206605000000000039e-01 2.068574999999999875e+01 6.494335000000000946e+01 1.868875000000000000e+03
1.600000000000000033e-02 1.206165000000000154e-01 2.117779999999999774e+01 6.410614999999999952e+01 1.868409999999999854e+03
1.700000000000000122e-02 1.205795000000000061e-01 2.152799999999999869e+01 6.336870000000000402e+01 1.868014999999999873e+03
1.800000000000000211e-02 1.205480000000000024e-01 2.178069999999999951e+01 6.275200000000000244e+01 1.867695000000000164e+03
1.900000000000000300e-02 1.205245000000000066e-01 2.200180000000000291e+01 6.235050000000000381e+01 1.867454999999999927e+03
2.000000000000000042e-02 1.205114999999999936e-01 2.225959999999999894e+01 6.229690000000000083e+01 1.867325000000000045e+03
2.100000000000000130e-02 1.205104999999999926e-01 2.260180000000000078e+01 6.270099999999999341e+01 1.867329999999999927e+03
2.200000000000000219e-02 1.205235000000000056e-01 2.304030000000000200e+01 6.359574999999999534e+01 1.867485000000000127e+03
2.299999999999999961e-02 1.205495000000000039e-01 2.354939999999999856e+01 6.491379999999999484e+01 1.867784999999999854e+03
2.400000000000000050e-02 1.205859999999999987e-01 2.407704999999999984e+01 6.650130000000000052e+01 1.868195000000000164e+03
2.500000000000000139e-02 1.206290000000000001e-01 2.456155000000000044e+01 6.815874999999999773e+01 1.868674999999999955e+03
2.600000000000000228e-02 1.206725000000000020e-01 2.494899999999999807e+01 6.969075000000000841e+01 1.869179999999999836e+03
2.700000000000000316e-02 1.207135000000000014e-01 2.520560000000000045e+01 7.094925000000000637e+01 1.869655000000000200e+03
2.800000000000000058e-02 1.207485000000000086e-01 2.532224999999999682e+01 7.185845000000000482e+01 1.870065000000000055e+03
2.900000000000000147e-02 1.207759999999999945e-01 2.531284999999999741e+01 7.241855000000001041e+01 1.870394999999999982e+03
3.000000000000000236e-02 1.207965000000000011e-01 2.520589999999999975e+01 7.269040000000001100e+01 1.870634999999999991e+03
3.099999999999999978e-02 1.208100000000000007e-01 2.503474999999999895e+01 7.276695000000000846e+01 1.870804999999999836e+03
3.200000000000000067e-02 1.208194999999999963e-01 2.482750000000000057e+01 7.274285000000000423e+01 1.870929999999999836e+03
3.300000000000000155e-02 1.208259999999999890e-01 2.460069999999999979e+01 7.268815000000000737e+01 1.871005000000000109e+03
3.400000000000000244e-02 1.208309999999999940e-01 2.435689999999999955e+01 7.263429999999999609e+01 1.871065000000000055e+03
3.500000000000000333e-02 1.208339999999999970e-01 2.408675000000000210e+01 7.257285000000000252e+01 1.871099999999999909e+03
3.600000000000000422e-02 1.208349999999999980e-01 2.377455000000000140e+01 7.246569999999999823e+01 1.871119999999999891e+03
3.700000000000000511e-02 1.208335000000000103e-01 2.340474999999999994e+01 7.226345000000000596e+01 1.871105000000000018e+03
3.799999999999999906e-02 1.208279999999999910e-01 2.296845000000000070e+01 7.192475000000000307e+01 1.871054999999999836e+03
3.899999999999999994e-02 1.208184999999999953e-01 2.246840000000000259e+01 7.143365000000000009e+01 1.870954999999999927e+03
4.000000000000000083e-02 1.208049999999999957e-01 2.192045000000000243e+01 7.080930000000000746e+01 1.870804999999999836e+03
4.100000000000000172e-02 1.207885000000000070e-01 2.135224999999999795e+01 7.010695000000001187e+01 1.870625000000000000e+03
4.200000000000000261e-02 1.207699999999999885e-01 2.079874999999999829e+01 6.940909999999999513e+01 1.870429999999999836e+03
4.300000000000000350e-02 1.207524999999999987e-01 2.029625000000000057e+01 6.881059999999999377e+01 1.870235000000000127e+03
4.400000000000000439e-02 1.207384999999999986e-01 1.987595000000000312e+01 6.839995000000000402e+01 1.870070000000000164e+03
4.499999999999999833e-02 1.207285000000000025e-01 1.955855000000000032e+01 6.824254999999999427e+01 1.869954999999999927e+03
4.599999999999999922e-02 1.207260000000000000e-01 1.935135000000000005e+01 6.836865000000000236e+01 1.869920000000000073e+03
4.700000000000000011e-02 1.207300000000000040e-01 1.924774999999999991e+01 6.876890000000000214e+01 1.869954999999999927e+03
4.800000000000000100e-02 1.207409999999999872e-01 1.922909999999999897e+01 6.939690000000000225e+01 1.870069999999999936e+03
4.900000000000000189e-02 1.207570000000000032e-01 1.926845000000000141e+01 7.017875000000000796e+01 1.870244999999999891e+03
5.000000000000000278e-02 1.207769999999999955e-01 1.933514999999999873e+01 7.102545000000000641e+01 1.870460000000000036e+03
5.100000000000000366e-02 1.207989999999999897e-01 1.939900000000000091e+01 7.184655000000000769e+01 1.870700000000000045e+03
5.200000000000000455e-02 1.208199999999999968e-01 1.943374999999999986e+01 7.256190000000000850e+01 1.870934999999999945e+03
5.300000000000000544e-02 1.208384999999999876e-01 1.941969999999999885e+01 7.311024999999999352e+01 1.871144999999999982e+03
5.399999999999999939e-02 1.208535000000000026e-01 1.934404999999999930e+01 7.345329999999999870e+01 1.871315000000000055e+03
5.500000000000000028e-02 1.208629999999999982e-01 1.920090000000000074e+01 7.357540000000000191e+01 1.871424999999999955e+03
5.600000000000000117e-02 1.208675000000000027e-01 1.898955000000000126e+01 7.348045000000000471e+01 1.871480000000000018e+03
5.700000000000000205e-02 1.208660000000000012e-01 1.871320000000000050e+01 7.318614999999999782e+01 1.871470000000000027e+03
5.800000000000000294e-02 1.208589999999999942e-01 1.837720000000000198e+01 7.271819999999999595e+01 1.871400000000000091e+03
5.900000000000000383e-02 1.208474999999999966e-01 1.798760000000000048e+01 7.210500000000000398e+01 1.871269999999999982e+03
6.000000000000000472e-02 1.208315000000000083e-01 1.755039999999999978e+01 7.137340000000000373e+01 1.871094999999999800e+03
6.099999999999999867e-02 1.208115000000000022e-01 1.707134999999999891e+01 7.054720000000000368e+01 1.870869999999999891e+03
6.199999999999999956e-02 1.207884999999999931e-01 1.655655000000000143e+01 6.964735000000000298e+01 1.870619999999999891e+03
6.300000000000000044e-02 1.207629999999999953e-01 1.601275000000000048e+01 6.869275000000000375e+01 1.870329999999999927e+03
6.400000000000000133e-02 1.207349999999999951e-01 1.544829999999999970e+01 6.770329999999999870e+01 1.870019999999999982e+03
6.500000000000000222e-02 1.207060000000000077e-01 1.487420000000000009e+01 6.670204999999999984e+01 1.869695000000000164e+03
6.600000000000000311e-02 1.206764999999999921e-01 1.430395000000000039e+01 6.571735000000001037e+01 1.869360000000000127e+03
6.700000000000000400e-02 1.206470000000000042e-01 1.375424999999999898e+01 6.478395000000000437e+01 1.869030000000000200e+03
6.800000000000000488e-02 1.206190000000000040e-01 1.324440000000000062e+01 6.394355000000000189e+01 1.868714999999999918e+03
6.900000000000000577e-02 1.205934999999999924e-01 1.279595000000000127e+01 6.324339999999999407e+01 1.868429999999999836e+03
7.000000000000000666e-02 1.205719999999999986e-01 1.243155000000000143e+01 6.273449999999999704e+01 1.868184999999999945e+03
7.100000000000000755e-02 1.205569999999999975e-01 1.217419999999999902e+01 6.246909999999999741e+01 1.868005000000000109e+03
7.200000000000000844e-02 1.205479999999999885e-01 1.204579999999999984e+01 6.249774999999999636e+01 1.867894999999999982e+03
7.300000000000000933e-02 1.205479999999999885e-01 1.206609999999999872e+01 6.286594999999999800e+01 1.867884999999999991e+03
7.399999999999999634e-02 1.205574999999999980e-01 1.225185000000000102e+01 6.361214999999999975e+01 1.867985000000000127e+03
7.499999999999999722e-02 1.205785000000000051e-01 1.261599999999999966e+01 6.476529999999999632e+01 1.868204999999999927e+03
7.599999999999999811e-02 1.206109999999999960e-01 1.316714999999999947e+01 6.634370000000001255e+01 1.868554999999999836e+03
7.699999999999999900e-02 1.206559999999999855e-01 1.390930000000000000e+01 6.835415000000000418e+01 1.869049999999999955e+03
7.799999999999999989e-02 1.207135000000000014e-01 1.484205000000000041e+01 7.079255000000000564e+01 1.869684999999999945e+03
7.900000000000000078e-02 1.207845000000000030e-01 1.596049999999999969e+01 7.364430000000000121e+01 1.870465000000000146e+03
8.000000000000000167e-02 1.208675000000000027e-01 1.725605000000000189e+01 7.688585000000000491e+01 1.871389999999999873e+03
8.100000000000000255e-02 1.209625000000000006e-01 1.871685000000000088e+01 8.048629999999999995e+01 1.872450000000000045e+03
8.200000000000000344e-02 1.210684999999999956e-01 2.032829999999999870e+01 8.440930000000000177e+01 1.873634999999999991e+03
8.300000000000000433e-02 1.211849999999999872e-01 2.207399999999999807e+01 8.861539999999999395e+01 1.874945000000000164e+03
8.400000000000000522e-02 1.213100000000000012e-01 2.393630000000000280e+01 9.306354999999999222e+01 1.876355000000000018e+03
8.500000000000000611e-02 1.214439999999999964e-01 2.589719999999999800e+01 9.771309999999999718e+01 1.877865000000000009e+03
8.600000000000000699e-02 1.215839999999999976e-01 2.793874999999999886e+01 1.025255999999999972e+02 1.879454999999999927e+03
8.700000000000000788e-02 1.217300000000000049e-01 3.004350000000000165e+01 1.074654999999999916e+02 1.881115000000000009e+03
8.800000000000000877e-02 1.218815000000000037e-01 3.219494999999999862e+01 1.125005000000000024e+02 1.882835000000000036e+03
8.899999999999999578e-02 1.220354999999999912e-01 3.437794999999999845e+01 1.176039999999999992e+02 1.884605000000000018e+03
8.999999999999999667e-02 1.221935000000000104e-01 3.657825000000000415e+01 1.227524999999999977e+02 1.886414999999999964e+03
9.099999999999999756e-02 1.223535000000000039e-01 3.878289999999999793e+01 1.279239999999999924e+02 1.888255000000000109e+03
9.199999999999999845e-02 1.225149999999999989e-01 4.097990000000000066e+01 1.331034999999999968e+02 1.890110000000000127e+03
9.299999999999999933e-02 1.226775000000000088e-01 4.315810000000000457e+01 1.382744999999999891e+02 1.891984999999999900e+03
9.400000000000000022e-02 1.228400000000000047e-01 4.530705000000000382e+01 1.434219999999999970e+02 1.893869999999999891e+03
9.500000000000000111e-02 1.230025000000000007e-01 4.741669999999999874e+01 1.485335000000000036e+02 1.895759999999999991e+03
9.600000000000000200e-02 1.231645000000000101e-01 4.947735000000000127e+01 1.535939999999999941e+02 1.897644999999999982e+03
9.700000000000000289e-02 1.233255000000000046e-01 5.147990000000000066e+01 1.585885000000000105e+02 1.899525000000000091e+03
9.800000000000000377e-02 1.234844999999999970e-01 5.341525000000000034e+01 1.635014999999999930e+02 1.901389999999999873e+03
9.900000000000000466e-02 1.236420000000000019e-01 5.527505000000000024e+01 1.683174999999999955e+02 1.903230000000000018e+03
1.000000000000000056e-01 1.237959999999999894e-01 5.705129999999999768e+01 1.730219999999999914e+02 1.905045000000000073e+03
1.010000000000000064e-01 1.239475000000000021e-01 5.873675000000000068e+01 1.775980000000000132e+02 1.906825000000000045e+03
1.020000000000000073e-01 1.240950000000000109e-01 6.032505000000000450e+01 1.820314999999999941e+02 1.908570000000000164e+03
1.030000000000000082e-01 1.242390000000000022e-01 6.181040000000000134e+01 1.863084999999999809e+02 1.910264999999999873e+03
1.040000000000000091e-01 1.243775000000000019e-01 6.318820000000000192e+01 1.904175000000000182e+02 1.911914999999999964e+03
1.050000000000000100e-01 1.245119999999999977e-01 6.445444999999999425e+01 1.943485000000000014e+02 1.913509999999999991e+03
1.059999999999999970e-01 1.246405000000000152e-01 6.560625000000000284e+01 1.980914999999999964e+02 1.915045000000000073e+03
1.069999999999999979e-01 1.247639999999999860e-01 6.664130000000000109e+01 2.016385000000000218e+02 1.916514999999999873e+03
1.079999999999999988e-01 1.248809999999999920e-01 6.755809999999999604e+01 2.049834999999999923e+02 1.917920000000000073e+03
1.089999999999999997e-01 1.249930000000000069e-01 6.835575000000000045e+01 2.081214999999999975e+02 1.919255000000000109e+03
1.100000000000000006e-01 1.250975000000000004e-01 6.903389999999998849e+01 2.110480000000000018e+02 1.920514999999999873e+03
1.110000000000000014e-01 1.251960000000000017e-01 6.959290000000000020e+01 2.137585000000000264e+02 1.921700000000000045e+03
1.120000000000000023e-01 1.252880000000000105e-01 7.003350000000000364e+01 2.162510000000000048e+02 1.922809999999999945e+03
1.130000000000000032e-01 1.253729999999999845e-01 7.035720000000000596e+01 2.185235000000000127e+02 1.923840000000000146e+03
1.140000000000000041e-01 1.254514999999999936e-01 7.056604999999998995e+01 2.205759999999999934e+02 1.924789999999999964e+03
1.150000000000000050e-01 1.255235000000000101e-01 7.066290000000000759e+01 2.224094999999999800e+02 1.925659999999999854e+03
1.160000000000000059e-01 1.255875000000000186e-01 7.065134999999999366e+01 2.240264999999999986e+02 1.926445000000000164e+03
1.170000000000000068e-01 1.256460000000000077e-01 7.053594999999999970e+01 2.254320000000000164e+02 1.927144999999999982e+03
1.180000000000000077e-01 1.256970000000000032e-01 7.032184999999999775e+01 2.266324999999999932e+02 1.927769999999999982e+03
1.190000000000000085e-01 1.257419999999999927e-01 7.001510000000000389e+01 2.276365000000000123e+02 1.928325000000000045e+03
1.200000000000000094e-01 1.257800000000000029e-01 6.962260000000000559e+01 2.284549999999999841e+02 1.928795000000000073e+03
1.209999999999999964e-01 1.258124999999999938e-01 6.915164999999998940e+01 2.291005000000000109e+02 1.929199999999999818e+03
1.219999999999999973e-01 1.258394999999999930e-01 6.861015000000000441e+01 2.295865000000000009e+02 1.929534999999999854e+03
1.229999999999999982e-01 1.258615000000000150e-01 6.800629999999999598e+01 2.299279999999999973e+02 1.929804999999999836e+03
1.239999999999999991e-01 1.258785000000000043e-01 6.734839999999999804e+01 2.301385000000000218e+02 1.930019999999999982e+03
1.250000000000000000e-01 1.258914999999999895e-01 6.664459999999999695e+01 2.302350000000000136e+02 1.930179999999999836e+03
1.260000000000000009e-01 1.259000000000000119e-01 6.590290000000000248e+01 2.302314999999999827e+02 1.930289999999999964e+03
1.270000000000000018e-01 1.259055000000000035e-01 6.513080000000000780e+01 2.301409999999999911e+02 1.930365000000000009e+03
1.280000000000000027e-01 1.259069999999999911e-01 6.433535000000000537e+01 2.299769999999999754e+02 1.930394999999999982e+03
1.290000000000000036e-01 1.259064999999999768e-01 6.352285000000000537e+01 2.297510000000000048e+02 1.930389999999999873e+03
1.300000000000000044e-01 1.259035000000000015e-01 6.269894999999999641e+01 2.294720000000000084e+02 1.930360000000000127e+03
1.310000000000000053e-01 1.258989999999999831e-01 6.186845000000000283e+01 2.291485000000000127e+02 1.930299999999999955e+03
1.320000000000000062e-01 1.258914999999999895e-01 6.103549999999999898e+01 2.287870000000000061e+02 1.930220000000000027e+03
1.330000000000000071e-01 1.258835000000000093e-01 6.020315000000000794e+01 2.283919999999999959e+02 1.930119999999999891e+03
1.340000000000000080e-01 1.258734999999999993e-01 5.937389999999999901e+01 2.279675000000000011e+02 1.930000000000000000e+03
1.350000000000000089e-01 1.258620000000000017e-01 5.854930000000000234e+01 2.275144999999999982e+02 1.929869999999999891e+03
1.360000000000000098e-01 1.258505000000000040e-01 5.773035000000000139e+01 2.270339999999999918e+02 1.929724999999999909e+03
1.370000000000000107e-01 1.258365000000000178e-01 5.691729999999999734e+01 2.265260000000000105e+02 1.929565000000000055e+03
1.380000000000000115e-01 1.258219999999999894e-01 5.610985000000000156e+01 2.259875000000000114e+02 1.929384999999999991e+03
1.390000000000000124e-01 1.258060000000000012e-01 5.530705000000000382e+01 2.254170000000000016e+02 1.929200000000000045e+03
1.400000000000000133e-01 1.257900000000000129e-01 5.450759999999999650e+01 2.248109999999999786e+02 1.928994999999999891e+03
1.410000000000000142e-01 1.257715000000000083e-01 5.370994999999999919e+01 2.241664999999999850e+02 1.928775000000000091e+03
1.420000000000000151e-01 1.257520000000000027e-01 5.291219999999999857e+01 2.234784999999999968e+02 1.928545000000000073e+03
1.430000000000000160e-01 1.257309999999999817e-01 5.211229999999999762e+01 2.227439999999999998e+02 1.928295000000000073e+03
1.440000000000000169e-01 1.257089999999999874e-01 5.130830000000000268e+01 2.219585000000000150e+02 1.928025000000000091e+03
1.450000000000000178e-01 1.256849999999999912e-01 5.049814999999999543e+01 2.211189999999999998e+02 1.927740000000000009e+03
1.459999999999999909e-01 1.256589999999999929e-01 4.968025000000000091e+01 2.202235000000000014e+02 1.927430000000000064e+03
1.469999999999999918e-01 1.256319999999999937e-01 4.885309999999999775e+01 2.192674999999999841e+02 1.927105000000000018e+03
1.479999999999999927e-01 1.256025000000000058e-01 4.801559999999999917e+01 2.182520000000000095e+02 1.926755000000000109e+03
1.489999999999999936e-01 1.255715000000000026e-01 4.716720000000000113e+01 2.171764999999999759e+02 1.926380000000000109e+03
1.499999999999999944e-01 1.255384999999999973e-01 4.630780000000000030e+01 2.160415000000000134e+02 1.925990000000000009e+03
1.509999999999999953e-01 1.255034999999999901e-01 4.543795000000000073e+01 2.148499999999999943e+02 1.925574999999999818e+03
1.519999999999999962e-01 1.254669999999999952e-01 4.455879999999999797e+01 2.136064999999999827e+02 1.925139999999999873e+03
1.529999999999999971e-01 1.254290000000000127e-01 4.367199999999999704e+01 2.123149999999999977e+02 1.924684999999999945e+03
1.539999999999999980e-01 1.253890000000000005e-01 4.277980000000000160e+01 2.109834999999999923e+02 1.924215000000000146e+03
1.549999999999999989e-01 1.253479999999999872e-01 4.188505000000000678e+01 2.096179999999999950e+02 1.923724999999999909e+03
1.559999999999999998e-01 1.253060000000000007e-01 4.099094999999999800e+01 2.082284999999999968e+02 1.923224999999999909e+03
1.570000000000000007e-01 1.252630000000000132e-01 4.010105000000000075e+01 2.068235000000000241e+02 1.922715000000000146e+03
1.580000000000000016e-01 1.252194999999999836e-01 3.921909999999999741e+01 2.054119999999999777e+02 1.922195000000000164e+03
1.590000000000000024e-01 1.251754999999999951e-01 3.834914999999999452e+01 2.040045000000000073e+02 1.921674999999999955e+03
