# t [s], A [cm^2], U [cm/s], P [cPa], c [cm/s]
1.000000000000000021e-03 4.589365000000000250e-01 4.067149999999998544e-03 1.039765000000000015e+02 1.495954999999999927e+03
2.000000000000000042e-03 4.589309999999999778e-01 1.178734999999999982e-03 1.039634999999999962e+02 1.495950000000000045e+03
3.000000000000000062e-03 4.589429999999999898e-01 2.317419999999999897e-02 1.039844999999999970e+02 1.495960000000000036e+03
4.000000000000000083e-03 4.589784999999999560e-01 9.518899999999999584e-02 1.040745000000000005e+02 1.495985000000000127e+03
5.000000000000000104e-03 4.589980000000000171e-01 1.404619500000000021e-01 1.041364999999999981e+02 1.496005000000000109e+03
6.000000000000000125e-03 4.589840000000000031e-01 1.190056999999999920e-01 1.041020000000000039e+02 1.496000000000000000e+03
7.000000000000000146e-03 4.589544999999999875e-01 6.262049999999999561e-02 1.039890000000000043e+02 1.495974999999999909e+03
8.000000000000000167e-03 4.589294999999999902e-01 1.602299999999998170e-02 1.038514999999999873e+02 1.495940000000000055e+03
9.000000000000001055e-03 4.589014999999999622e-01 -4.301850000000001506e-02 1.036750000000000114e+02 1.495894999999999982e+03
1.000000000000000194e-02 4.588539999999999841e-01 -1.532580000000000608e-01 1.034155000000000086e+02 1.495829999999999927e+03
1.099999999999999936e-02 4.587799999999999656e-01 -3.296060000000000101e-01 1.030405000000000086e+02 1.495735000000000127e+03
1.200000000000000025e-02 4.586755000000000138e-01 -5.822500000000000453e-01 1.025210000000000008e+02 1.495610000000000127e+03
1.300000000000000114e-02 4.585304999999999520e-01 -9.239049999999999763e-01 1.018203500000000048e+02 1.495430000000000064e+03
1.400000000000000203e-02 4.583445000000000435e-01 -1.348665000000000003e+00 1.009188000000000045e+02 1.495199999999999818e+03
1.499999999999999944e-02 4.581299999999999817e-01 -1.815755000000000230e+00 9.984090000000000487e+01 1.494914999999999964e+03
1.600000000000000033e-02 4.579090000000000105e-01 -2.258729999999999905e+00 9.865174999999999272e+01 1.494595000000000027e+03
1.700000000000000122e-02 4.577014999999999834e-01 -2.610899999999999999e+00 9.743080000000000496e+01 1.494250000000000000e+03
1.800000000000000211e-02 4.575199999999999823e-01 -2.827189499999999800e+00 9.624434999999999718e+01 1.493905000000000200e+03
1.900000000000000300e-02 4.573630000000000195e-01 -2.892588999999999633e+00 9.512694999999999368e+01 1.493565000000000055e+03
2.000000000000000042e-02 4.572235000000000049e-01 -2.818350500000000203e+00 9.407944999999999425e+01 1.493230000000000018e+03
2.100000000000000130e-02 4.570870000000000211e-01 -2.631630499999999984e+00 9.307794999999998709e+01 1.492904999999999973e+03
2.200000000000000219e-02 4.569420000000000148e-01 -2.364051500000000416e+00 9.208590000000000941e+01 1.492570000000000164e+03
2.299999999999999961e-02 4.567795000000000050e-01 -2.042310000000000070e+00 9.106780000000000541e+01 1.492224999999999909e+03
2.400000000000000050e-02 4.565955000000000430e-01 -1.682395000000000085e+00 8.999875000000000114e+01 1.491865000000000009e+03
2.500000000000000139e-02 4.563920000000000199e-01 -1.288019999999999721e+00 8.887035000000000196e+01 1.491490000000000009e+03
2.600000000000000228e-02 4.561749999999999972e-01 -8.529049999999998022e-01 8.769089999999999918e+01 1.491094999999999800e+03
2.700000000000000316e-02 4.559520000000000239e-01 -3.660250000000000448e-01 8.648040000000000305e+01 1.490694999999999936e+03
2.800000000000000058e-02 4.557290000000000507e-01 1.820400000000002017e-01 8.526314999999999600e+01 1.490285000000000082e+03
2.900000000000000147e-02 4.555099999999999705e-01 7.935750000000001414e-01 8.405965000000000487e+01 1.489875000000000000e+03
3.000000000000000236e-02 4.552955000000000196e-01 1.460519999999999818e+00 8.288034999999999286e+01 1.489464999999999918e+03
3.099999999999999978e-02 4.550815000000000277e-01 2.164085000000000036e+00 8.172229999999998995e+01 1.489070000000000164e+03
3.200000000000000067e-02 4.548619999999999886e-01 2.877044999999999852e+00 8.056999999999999318e+01 1.488670000000000073e+03
3.300000000000000155e-02 4.546300000000000341e-01 3.567904999999999660e+00 7.939879999999999427e+01 1.488264999999999873e+03
3.400000000000000244e-02 4.543785000000000185e-01 4.206029999999999269e+00 7.818084999999999241e+01 1.487849999999999909e+03
3.500000000000000333e-02 4.541034999999999933e-01 4.766734999999999722e+00 7.689189999999999259e+01 1.487425000000000182e+03
3.600000000000000422e-02 4.538034999999999708e-01 5.235219999999999985e+00 7.551765000000000327e+01 1.486970000000000027e+03
3.700000000000000511e-02 4.534825000000000106e-01 5.608874999999999389e+00 7.405819999999999936e+01 1.486509999999999991e+03
3.799999999999999906e-02 4.531470000000000220e-01 5.896799999999999820e+00 7.253010000000000446e+01 1.486019999999999982e+03
3.899999999999999994e-02 4.528074999999999739e-01 6.117734999999999701e+00 7.096479999999999677e+01 1.485529999999999973e+03
4.000000000000000083e-02 4.524750000000000161e-01 6.296314999999999884e+00 6.940485000000001037e+01 1.485039999999999964e+03
4.100000000000000172e-02 4.521589999999999776e-01 6.458718499999999807e+00 6.789870000000000516e+01 1.484565000000000055e+03
4.200000000000000261e-02 4.518710000000000226e-01 6.629335000000000200e+00 6.649500000000000455e+01 1.484115000000000009e+03
4.300000000000000350e-02 4.516185000000000338e-01 6.828380499999999742e+00 6.523824999999999363e+01 1.483704999999999927e+03
4.400000000000000439e-02 4.514064999999999883e-01 7.070794999999999497e+00 6.416579999999999018e+01 1.483345000000000027e+03
4.499999999999999833e-02 4.512384999999999868e-01 7.366645000000000110e+00 6.330665000000000475e+01 1.483045000000000073e+03
4.599999999999999922e-02 4.511169999999999902e-01 7.722449999999999370e+00 6.268164999999999765e+01 1.482815000000000055e+03
4.700000000000000011e-02 4.510434999999999861e-01 8.142519999999999314e+00 6.230509999999999593e+01 1.482650000000000091e+03
4.800000000000000100e-02 4.510180000000000300e-01 8.630819999999999936e+00 6.218654999999999688e+01 1.482570000000000164e+03
4.900000000000000189e-02 4.510429999999999717e-01 9.192115000000001146e+00 6.233280000000000598e+01 1.482565000000000055e+03
5.000000000000000278e-02 4.511180000000000190e-01 9.832620000000000360e+00 6.274970000000000425e+01 1.482644999999999982e+03
5.100000000000000366e-02 4.512464999999999948e-01 1.056001000000000012e+01 6.344275000000000375e+01 1.482805000000000064e+03
5.200000000000000455e-02 4.514295000000000391e-01 1.138268499999999861e+01 6.441749999999998977e+01 1.483050000000000182e+03
5.300000000000000544e-02 4.516679999999999584e-01 1.230900000000000105e+01 6.567885000000001128e+01 1.483389999999999873e+03
5.399999999999999939e-02 4.519635000000000180e-01 1.334574999999999889e+01 6.722995000000000232e+01 1.483815000000000055e+03
5.500000000000000028e-02 4.523159999999999958e-01 1.449715499999999935e+01 6.907079999999999131e+01 1.484329999999999927e+03
5.600000000000000117e-02 4.527234999999999454e-01 1.576411999999999836e+01 7.119729999999999848e+01 1.484934999999999945e+03
5.700000000000000205e-02 4.531844999999999901e-01 1.714359999999999928e+01 7.360030000000000427e+01 1.485625000000000000e+03
5.800000000000000294e-02 4.536950000000000149e-01 1.862870000000000203e+01 7.626500000000000057e+01 1.486400000000000091e+03
5.900000000000000383e-02 4.542494999999999727e-01 2.020904999999999774e+01 7.917179999999999040e+01 1.487255000000000109e+03
6.000000000000000472e-02 4.548440000000000261e-01 2.187144999999999939e+01 8.229625000000000057e+01 1.488174999999999955e+03
6.099999999999999867e-02 4.554715000000000291e-01 2.360075000000000145e+01 8.561050000000000182e+01 1.489164999999999964e+03
6.199999999999999956e-02 4.561269999999999492e-01 2.538084999999999880e+01 8.908455000000000723e+01 1.490210000000000036e+03
6.300000000000000044e-02 4.568029999999999591e-01 2.719550000000000267e+01 9.268779999999999575e+01 1.491299999999999955e+03
6.400000000000000133e-02 4.574954999999999994e-01 2.902915000000000134e+01 9.639039999999999964e+01 1.492434999999999945e+03
6.500000000000000222e-02 4.581994999999999818e-01 3.086735000000000184e+01 1.001636000000000024e+02 1.493599999999999909e+03
6.600000000000000311e-02 4.589094999999999702e-01 3.269724999999999682e+01 1.039818999999999960e+02 1.494784999999999854e+03
6.700000000000000400e-02 4.596224999999999894e-01 3.450769999999999982e+01 1.078227499999999992e+02 1.495985000000000127e+03
6.800000000000000488e-02 4.603359999999999674e-01 3.628905000000000314e+01 1.116668999999999983e+02 1.497200000000000045e+03
6.900000000000000577e-02 4.610474999999999435e-01 3.803334999999999866e+01 1.154988500000000045e+02 1.498414999999999964e+03
7.000000000000000666e-02 4.617544999999999566e-01 3.973369999999999891e+01 1.193054999999999950e+02 1.499630000000000109e+03
7.100000000000000755e-02 4.624559999999999782e-01 4.138434999999999775e+01 1.230769999999999982e+02 1.500840000000000146e+03
7.200000000000000844e-02 4.631509999999999794e-01 4.298024999999999807e+01 1.268054999999999950e+02 1.502045000000000073e+03
7.300000000000000933e-02 4.638379999999999725e-01 4.451680000000000348e+01 1.304839999999999804e+02 1.503235000000000127e+03
7.399999999999999634e-02 4.645164999999999988e-01 4.598980000000000246e+01 1.341084999999999923e+02 1.504414999999999964e+03
7.499999999999999722e-02 4.651845000000000008e-01 4.739515000000000100e+01 1.376730000000000018e+02 1.505579999999999927e+03
7.599999999999999811e-02 4.658419999999999783e-01 4.872885000000000133e+01 1.411739999999999782e+02 1.506730000000000018e+03
7.699999999999999900e-02 4.664874999999999994e-01 4.998690000000000566e+01 1.446055000000000064e+02 1.507860000000000127e+03
7.799999999999999989e-02 4.671199999999999797e-01 5.116530000000000200e+01 1.479619999999999891e+02 1.508974999999999909e+03
7.900000000000000078e-02 4.677379999999999871e-01 5.226010000000000133e+01 1.512384999999999877e+02 1.510059999999999945e+03
8.000000000000000167e-02 4.683400000000000341e-01 5.326744999999999663e+01 1.544275000000000091e+02 1.511130000000000109e+03
8.100000000000000255e-02 4.689240000000000075e-01 5.418385000000000673e+01 1.575219999999999914e+02 1.512170000000000073e+03
8.200000000000000344e-02 4.694895000000000040e-01 5.500610000000000355e+01 1.605149999999999864e+02 1.513174999999999955e+03
8.300000000000000433e-02 4.700350000000000361e-01 5.573160000000000025e+01 1.633990000000000009e+02 1.514154999999999973e+03
8.400000000000000522e-02 4.705584999999999907e-01 5.635840000000000316e+01 1.661674999999999898e+02 1.515094999999999800e+03
8.500000000000000611e-02 4.710590000000000055e-01 5.688540000000000418e+01 1.688145000000000095e+02 1.516005000000000109e+03
8.600000000000000699e-02 4.715364999999999696e-01 5.731224999999999881e+01 1.713340000000000032e+02 1.516869999999999891e+03
8.700000000000000788e-02 4.719889999999999919e-01 5.763949999999999818e+01 1.737214999999999918e+02 1.517700000000000045e+03
8.800000000000000877e-02 4.724175000000000457e-01 5.786860000000000070e+01 1.759739999999999895e+02 1.518485000000000127e+03
8.899999999999999578e-02 4.728204999999999769e-01 5.800169999999999959e+01 1.780905000000000200e+02 1.519230000000000018e+03
8.999999999999999667e-02 4.731984999999999664e-01 5.804149999999999920e+01 1.800699999999999932e+02 1.519930000000000064e+03
9.099999999999999756e-02 4.735515000000000141e-01 5.799129999999999541e+01 1.819119999999999777e+02 1.520585000000000036e+03
9.199999999999999845e-02 4.738804999999999823e-01 5.785504999999999853e+01 1.836189999999999998e+02 1.521195000000000164e+03
9.299999999999999933e-02 4.741849999999999676e-01 5.763680000000000092e+01 1.851924999999999955e+02 1.521764999999999873e+03
9.400000000000000022e-02 4.744654999999999845e-01 5.734105000000000274e+01 1.866354999999999791e+02 1.522295000000000073e+03
9.500000000000000111e-02 4.747234999999999649e-01 5.697240000000000038e+01 1.879519999999999982e+02 1.522775000000000091e+03
9.600000000000000200e-02 4.749585000000000057e-01 5.653605000000000302e+01 1.891460000000000150e+02 1.523224999999999909e+03
9.700000000000000289e-02 4.751719999999999833e-01 5.603699999999999903e+01 1.902214999999999918e+02 1.523625000000000000e+03
9.800000000000000377e-02 4.753649999999999820e-01 5.548100000000000165e+01 1.911850000000000023e+02 1.523990000000000009e+03
9.900000000000000466e-02 4.755384999999999751e-01 5.487359999999999616e+01 1.920420000000000016e+02 1.524315000000000055e+03
1.000000000000000056e-01 4.756939999999999502e-01 5.422090000000000032e+01 1.927980000000000018e+02 1.524610000000000127e+03
1.010000000000000064e-01 4.758324999999999916e-01 5.352909999999999968e+01 1.934615000000000009e+02 1.524875000000000000e+03
1.020000000000000073e-01 4.759549999999999614e-01 5.280440000000000111e+01 1.940389999999999873e+02 1.525105000000000018e+03
1.030000000000000082e-01 4.760630000000000139e-01 5.205315000000000225e+01 1.945384999999999991e+02 1.525305000000000064e+03
1.040000000000000091e-01 4.761584999999999845e-01 5.128145000000000664e+01 1.949669999999999845e+02 1.525480000000000018e+03
1.050000000000000100e-01 4.762425000000000130e-01 5.049515000000000242e+01 1.953329999999999984e+02 1.525630000000000109e+03
1.059999999999999970e-01 4.763160000000000172e-01 4.969975000000000165e+01 1.956435000000000173e+02 1.525764999999999873e+03
1.069999999999999979e-01 4.763809999999999989e-01 4.890000000000000568e+01 1.959060000000000059e+02 1.525875000000000000e+03
1.079999999999999988e-01 4.764380000000000281e-01 4.810014999999999930e+01 1.961254999999999882e+02 1.525970000000000027e+03
1.089999999999999997e-01 4.764875000000000638e-01 4.730369999999999919e+01 1.963075000000000045e+02 1.526049999999999955e+03
1.100000000000000006e-01 4.765305000000000235e-01 4.651319999999999766e+01 1.964579999999999984e+02 1.526119999999999891e+03
1.110000000000000014e-01 4.765679999999999916e-01 4.573055000000000092e+01 1.965769999999999982e+02 1.526175000000000182e+03
1.120000000000000023e-01 4.765984999999999805e-01 4.495669999999999789e+01 1.966690000000000111e+02 1.526215000000000146e+03
1.130000000000000032e-01 4.766239999999999366e-01 4.419209999999999638e+01 1.967344999999999970e+02 1.526250000000000000e+03
1.140000000000000041e-01 4.766434999999999977e-01 4.343639999999999901e+01 1.967729999999999961e+02 1.526269999999999982e+03
1.150000000000000050e-01 4.766559999999999686e-01 4.268874999999999886e+01 1.967839999999999918e+02 1.526284999999999854e+03
1.160000000000000059e-01 4.766620000000000301e-01 4.194795000000000584e+01 1.967654999999999745e+02 1.526284999999999854e+03
1.170000000000000068e-01 4.766610000000000014e-01 4.121240000000000236e+01 1.967169999999999845e+02 1.526279999999999973e+03
1.180000000000000077e-01 4.766534999999999522e-01 4.048035000000000139e+01 1.966349999999999909e+02 1.526259999999999991e+03
1.190000000000000085e-01 4.766380000000000061e-01 3.975000000000000000e+01 1.965190000000000055e+02 1.526224999999999909e+03
1.200000000000000094e-01 4.766139999999999821e-01 3.901940000000000452e+01 1.963654999999999973e+02 1.526184999999999945e+03
1.209999999999999964e-01 4.765814999999999912e-01 3.828685000000000116e+01 1.961730000000000018e+02 1.526125000000000000e+03
1.219999999999999973e-01 4.765409999999999924e-01 3.755055000000000121e+01 1.959399999999999977e+02 1.526059999999999945e+03
1.229999999999999982e-01 4.764915000000000123e-01 3.680915000000000248e+01 1.956659999999999968e+02 1.525974999999999909e+03
1.239999999999999991e-01 4.764339999999999686e-01 3.606145000000000067e+01 1.953499999999999943e+02 1.525880000000000109e+03
1.250000000000000000e-01 4.763674999999999993e-01 3.530660000000000309e+01 1.949925000000000068e+02 1.525769999999999982e+03
1.260000000000000009e-01 4.762929999999999664e-01 3.454410000000000025e+01 1.945929999999999893e+02 1.525650000000000091e+03
1.270000000000000018e-01 4.762100000000000222e-01 3.377374999999999972e+01 1.941539999999999964e+02 1.525519999999999982e+03
1.280000000000000027e-01 4.761205000000000576e-01 3.299604999999999677e+01 1.936779999999999973e+02 1.525369999999999891e+03
1.290000000000000036e-01 4.760234999999999883e-01 3.221155000000000257e+01 1.931659999999999968e+02 1.525215000000000146e+03
1.300000000000000044e-01 4.759209999999999829e-01 3.142159999999999798e+01 1.926225000000000023e+02 1.525045000000000073e+03
1.310000000000000053e-01 4.758129999999999860e-01 3.062775000000000247e+01 1.920515000000000043e+02 1.524869999999999891e+03
1.320000000000000062e-01 4.757014999999999993e-01 2.983204999999999885e+01 1.914574999999999818e+02 1.524679999999999836e+03
1.330000000000000071e-01 4.755860000000000087e-01 2.903690000000000282e+01 1.908449999999999989e+02 1.524485000000000127e+03
1.340000000000000080e-01 4.754690000000000305e-01 2.824484999999999957e+01 1.902199999999999989e+02 1.524289999999999964e+03
1.350000000000000089e-01 4.753509999999999680e-01 2.745895000000000152e+01 1.895879999999999939e+02 1.524090000000000146e+03
1.360000000000000098e-01 4.752330000000000165e-01 2.668224999999999980e+01 1.889544999999999959e+02 1.523884999999999991e+03
1.370000000000000107e-01 4.751164999999999972e-01 2.591789999999999949e+01 1.883265000000000100e+02 1.523684999999999945e+03
1.380000000000000115e-01 4.750020000000000353e-01 2.516884999999999906e+01 1.877074999999999818e+02 1.523480000000000018e+03
1.390000000000000124e-01 4.748915000000000219e-01 2.443820000000000192e+01 1.871039999999999850e+02 1.523284999999999854e+03
1.400000000000000133e-01 4.747850000000000126e-01 2.372874999999999801e+01 1.865215000000000032e+02 1.523095000000000027e+03
1.410000000000000142e-01 4.746830000000000216e-01 2.304299999999999926e+01 1.859629999999999939e+02 1.522909999999999854e+03
1.420000000000000151e-01 4.745874999999999955e-01 2.238315000000000055e+01 1.854325000000000045e+02 1.522735000000000127e+03
1.430000000000000160e-01 4.744975000000000165e-01 2.175095000000000312e+01 1.849334999999999809e+02 1.522559999999999945e+03
1.440000000000000169e-01 4.744140000000000024e-01 2.114795000000000158e+01 1.844669999999999845e+02 1.522404999999999973e+03
1.450000000000000178e-01 4.743370000000000086e-01 2.057484999999999786e+01 1.840349999999999966e+02 1.522250000000000000e+03
1.459999999999999909e-01 4.742665000000000353e-01 2.003239999999999910e+01 1.836374999999999886e+02 1.522110000000000127e+03
1.469999999999999918e-01 4.742024999999999713e-01 1.952064999999999984e+01 1.832740000000000009e+02 1.521985000000000127e+03
1.479999999999999927e-01 4.741444999999999688e-01 1.903925000000000267e+01 1.829435000000000002e+02 1.521865000000000009e+03
1.489999999999999936e-01 4.740919999999999579e-01 1.858769999999999811e+01 1.826449999999999818e+02 1.521759999999999991e+03
1.499999999999999944e-01 4.740444999999999798e-01 1.816509999999999891e+01 1.823754999999999882e+02 1.521660000000000082e+03
1.509999999999999953e-01 4.740024999999999933e-01 1.777040000000000219e+01 1.821329999999999814e+02 1.521570000000000164e+03
1.519999999999999962e-01 4.739639999999999409e-01 1.740224999999999866e+01 1.819139999999999873e+02 1.521485000000000127e+03
1.529999999999999971e-01 4.739295000000000035e-01 1.705949999999999989e+01 1.817175000000000011e+02 1.521414999999999964e+03
1.539999999999999980e-01 4.738979999999999859e-01 1.674054999999999893e+01 1.815384999999999991e+02 1.521345000000000027e+03
1.549999999999999989e-01 4.738694999999999991e-01 1.644415000000000049e+01 1.813759999999999764e+02 1.521279999999999973e+03
1.559999999999999998e-01 4.738430000000000142e-01 1.616874999999999929e+01 1.812270000000000039e+02 1.521224999999999909e+03
1.570000000000000007e-01 4.738180000000000169e-01 1.591305000000000014e+01 1.810885000000000105e+02 1.521170000000000073e+03
1.580000000000000016e-01 4.737949999999999662e-01 1.567569999999999908e+01 1.809594999999999914e+02 1.521115000000000009e+03
1.590000000000000024e-01 4.737729999999999997e-01 1.545550000000000068e+01 1.808379999999999939e+02 1.521070000000000164e+03
