# t [s], A [cm^2], U [cm/s], P [cPa], c [cm/s]
1.000000000000000021e-03 2.060964999999999880e-01 4.429864499999999761e-01 8.618524999999999636e+01 2.246440000000000055e+03
2.000000000000000042e-03 2.060210000000000097e-01 2.009615999999999847e+00 8.222960000000000491e+01 2.245820000000000164e+03
3.000000000000000062e-03 2.058559999999999834e-01 3.903795000000000126e+00 7.694164999999999566e+01 2.244505000000000109e+03
4.000000000000000083e-03 2.056554999999999911e-01 6.055069999999999730e+00 7.185144999999999982e+01 2.242930000000000291e+03
5.000000000000000104e-03 2.054620000000000057e-01 8.303200000000000358e+00 6.788524999999999920e+01 2.241414999999999964e+03
6.000000000000000125e-03 2.052849999999999953e-01 1.030823999999999963e+01 6.472464999999999691e+01 2.240055000000000291e+03
7.000000000000000146e-03 2.051224999999999854e-01 1.190606999999999971e+01 6.183814999999999884e+01 2.238850000000000364e+03
8.000000000000000167e-03 2.049834999999999852e-01 1.317937999999999832e+01 5.935065000000000168e+01 2.237824999999999818e+03
9.000000000000001055e-03 2.048699999999999966e-01 1.418084999999999951e+01 5.740099999999999625e+01 2.237000000000000000e+03
1.000000000000000194e-02 2.047809999999999908e-01 1.493035000000000068e+01 5.591989999999999839e+01 2.236360000000000127e+03
1.099999999999999936e-02 2.047134999999999927e-01 1.545535000000000103e+01 5.482755000000000223e+01 2.235880000000000109e+03
1.200000000000000025e-02 2.046604999999999952e-01 1.575305000000000000e+01 5.394944999999999879e+01 2.235525000000000091e+03
1.300000000000000114e-02 2.046169999999999933e-01 1.586285000000000167e+01 5.314239999999999498e+01 2.235224999999999909e+03
1.400000000000000203e-02 2.045859999999999901e-01 1.597594999999999921e+01 5.269819999999999993e+01 2.235024999999999636e+03
1.499999999999999944e-02 2.045879999999999921e-01 1.637330000000000041e+01 5.335235000000000127e+01 2.235045000000000073e+03
1.600000000000000033e-02 2.046395000000000020e-01 1.721999999999999886e+01 5.570714999999999861e+01 2.235420000000000073e+03
1.700000000000000122e-02 2.047440000000000093e-01 1.841635000000000133e+01 5.961790000000000589e+01 2.236179999999999836e+03
1.800000000000000211e-02 2.048814999999999942e-01 1.962644999999999840e+01 6.408455000000000723e+01 2.237185000000000400e+03
1.900000000000000300e-02 2.050144999999999884e-01 2.044619999999999749e+01 6.769505000000000905e+01 2.238180000000000291e+03
2.000000000000000042e-02 2.051040000000000085e-01 2.059595000000000198e+01 6.929545000000000243e+01 2.238880000000000109e+03
2.100000000000000130e-02 2.051295000000000202e-01 2.003650000000000020e+01 6.850005000000000166e+01 2.239109999999999673e+03
2.200000000000000219e-02 2.050910000000000233e-01 1.896079999999999899e+01 6.579840000000000089e+01 2.238859999999999673e+03
2.299999999999999961e-02 2.050084999999999824e-01 1.768074999999999974e+01 6.224675000000000580e+01 2.238279999999999745e+03
2.400000000000000050e-02 2.049120000000000108e-01 1.647905000000000086e+01 5.894420000000000215e+01 2.237569999999999709e+03
2.500000000000000139e-02 2.048264999999999947e-01 1.550209999999999866e+01 5.657810000000000628e+01 2.236930000000000291e+03
2.600000000000000228e-02 2.047630000000000006e-01 1.473489999999999966e+01 5.523510000000000275e+01 2.236449999999999818e+03
2.700000000000000316e-02 2.047189999999999843e-01 1.404954999999999998e+01 5.450414999999999566e+01 2.236114999999999782e+03
2.800000000000000058e-02 2.046824999999999894e-01 1.329260000000000019e+01 5.376855000000000473e+01 2.235840000000000146e+03
2.900000000000000147e-02 2.046385000000000010e-01 1.237000000000000099e+01 5.253435000000000343e+01 2.235515000000000327e+03
3.000000000000000236e-02 2.045784999999999965e-01 1.129903000000000013e+01 5.066769999999999641e+01 2.235079999999999927e+03
3.099999999999999978e-02 2.045055000000000067e-01 1.021055000000000135e+01 4.846150000000000091e+01 2.234550000000000182e+03
3.200000000000000067e-02 2.044340000000000046e-01 9.302825000000000344e+00 4.651829999999999643e+01 2.234019999999999982e+03
3.300000000000000155e-02 2.043814999999999937e-01 8.766864999999999242e+00 4.550574999999999903e+01 2.233619999999999891e+03
3.400000000000000244e-02 2.043655000000000055e-01 8.714954999999999785e+00 4.588935000000000031e+01 2.233474999999999909e+03
3.500000000000000333e-02 2.043940000000000201e-01 9.138505000000000322e+00 4.774864999999999782e+01 2.233664999999999964e+03
3.600000000000000422e-02 2.044650000000000079e-01 9.907090000000000174e+00 5.073579999999999757e+01 2.234159999999999854e+03
3.700000000000000511e-02 2.045629999999999948e-01 1.080341500000000110e+01 5.417220000000000368e+01 2.234864999999999782e+03
3.799999999999999906e-02 2.046660000000000146e-01 1.157760000000000034e+01 5.723340000000000316e+01 2.235619999999999891e+03
3.899999999999999994e-02 2.047495000000000009e-01 1.200195000000000078e+01 5.915129999999999910e+01 2.236234999999999673e+03
4.000000000000000083e-02 2.047915000000000152e-01 1.191264999999999930e+01 5.937609999999999388e+01 2.236559999999999945e+03
4.100000000000000172e-02 2.047775000000000012e-01 1.123029000000000011e+01 5.766204999999999359e+01 2.236485000000000127e+03
4.200000000000000261e-02 2.047014999999999807e-01 9.959889999999999688e+00 5.407054999999999723e+01 2.235949999999999818e+03
4.300000000000000350e-02 2.045664999999999845e-01 8.174144999999999328e+00 4.890654999999999575e+01 2.234980000000000018e+03
4.400000000000000439e-02 2.043829999999999814e-01 5.989200000000000301e+00 4.261945000000000050e+01 2.233639999999999873e+03
4.499999999999999833e-02 2.041634999999999978e-01 3.540490000000000137e+00 3.570174999999999699e+01 2.232034999999999854e+03
4.599999999999999922e-02 2.039234999999999798e-01 9.640499999999998515e-01 2.861254999999999882e+01 2.230269999999999982e+03
4.700000000000000011e-02 2.036759999999999959e-01 -1.613310000000000022e+00 2.173639999999999972e+01 2.228449999999999818e+03
4.800000000000000100e-02 2.034354999999999913e-01 -4.077130999999999617e+00 1.537705500000000036e+01 2.226670000000000073e+03
4.900000000000000189e-02 2.032100000000000017e-01 -6.324005000000000543e+00 9.771673999999999083e+00 2.225000000000000000e+03
5.000000000000000278e-02 2.030099999999999960e-01 -8.259225000000000705e+00 5.114090000000000025e+00 2.223514999999999873e+03
5.100000000000000366e-02 2.028429999999999955e-01 -9.796395000000000408e+00 1.571620000000000239e+00 2.222265000000000327e+03
5.200000000000000455e-02 2.027154999999999929e-01 -1.085944500000000090e+01 -7.088899999999997981e-01 2.221300000000000182e+03
5.300000000000000544e-02 2.026330000000000076e-01 -1.138775000000000048e+01 -1.608830000000000204e+00 2.220659999999999854e+03
5.399999999999999939e-02 2.026000000000000023e-01 -1.134244999999999948e+01 -1.054192000000000018e+00 2.220389999999999873e+03
5.500000000000000028e-02 2.026189999999999936e-01 -1.071201999999999899e+01 9.658010000000000206e-01 2.220489999999999782e+03
5.600000000000000117e-02 2.026895000000000224e-01 -9.515975000000000961e+00 4.385220000000000340e+00 2.220970000000000255e+03
5.700000000000000205e-02 2.028095000000000037e-01 -7.804265000000000896e+00 9.058324999999999960e+00 2.221819999999999709e+03
5.800000000000000294e-02 2.029730000000000145e-01 -5.653559999999999697e+00 1.476883499999999927e+01 2.222989999999999782e+03
5.900000000000000383e-02 2.031729999999999925e-01 -3.160299999999999443e+00 2.124930000000000163e+01 2.224440000000000055e+03
6.000000000000000472e-02 2.033999999999999975e-01 -4.324349999999999028e-01 2.820650000000000190e+01 2.226090000000000146e+03
6.099999999999999867e-02 2.036445000000000061e-01 2.418845000000000134e+00 3.534705000000000297e+01 2.227885000000000218e+03
6.199999999999999956e-02 2.038965000000000083e-01 5.286266699999999652e+00 4.239939999999999998e+01 2.229735000000000127e+03
6.300000000000000044e-02 2.041469999999999951e-01 8.072185000000001054e+00 4.912930000000000064e+01 2.231590000000000146e+03
6.400000000000000133e-02 2.043874999999999997e-01 1.069266000000000005e+01 5.534950000000000614e+01 2.233385000000000218e+03
6.500000000000000222e-02 2.046125000000000027e-01 1.308077999999999896e+01 6.092510000000000048e+01 2.235059999999999945e+03
6.600000000000000311e-02 2.048159999999999981e-01 1.518894999999999840e+01 6.577590000000000714e+01 2.236595000000000255e+03
6.700000000000000400e-02 2.049960000000000115e-01 1.699074999999999847e+01 6.987735000000000696e+01 2.237954999999999927e+03
6.800000000000000488e-02 2.051514999999999866e-01 1.848150000000000048e+01 7.325945000000000107e+01 2.239135000000000218e+03
6.900000000000000577e-02 2.052829999999999933e-01 1.967804999999999893e+01 7.600364999999999327e+01 2.240144999999999982e+03
7.000000000000000666e-02 2.053940000000000210e-01 2.061639999999999873e+01 7.823570000000000846e+01 2.241000000000000000e+03
7.100000000000000755e-02 2.054880000000000040e-01 2.134854999999999947e+01 8.011535000000000650e+01 2.241724999999999909e+03
7.200000000000000844e-02 2.055710000000000037e-01 2.193684999999999974e+01 8.182195000000000107e+01 2.242360000000000127e+03
7.300000000000000933e-02 2.056479999999999975e-01 2.244894999999999996e+01 8.353864999999998986e+01 2.242960000000000036e+03
7.399999999999999634e-02 2.057264999999999788e-01 2.295064999999999955e+01 8.543540000000000134e+01 2.243554999999999836e+03
7.499999999999999722e-02 2.058105000000000073e-01 2.350084999999999980e+01 8.765394999999999470e+01 2.244199999999999818e+03
7.599999999999999811e-02 2.059055000000000191e-01 2.414594999999999914e+01 9.029524999999999579e+01 2.244914999999999964e+03
7.699999999999999900e-02 2.060150000000000037e-01 2.491660000000000252e+01 9.341174999999999784e+01 2.245734999999999673e+03
7.799999999999999989e-02 2.061389999999999889e-01 2.582560000000000144e+01 9.700384999999999991e+01 2.246670000000000073e+03
7.900000000000000078e-02 2.062785000000000035e-01 2.686755000000000138e+01 1.010227500000000020e+02 2.247710000000000036e+03
8.000000000000000167e-02 2.064314999999999900e-01 2.802055000000000007e+01 1.053744999999999976e+02 2.248860000000000127e+03
8.100000000000000255e-02 2.065950000000000009e-01 2.924844999999999828e+01 1.099320000000000022e+02 2.250085000000000036e+03
8.200000000000000344e-02 2.067645000000000177e-01 3.050469999999999970e+01 1.145465000000000089e+02 2.251350000000000364e+03
8.300000000000000433e-02 2.069340000000000068e-01 3.173665000000000092e+01 1.190585000000000093e+02 2.252635000000000218e+03
8.400000000000000522e-02 2.071000000000000063e-01 3.288965000000000316e+01 1.233119999999999976e+02 2.253885000000000218e+03
8.500000000000000611e-02 2.072555000000000092e-01 3.391145000000000209e+01 1.271664999999999992e+02 2.255065000000000055e+03
8.600000000000000699e-02 2.073969999999999980e-01 3.475549999999999784e+01 1.305004999999999882e+02 2.256144999999999982e+03
8.700000000000000788e-02 2.075199999999999823e-01 3.538414999999999822e+01 1.332270000000000039e+02 2.257085000000000036e+03
8.800000000000000877e-02 2.076215000000000144e-01 3.577089999999999748e+01 1.352895000000000039e+02 2.257869999999999891e+03
8.899999999999999578e-02 2.076999999999999957e-01 3.590140000000000242e+01 1.366664999999999850e+02 2.258474999999999909e+03
8.999999999999999667e-02 2.077545000000000086e-01 3.577405000000000257e+01 1.373725000000000023e+02 2.258909999999999854e+03
9.099999999999999756e-02 2.077849999999999975e-01 3.539934999999999832e+01 1.374510000000000218e+02 2.259159999999999854e+03
9.199999999999999845e-02 2.077944999999999931e-01 3.479879999999999995e+01 1.369724999999999966e+02 2.259244999999999891e+03
9.299999999999999933e-02 2.077835000000000099e-01 3.400325000000000131e+01 1.360269999999999868e+02 2.259180000000000291e+03
9.400000000000000022e-02 2.077565000000000106e-01 3.305039999999999623e+01 1.347194999999999823e+02 2.258989999999999782e+03
9.500000000000000111e-02 2.077154999999999974e-01 3.198284999999999911e+01 1.331610000000000014e+02 2.258694999999999709e+03
9.600000000000000200e-02 2.076660000000000172e-01 3.084525000000000006e+01 1.314639999999999986e+02 2.258329999999999927e+03
9.700000000000000289e-02 2.076109999999999900e-01 2.968199999999999861e+01 1.297369999999999948e+02 2.257920000000000073e+03
9.800000000000000377e-02 2.075540000000000163e-01 2.853520000000000323e+01 1.280790000000000077e+02 2.257494999999999891e+03
9.900000000000000466e-02 2.074989999999999890e-01 2.744234999999999758e+01 1.265745000000000005e+02 2.257079999999999927e+03
1.000000000000000056e-01 2.074489999999999945e-01 2.643485000000000085e+01 1.252900000000000063e+02 2.256699999999999818e+03
1.010000000000000064e-01 2.074050000000000060e-01 2.553650000000000020e+01 1.242740000000000009e+02 2.256364999999999782e+03
1.020000000000000073e-01 2.073699999999999988e-01 2.476249999999999929e+01 1.235515000000000043e+02 2.256095000000000255e+03
1.030000000000000082e-01 2.073444999999999871e-01 2.411925000000000097e+01 1.231250000000000000e+02 2.255895000000000437e+03
1.040000000000000091e-01 2.073289999999999855e-01 2.360394999999999754e+01 1.229765000000000015e+02 2.255765000000000327e+03
1.050000000000000100e-01 2.073224999999999929e-01 2.320550000000000068e+01 1.230664999999999907e+02 2.255704999999999927e+03
1.059999999999999970e-01 2.073234999999999939e-01 2.290540000000000020e+01 1.233404999999999916e+02 2.255710000000000036e+03
1.069999999999999979e-01 2.073305000000000009e-01 2.267905000000000015e+01 1.237270000000000039e+02 2.255750000000000000e+03
1.079999999999999988e-01 2.073409999999999975e-01 2.249774999999999991e+01 1.241500000000000057e+02 2.255819999999999709e+03
1.089999999999999997e-01 2.073524999999999952e-01 2.233050000000000068e+01 1.245280000000000058e+02 2.255900000000000091e+03
1.100000000000000006e-01 2.073615000000000042e-01 2.214614999999999867e+01 1.247830000000000013e+02 2.255970000000000255e+03
1.110000000000000014e-01 2.073669999999999958e-01 2.191550000000000153e+01 1.248425000000000011e+02 2.256005000000000109e+03
1.120000000000000023e-01 2.073649999999999938e-01 2.161330000000000240e+01 1.246485000000000127e+02 2.255989999999999782e+03
1.130000000000000032e-01 2.073539999999999828e-01 2.121979999999999933e+01 1.241580000000000013e+02 2.255914999999999964e+03
1.140000000000000041e-01 2.073329999999999895e-01 2.072200000000000131e+01 1.233489999999999895e+02 2.255764999999999873e+03
1.150000000000000050e-01 2.073014999999999997e-01 2.011469999999999914e+01 1.222169999999999987e+02 2.255524999999999636e+03
1.160000000000000059e-01 2.072589999999999988e-01 1.940054999999999907e+01 1.207805000000000035e+02 2.255210000000000036e+03
1.170000000000000068e-01 2.072054999999999869e-01 1.858995000000000175e+01 1.190784999999999911e+02 2.254815000000000055e+03
1.180000000000000077e-01 2.071434999999999804e-01 1.770005000000000095e+01 1.171645000000000039e+02 2.254349999999999909e+03
1.190000000000000085e-01 2.070739999999999803e-01 1.675375000000000014e+01 1.151055000000000064e+02 2.253824999999999818e+03
1.200000000000000094e-01 2.070000000000000173e-01 1.577809999999999846e+01 1.129784999999999968e+02 2.253275000000000091e+03
1.209999999999999964e-01 2.069229999999999958e-01 1.480230000000000068e+01 1.108629999999999995e+02 2.252699999999999818e+03
1.219999999999999973e-01 2.068474999999999897e-01 1.385624999999999929e+01 1.088360000000000127e+02 2.252125000000000000e+03
1.229999999999999982e-01 2.067745000000000000e-01 1.296829999999999927e+01 1.069710000000000036e+02 2.251579999999999927e+03
1.239999999999999991e-01 2.067074999999999885e-01 1.216410000000000124e+01 1.053290000000000077e+02 2.251069999999999709e+03
1.250000000000000000e-01 2.066474999999999840e-01 1.146493999999999858e+01 1.039604999999999961e+02 2.250614999999999782e+03
1.260000000000000009e-01 2.065980000000000039e-01 1.088673999999999964e+01 1.028990000000000009e+02 2.250235000000000127e+03
1.270000000000000018e-01 2.065584999999999782e-01 1.043953499999999934e+01 1.021629999999999967e+02 2.249925000000000182e+03
1.280000000000000027e-01 2.065299999999999914e-01 1.012707999999999942e+01 1.017545000000000073e+02 2.249704999999999927e+03
1.290000000000000036e-01 2.065135000000000165e-01 9.947005000000000763e+00 1.016605000000000132e+02 2.249574999999999818e+03
1.300000000000000044e-01 2.065075000000000105e-01 9.891249999999999432e+00 1.018530000000000086e+02 2.249519999999999982e+03
1.310000000000000053e-01 2.065120000000000011e-01 9.946825000000000472e+00 1.022939999999999969e+02 2.249539999999999964e+03
1.320000000000000062e-01 2.065250000000000141e-01 1.009647999999999968e+01 1.029355000000000047e+02 2.249630000000000109e+03
1.330000000000000071e-01 2.065450000000000064e-01 1.032014999999999993e+01 1.037249999999999943e+02 2.249775000000000091e+03
1.340000000000000080e-01 2.065704999999999902e-01 1.059580000000000055e+01 1.046065000000000111e+02 2.249960000000000036e+03
1.350000000000000089e-01 2.066000000000000059e-01 1.090090000000000003e+01 1.055234999999999985e+02 2.250175000000000182e+03
1.360000000000000098e-01 2.066299999999999804e-01 1.121304999999999907e+01 1.064234999999999900e+02 2.250394999999999982e+03
1.370000000000000107e-01 2.066604999999999970e-01 1.151154999999999973e+01 1.072579999999999956e+02 2.250625000000000000e+03
1.380000000000000115e-01 2.066884999999999972e-01 1.177789999999999893e+01 1.079859999999999900e+02 2.250835000000000036e+03
1.390000000000000124e-01 2.067134999999999945e-01 1.199685000000000024e+01 1.085759999999999934e+02 2.251019999999999982e+03
1.400000000000000133e-01 2.067335000000000145e-01 1.215665000000000084e+01 1.090045000000000073e+02 2.251170000000000073e+03
1.410000000000000142e-01 2.067475000000000007e-01 1.224960000000000093e+01 1.092595000000000027e+02 2.251289999999999964e+03
1.420000000000000151e-01 2.067565000000000097e-01 1.227224999999999966e+01 1.093384999999999962e+02 2.251360000000000127e+03
1.430000000000000160e-01 2.067599999999999993e-01 1.222504999999999953e+01 1.092494999999999976e+02 2.251385000000000218e+03
1.440000000000000169e-01 2.067574999999999830e-01 1.211244999999999905e+01 1.090079999999999956e+02 2.251369999999999891e+03
1.450000000000000178e-01 2.067495000000000027e-01 1.194209999999999994e+01 1.086384999999999934e+02 2.251319999999999709e+03
1.459999999999999909e-01 2.067370000000000041e-01 1.172435000000000116e+01 1.081694999999999993e+02 2.251230000000000018e+03
1.469999999999999918e-01 2.067220000000000169e-01 1.147139999999999915e+01 1.076340000000000003e+02 2.251114999999999782e+03
1.479999999999999927e-01 2.067039999999999988e-01 1.119650000000000034e+01 1.070649999999999977e+02 2.250985000000000127e+03
1.489999999999999936e-01 2.066844999999999932e-01 1.091299499999999867e+01 1.064969999999999999e+02 2.250840000000000146e+03
1.499999999999999944e-01 2.066649999999999876e-01 1.063377999999999979e+01 1.059594999999999914e+02 2.250699999999999818e+03
1.509999999999999953e-01 2.066469999999999974e-01 1.037020000000000053e+01 1.054774999999999920e+02 2.250559999999999945e+03
1.519999999999999962e-01 2.066304999999999947e-01 1.013175999999999988e+01 1.050715000000000003e+02 2.250440000000000055e+03
1.529999999999999971e-01 2.066164999999999807e-01 9.925705000000000666e+00 1.047549999999999955e+02 2.250335000000000036e+03
1.539999999999999980e-01 2.066054999999999975e-01 9.756629999999999470e+00 1.045340000000000060e+02 2.250244999999999891e+03
1.549999999999999989e-01 2.065974999999999895e-01 9.626504999999999868e+00 1.044095000000000084e+02 2.250184999999999945e+03
1.559999999999999998e-01 2.065929999999999989e-01 9.534779999999999589e+00 1.043744999999999976e+02 2.250144999999999982e+03
1.570000000000000007e-01 2.065910000000000246e-01 9.478654999999999831e+00 1.044180000000000064e+02 2.250130000000000109e+03
1.580000000000000016e-01 2.065925000000000122e-01 9.453240000000000975e+00 1.045245000000000033e+02 2.250135000000000218e+03
1.590000000000000024e-01 2.065950000000000009e-01 9.452194999999999681e+00 1.046750000000000114e+02 2.250154999999999745e+03
