# t [s], A [cm^2], U [cm/s], P [cPa], c [cm/s]
1.000000000000000021e-03 4.794915000000000149e-01 2.273899999999995369e-03 9.606444999999999368e+01 1.430910000000000082e+03
2.000000000000000042e-03 4.794855000000000089e-01 6.731750000000002489e-04 9.605044999999999789e+01 1.430904999999999973e+03
3.000000000000000062e-03 4.795139999999999958e-01 5.796344999999999970e-02 9.610070000000000334e+01 1.430920000000000073e+03
4.000000000000000083e-03 4.795555000000000234e-01 1.397407999999999983e-01 9.619620000000000459e+01 1.430950000000000045e+03
5.000000000000000104e-03 4.795614999999999739e-01 1.538424999999999931e-01 9.621779999999999688e+01 1.430960000000000036e+03
6.000000000000000125e-03 4.795350000000000446e-01 1.013449999999999906e-01 9.613269999999999982e+01 1.430940000000000055e+03
7.000000000000000146e-03 4.795030000000000125e-01 3.380449999999998734e-02 9.598189999999999600e+01 1.430909999999999854e+03
8.000000000000000167e-03 4.794674999999999909e-01 -4.503950000000001008e-02 9.577594999999999459e+01 1.430865000000000009e+03
9.000000000000001055e-03 4.794064999999999577e-01 -1.808455000000000479e-01 9.546535000000000082e+01 1.430789999999999964e+03
1.000000000000000194e-02 4.793085000000000262e-01 -3.994050000000000100e-01 9.500339999999999918e+01 1.430684999999999945e+03
1.099999999999999936e-02 4.791684999999999972e-01 -7.063749999999999751e-01 9.435904999999999632e+01 1.430525000000000091e+03
1.200000000000000025e-02 4.789789999999999881e-01 -1.109910000000000174e+00 9.349860000000001037e+01 1.430304999999999836e+03
1.300000000000000114e-02 4.787339999999999929e-01 -1.608594999999999997e+00 9.239714999999999634e+01 1.430019999999999982e+03
1.400000000000000203e-02 4.784429999999999517e-01 -2.168000000000000149e+00 9.106929999999999836e+01 1.429675000000000182e+03
1.499999999999999944e-02 4.781309999999999727e-01 -2.718925000000000036e+00 8.958039999999999736e+01 1.429269999999999982e+03
1.600000000000000033e-02 4.778259999999999730e-01 -3.179730000000000167e+00 8.802949999999999875e+01 1.428835000000000036e+03
1.700000000000000122e-02 4.775504999999999889e-01 -3.484145000000000270e+00 8.651630000000000109e+01 1.428394999999999982e+03
1.800000000000000211e-02 4.773150000000000448e-01 -3.598517999999999883e+00 8.511320000000000618e+01 1.427970000000000027e+03
1.900000000000000300e-02 4.771140000000000381e-01 -3.524582500000000174e+00 8.385140000000001237e+01 1.427565000000000055e+03
2.000000000000000042e-02 4.769364999999999855e-01 -3.291407500000000041e+00 8.272190000000000509e+01 1.427179999999999836e+03
2.100000000000000130e-02 4.767655000000000087e-01 -2.942285000000000039e+00 8.168684999999999263e+01 1.426809999999999945e+03
2.200000000000000219e-02 4.765854999999999952e-01 -2.521183499999999800e+00 8.069540000000000646e+01 1.426454999999999927e+03
2.299999999999999961e-02 4.763879999999999781e-01 -2.062035000000000284e+00 7.969979999999999620e+01 1.426099999999999909e+03
2.400000000000000050e-02 4.761690000000000089e-01 -1.583040000000000225e+00 7.866734999999999900e+01 1.425730000000000018e+03
2.500000000000000139e-02 4.759314999999999518e-01 -1.086994999999999933e+00 7.758584999999999354e+01 1.425355000000000018e+03
2.600000000000000228e-02 4.756825000000000081e-01 -5.667899999999999050e-01 7.646115000000000350e+01 1.424970000000000027e+03
2.700000000000000316e-02 4.754280000000000173e-01 -1.354499999999969617e-02 7.530930000000000746e+01 1.424575000000000045e+03
2.800000000000000058e-02 4.751739999999999853e-01 5.756000000000001116e-01 7.414660000000000650e+01 1.424170000000000073e+03
2.900000000000000147e-02 4.749185000000000212e-01 1.192474999999999730e+00 7.298050000000000637e+01 1.423769999999999982e+03
3.000000000000000236e-02 4.746584999999999832e-01 1.816584999999999894e+00 7.180485000000000184e+01 1.423360000000000127e+03
3.099999999999999978e-02 4.743859999999999744e-01 2.417429999999999968e+00 7.059919999999999618e+01 1.422945000000000164e+03
3.200000000000000067e-02 4.740909999999999846e-01 2.959439999999999849e+00 6.933259999999999934e+01 1.422514999999999873e+03
3.300000000000000155e-02 4.737649999999999917e-01 3.408180000000000209e+00 6.796975000000000477e+01 1.422059999999999945e+03
3.400000000000000244e-02 4.734019999999999895e-01 3.736604999999999954e+00 6.647999999999998977e+01 1.421575000000000045e+03
3.500000000000000333e-02 4.729995000000000172e-01 3.930020000000000735e+00 6.484470000000000312e+01 1.421054999999999836e+03
3.600000000000000422e-02 4.725614999999999677e-01 3.988735000000000142e+00 6.306324999999999648e+01 1.420494999999999891e+03
3.700000000000000511e-02 4.720974999999999477e-01 3.928224999999999856e+00 6.115619999999999834e+01 1.419904999999999973e+03
3.799999999999999906e-02 4.716199999999999837e-01 3.776610000000000245e+00 5.916460000000000008e+01 1.419295000000000073e+03
3.899999999999999994e-02 4.711435000000000484e-01 3.570494999999999752e+00 5.714560000000000173e+01 1.418670000000000073e+03
4.000000000000000083e-02 4.706855000000000344e-01 3.349809999999999732e+00 5.516665000000000418e+01 1.418055000000000064e+03
4.100000000000000172e-02 4.702614999999999990e-01 3.153500000000000192e+00 5.329864999999999498e+01 1.417460000000000036e+03
4.200000000000000261e-02 4.698849999999999971e-01 3.015925000000000189e+00 5.160930000000000462e+01 1.416914999999999964e+03
4.300000000000000350e-02 4.695664999999999978e-01 2.964810000000000390e+00 5.015845000000000198e+01 1.416434999999999945e+03
4.400000000000000439e-02 4.693140000000000089e-01 3.020660000000000345e+00 4.899445000000000050e+01 1.416019999999999982e+03
4.499999999999999833e-02 4.691324999999999523e-01 3.197405999999999970e+00 4.815330000000000155e+01 1.415699999999999818e+03
4.599999999999999922e-02 4.690265000000000128e-01 3.503649500000000305e+00 4.765879999999999939e+01 1.415474999999999909e+03
4.700000000000000011e-02 4.689959999999999685e-01 3.944259999999999877e+00 4.752370000000000516e+01 1.415355000000000018e+03
4.800000000000000100e-02 4.690415000000000001e-01 4.521849999999999703e+00 4.775244999999999607e+01 1.415340000000000146e+03
4.900000000000000189e-02 4.691629999999999967e-01 5.237809999999999633e+00 4.834275000000000233e+01 1.415440000000000055e+03
5.000000000000000278e-02 4.693585000000000118e-01 6.092769999999999797e+00 4.928770000000000095e+01 1.415644999999999982e+03
5.100000000000000366e-02 4.696264999999999468e-01 7.086495000000000211e+00 5.057670000000000243e+01 1.415960000000000036e+03
5.200000000000000455e-02 4.699649999999999661e-01 8.217349999999999710e+00 5.219625000000000625e+01 1.416369999999999891e+03
5.300000000000000544e-02 4.703705000000000247e-01 9.481580000000001007e+00 5.412984999999999758e+01 1.416889999999999873e+03
5.399999999999999939e-02 4.708390000000000075e-01 1.087261999999999951e+01 5.635739999999999839e+01 1.417500000000000000e+03
5.500000000000000028e-02 4.713644999999999641e-01 1.238056000000000090e+01 5.885519999999999641e+01 1.418200000000000045e+03
5.600000000000000117e-02 4.719420000000000281e-01 1.399218000000000117e+01 6.159560000000000457e+01 1.418980000000000018e+03
5.700000000000000205e-02 4.725635000000000252e-01 1.569101000000000035e+01 6.454734999999999445e+01 1.419829999999999927e+03
5.800000000000000294e-02 4.732214999999999616e-01 1.745814999999999984e+01 6.767605000000000359e+01 1.420744999999999891e+03
5.900000000000000383e-02 4.739084999999999548e-01 1.927303500000000014e+01 7.094535000000000480e+01 1.421720000000000027e+03
6.000000000000000472e-02 4.746154999999999680e-01 2.111449999999999960e+01 7.431799999999999784e+01 1.422730000000000018e+03
6.099999999999999867e-02 4.753350000000000075e-01 2.296185000000000187e+01 7.775769999999999982e+01 1.423775000000000091e+03
6.199999999999999956e-02 4.760610000000000119e-01 2.479560000000000031e+01 8.123000000000000398e+01 1.424840000000000146e+03
6.300000000000000044e-02 4.767859999999999876e-01 2.659830000000000183e+01 8.470374999999999943e+01 1.425920000000000073e+03
6.400000000000000133e-02 4.775059999999999860e-01 2.835519999999999996e+01 8.815295000000000414e+01 1.427000000000000000e+03
6.500000000000000222e-02 4.782170000000000032e-01 3.005425000000000324e+01 9.155584999999999241e+01 1.428085000000000036e+03
6.600000000000000311e-02 4.789154999999999940e-01 3.168639999999999901e+01 9.489664999999999395e+01 1.429154999999999973e+03
6.700000000000000400e-02 4.796004999999999852e-01 3.324530000000000030e+01 9.816364999999998986e+01 1.430210000000000036e+03
6.800000000000000488e-02 4.802714999999999623e-01 3.472719999999999629e+01 1.013521499999999946e+02 1.431250000000000000e+03
6.900000000000000577e-02 4.809289999999999399e-01 3.613049999999999784e+01 1.044604500000000087e+02 1.432269999999999982e+03
7.000000000000000666e-02 4.815720000000000001e-01 3.745529999999999404e+01 1.074901499999999999e+02 1.433275000000000091e+03
7.100000000000000755e-02 4.822030000000000483e-01 3.870300000000000296e+01 1.104470000000000027e+02 1.434255000000000109e+03
7.200000000000000844e-02 4.828230000000000022e-01 3.987600000000000477e+01 1.133370000000000033e+02 1.435224999999999909e+03
7.300000000000000933e-02 4.834334999999999605e-01 4.097710000000000008e+01 1.161680000000000064e+02 1.436170000000000073e+03
7.399999999999999634e-02 4.840360000000000218e-01 4.200914999999999822e+01 1.189480000000000075e+02 1.437105000000000018e+03
7.499999999999999722e-02 4.846309999999999785e-01 4.297480000000000189e+01 1.216820000000000022e+02 1.438025000000000091e+03
7.599999999999999811e-02 4.852194999999999703e-01 4.387624999999999886e+01 1.243764999999999930e+02 1.438940000000000055e+03
7.699999999999999900e-02 4.858020000000000671e-01 4.471484999999999843e+01 1.270330000000000013e+02 1.439835000000000036e+03
7.799999999999999989e-02 4.863770000000000038e-01 4.549110000000000298e+01 1.296525000000000034e+02 1.440720000000000027e+03
7.900000000000000078e-02 4.869449999999999612e-01 4.620470000000000255e+01 1.322315000000000111e+02 1.441594999999999800e+03
8.000000000000000167e-02 4.875034999999999785e-01 4.685434999999999661e+01 1.347665000000000077e+02 1.442454999999999927e+03
8.100000000000000255e-02 4.880514999999999715e-01 4.743795000000000073e+01 1.372489999999999952e+02 1.443300000000000182e+03
8.200000000000000344e-02 4.885860000000000203e-01 4.795304999999999751e+01 1.396699999999999875e+02 1.444130000000000109e+03
8.300000000000000433e-02 4.891044999999999421e-01 4.839639999999999986e+01 1.420174999999999841e+02 1.444934999999999945e+03
8.400000000000000522e-02 4.896044999999999980e-01 4.876480000000000103e+01 1.442804999999999893e+02 1.445720000000000027e+03
8.500000000000000611e-02 4.900840000000000196e-01 4.905514999999999759e+01 1.464460000000000264e+02 1.446469999999999800e+03
8.600000000000000699e-02 4.905395000000000172e-01 4.926454999999999984e+01 1.485014999999999930e+02 1.447190000000000055e+03
8.700000000000000788e-02 4.909689999999999888e-01 4.939074999999999704e+01 1.504359999999999786e+02 1.447875000000000000e+03
8.800000000000000877e-02 4.913699999999999735e-01 4.943205000000000382e+01 1.522389999999999759e+02 1.448514999999999873e+03
8.899999999999999578e-02 4.917420000000000124e-01 4.938765000000000072e+01 1.539019999999999868e+02 1.449119999999999891e+03
8.999999999999999667e-02 4.920820000000000194e-01 4.925775000000000148e+01 1.554180000000000064e+02 1.449670000000000073e+03
9.099999999999999756e-02 4.923899999999999944e-01 4.904344999999999999e+01 1.567835000000000036e+02 1.450179999999999836e+03
9.199999999999999845e-02 4.926665000000000072e-01 4.874694999999999823e+01 1.579965000000000259e+02 1.450644999999999982e+03
9.299999999999999933e-02 4.929104999999999737e-01 4.837140000000000128e+01 1.590570000000000164e+02 1.451055000000000064e+03
9.400000000000000022e-02 4.931229999999999780e-01 4.792109999999999559e+01 1.599679999999999893e+02 1.451414999999999964e+03
9.500000000000000111e-02 4.933055000000000079e-01 4.740115000000000123e+01 1.607350000000000136e+02 1.451730000000000018e+03
9.600000000000000200e-02 4.934589999999999810e-01 4.681744999999999379e+01 1.613639999999999759e+02 1.452000000000000000e+03
9.700000000000000289e-02 4.935849999999999960e-01 4.617664999999999509e+01 1.618650000000000091e+02 1.452219999999999800e+03
9.800000000000000377e-02 4.936869999999999870e-01 4.548619999999999663e+01 1.622475000000000023e+02 1.452404999999999973e+03
9.900000000000000466e-02 4.937659999999999827e-01 4.475354999999999706e+01 1.625229999999999961e+02 1.452549999999999955e+03
1.000000000000000056e-01 4.938250000000000139e-01 4.398685000000000400e+01 1.627040000000000077e+02 1.452659999999999854e+03
1.010000000000000064e-01 4.938670000000000004e-01 4.319395000000000095e+01 1.628029999999999973e+02 1.452740000000000009e+03
1.020000000000000073e-01 4.938934999999999853e-01 4.238285000000000480e+01 1.628335000000000150e+02 1.452795000000000073e+03
1.030000000000000082e-01 4.939084999999999726e-01 4.156105000000000160e+01 1.628070000000000164e+02 1.452829999999999927e+03
1.040000000000000091e-01 4.939139999999999642e-01 4.073570000000000135e+01 1.627369999999999948e+02 1.452840000000000146e+03
1.050000000000000100e-01 4.939109999999999889e-01 3.991310000000000002e+01 1.626324999999999932e+02 1.452835000000000036e+03
1.059999999999999970e-01 4.939025000000000221e-01 3.909869999999999379e+01 1.625049999999999955e+02 1.452815000000000055e+03
1.069999999999999979e-01 4.938905000000000101e-01 3.829719999999999658e+01 1.623625000000000114e+02 1.452789999999999964e+03
1.079999999999999988e-01 4.938749999999999529e-01 3.751200000000000045e+01 1.622104999999999961e+02 1.452755000000000109e+03
1.089999999999999997e-01 4.938580000000000192e-01 3.674540000000000362e+01 1.620545000000000186e+02 1.452719999999999800e+03
1.100000000000000006e-01 4.938394999999999868e-01 3.599869999999999948e+01 1.618979999999999961e+02 1.452680000000000064e+03
1.110000000000000014e-01 4.938199999999999812e-01 3.527209999999999468e+01 1.617415000000000020e+02 1.452634999999999991e+03
1.120000000000000023e-01 4.937984999999999736e-01 3.456470000000000198e+01 1.615844999999999914e+02 1.452585000000000036e+03
1.130000000000000032e-01 4.937755000000000338e-01 3.387480000000000047e+01 1.614259999999999877e+02 1.452534999999999854e+03
1.140000000000000041e-01 4.937489999999999934e-01 3.319995000000000118e+01 1.612609999999999957e+02 1.452485000000000127e+03
1.150000000000000050e-01 4.937194999999999778e-01 3.253710000000000235e+01 1.610860000000000127e+02 1.452424999999999955e+03
1.160000000000000059e-01 4.936849999999999850e-01 3.188284999999999769e+01 1.608965000000000032e+02 1.452365000000000009e+03
1.170000000000000068e-01 4.936444999999999861e-01 3.123355000000000103e+01 1.606860000000000070e+02 1.452300000000000182e+03
1.180000000000000077e-01 4.935969999999999525e-01 3.058545000000000158e+01 1.604505000000000052e+02 1.452224999999999909e+03
1.190000000000000085e-01 4.935420000000000362e-01 2.993505000000000038e+01 1.601829999999999927e+02 1.452139999999999873e+03
1.200000000000000094e-01 4.934784999999999866e-01 2.927899999999999636e+01 1.598799999999999955e+02 1.452045000000000073e+03
1.209999999999999964e-01 4.934049999999999825e-01 2.861449999999999960e+01 1.595369999999999777e+02 1.451934999999999945e+03
1.219999999999999973e-01 4.933220000000000383e-01 2.793904999999999816e+01 1.591504999999999939e+02 1.451815000000000055e+03
1.229999999999999982e-01 4.932285000000000141e-01 2.725084999999999980e+01 1.587194999999999823e+02 1.451684999999999945e+03
1.239999999999999991e-01 4.931244999999999656e-01 2.654879999999999995e+01 1.582415000000000020e+02 1.451539999999999964e+03
1.250000000000000000e-01 4.930109999999999770e-01 2.583239999999999981e+01 1.577175000000000011e+02 1.451375000000000000e+03
1.260000000000000009e-01 4.928875000000000339e-01 2.510184999999999889e+01 1.571490000000000009e+02 1.451204999999999927e+03
1.270000000000000018e-01 4.927544999999999842e-01 2.435819999999999652e+01 1.565389999999999873e+02 1.451009999999999991e+03
1.280000000000000027e-01 4.926144999999999552e-01 2.360309999999999775e+01 1.558899999999999864e+02 1.450809999999999945e+03
1.290000000000000036e-01 4.924665000000000292e-01 2.283885000000000076e+01 1.552069999999999936e+02 1.450599999999999909e+03
1.300000000000000044e-01 4.923130000000000006e-01 2.206844999999999857e+01 1.544964999999999975e+02 1.450380000000000109e+03
1.310000000000000053e-01 4.921559999999999824e-01 2.129520000000000124e+01 1.537644999999999982e+02 1.450150000000000091e+03
1.320000000000000062e-01 4.919959999999999889e-01 2.052299999999999969e+01 1.530180000000000007e+02 1.449909999999999854e+03
1.330000000000000071e-01 4.918344999999999523e-01 1.975605000000000189e+01 1.522640000000000100e+02 1.449674999999999955e+03
1.340000000000000080e-01 4.916739999999999999e-01 1.899880000000000280e+01 1.515104999999999791e+02 1.449434999999999945e+03
1.350000000000000089e-01 4.915154999999999941e-01 1.825570000000000093e+01 1.507659999999999911e+02 1.449194999999999936e+03
1.360000000000000098e-01 4.913610000000000477e-01 1.753115000000000023e+01 1.500364999999999895e+02 1.448954999999999927e+03
1.370000000000000107e-01 4.912119999999999820e-01 1.682959999999999923e+01 1.493309999999999889e+02 1.448724999999999909e+03
1.380000000000000115e-01 4.910695000000000476e-01 1.615500000000000114e+01 1.486545000000000130e+02 1.448500000000000000e+03
1.390000000000000124e-01 4.909350000000000103e-01 1.551090000000000124e+01 1.480129999999999768e+02 1.448284999999999854e+03
1.400000000000000133e-01 4.908089999999999398e-01 1.490054999999999907e+01 1.474125000000000227e+02 1.448079999999999927e+03
1.410000000000000142e-01 4.906935000000000047e-01 1.432624999999999993e+01 1.468565000000000111e+02 1.447890000000000100e+03
1.420000000000000151e-01 4.905869999999999953e-01 1.378992999999999824e+01 1.463464999999999918e+02 1.447714999999999918e+03
1.430000000000000160e-01 4.904915000000000247e-01 1.329270999999999958e+01 1.458849999999999909e+02 1.447545000000000073e+03
1.440000000000000169e-01 4.904060000000000086e-01 1.283498999999999945e+01 1.454724999999999966e+02 1.447400000000000091e+03
1.450000000000000178e-01 4.903305000000000025e-01 1.241645000000000110e+01 1.451080000000000041e+02 1.447264999999999873e+03
1.459999999999999909e-01 4.902644999999999920e-01 1.203605500000000106e+01 1.447884999999999991e+02 1.447139999999999873e+03
1.469999999999999918e-01 4.902064999999999895e-01 1.169216499999999925e+01 1.445120000000000005e+02 1.447034999999999854e+03
1.479999999999999927e-01 4.901569999999999538e-01 1.138271500000000103e+01 1.442729999999999961e+02 1.446934999999999945e+03
1.489999999999999936e-01 4.901134999999999797e-01 1.110504000000000069e+01 1.440685000000000002e+02 1.446849999999999909e+03
1.499999999999999944e-01 4.900764999999999705e-01 1.085623499999999986e+01 1.438919999999999959e+02 1.446779999999999973e+03
1.509999999999999953e-01 4.900424999999999920e-01 1.063313000000000130e+01 1.437390000000000043e+02 1.446715000000000146e+03
1.519999999999999962e-01 4.900130000000000319e-01 1.043245500000000092e+01 1.436034999999999968e+02 1.446650000000000091e+03
1.529999999999999971e-01 4.899850000000000039e-01 1.025098999999999982e+01 1.434794999999999732e+02 1.446595000000000027e+03
1.539999999999999980e-01 4.899584999999999635e-01 1.008560999999999908e+01 1.433625000000000114e+02 1.446549999999999955e+03
1.549999999999999989e-01 4.899314999999999642e-01 9.933244999999999436e+00 1.432485000000000070e+02 1.446500000000000000e+03
1.559999999999999998e-01 4.899040000000000061e-01 9.791264999999999219e+00 1.431320000000000050e+02 1.446454999999999927e+03
1.570000000000000007e-01 4.898760000000000336e-01 9.657130000000000436e+00 1.430104999999999791e+02 1.446404999999999973e+03
1.580000000000000016e-01 4.898455000000000448e-01 9.528850000000000264e+00 1.428815000000000168e+02 1.446360000000000127e+03
1.590000000000000024e-01 4.898129999999999429e-01 9.404550000000000409e+00 1.427425000000000068e+02 1.446305000000000064e+03
