# t [s], A [cm^2], U [cm/s], P [cPa], c [cm/s]
1.000000000000000021e-03 1.273700000000000110e-01 3.121935000000000127e-01 9.113034999999999286e+01 1.801554999999999836e+03
2.000000000000000042e-03 1.273524999999999796e-01 1.728586500000000026e+00 8.832384999999999309e+01 1.801345000000000027e+03
3.000000000000000062e-03 1.272794999999999899e-01 3.442088000000000036e+00 8.475939999999999941e+01 1.800549999999999955e+03
4.000000000000000083e-03 1.271680000000000033e-01 5.329689499999999747e+00 8.084704999999999586e+01 1.799355000000000018e+03
5.000000000000000104e-03 1.270374999999999976e-01 7.346574999999999633e+00 7.719175000000001319e+01 1.797960000000000036e+03
6.000000000000000125e-03 1.269025000000000014e-01 9.403200000000000003e+00 7.409754999999999825e+01 1.796535000000000082e+03
7.000000000000000146e-03 1.267709999999999948e-01 1.136722499999999947e+01 7.152224999999999966e+01 1.795155000000000200e+03
8.000000000000000167e-03 1.266450000000000076e-01 1.313610499999999881e+01 6.927630000000000621e+01 1.793860000000000127e+03
9.000000000000001055e-03 1.265270000000000006e-01 1.468665000000000020e+01 6.726044999999999163e+01 1.792664999999999964e+03
1.000000000000000194e-02 1.264204999999999912e-01 1.604090000000000060e+01 6.549455000000000382e+01 1.791585000000000036e+03
1.099999999999999936e-02 1.263259999999999939e-01 1.721590000000000131e+01 6.400050000000000239e+01 1.790644999999999982e+03
1.200000000000000025e-02 1.262439999999999951e-01 1.821715000000000018e+01 6.275310000000000343e+01 1.789829999999999927e+03
1.300000000000000114e-02 1.261734999999999940e-01 1.904885000000000161e+01 6.170595000000000141e+01 1.789144999999999982e+03
1.400000000000000203e-02 1.261130000000000029e-01 1.971529999999999916e+01 6.080785000000000196e+01 1.788554999999999836e+03
1.499999999999999944e-02 1.260604999999999920e-01 2.022364999999999924e+01 6.000780000000000314e+01 1.788059999999999945e+03
1.600000000000000033e-02 1.260149999999999881e-01 2.059669999999999845e+01 5.928265000000000384e+01 1.787630000000000109e+03
1.700000000000000122e-02 1.259770000000000056e-01 2.088445000000000107e+01 5.867749999999999488e+01 1.787275000000000091e+03
1.800000000000000211e-02 1.259470000000000034e-01 2.115925000000000011e+01 5.831445000000000078e+01 1.787000000000000000e+03
1.900000000000000300e-02 1.259279999999999844e-01 2.149425000000000097e+01 5.834969999999999857e+01 1.786835000000000036e+03
2.000000000000000042e-02 1.259250000000000091e-01 2.193625000000000114e+01 5.890014999999999645e+01 1.786815000000000055e+03
2.100000000000000130e-02 1.259379999999999944e-01 2.248825000000000074e+01 5.998010000000000019e+01 1.786954999999999927e+03
2.200000000000000219e-02 1.259675000000000100e-01 2.310895000000000010e+01 6.147955000000000325e+01 1.787250000000000000e+03
2.299999999999999961e-02 1.260080000000000089e-01 2.372690000000000055e+01 6.318880000000000052e+01 1.787659999999999854e+03
2.400000000000000050e-02 1.260554999999999870e-01 2.426285000000000025e+01 6.485545000000000471e+01 1.788139999999999873e+03
2.500000000000000139e-02 1.261035000000000073e-01 2.465060000000000073e+01 6.624904999999999688e+01 1.788625000000000000e+03
2.600000000000000228e-02 1.261450000000000071e-01 2.485235000000000127e+01 6.721359999999999957e+01 1.789055000000000064e+03
2.700000000000000316e-02 1.261780000000000124e-01 2.486310000000000286e+01 6.769354999999998768e+01 1.789394999999999982e+03
2.800000000000000058e-02 1.261994999999999922e-01 2.470684999999999931e+01 6.773040000000000305e+01 1.789625000000000000e+03
2.900000000000000147e-02 1.262099999999999889e-01 2.442499999999999716e+01 6.743479999999999563e+01 1.789750000000000000e+03
3.000000000000000236e-02 1.262115000000000042e-01 2.406275000000000119e+01 6.694580000000000553e+01 1.789784999999999854e+03
3.099999999999999978e-02 1.262075000000000002e-01 2.365755000000000052e+01 6.639015000000000555e+01 1.789755000000000109e+03
3.200000000000000067e-02 1.261999999999999789e-01 2.323170000000000002e+01 6.585380000000000678e+01 1.789690000000000055e+03
3.300000000000000155e-02 1.261909999999999976e-01 2.279139999999999944e+01 6.537000000000000455e+01 1.789605000000000018e+03
3.400000000000000244e-02 1.261805000000000010e-01 2.233014999999999972e+01 6.492490000000000805e+01 1.789505000000000109e+03
3.500000000000000333e-02 1.261690000000000034e-01 2.183619999999999806e+01 6.447579999999999245e+01 1.789394999999999982e+03
3.600000000000000422e-02 1.261559999999999904e-01 2.129990000000000094e+01 6.397489999999999810e+01 1.789269999999999982e+03
3.700000000000000511e-02 1.261404999999999887e-01 2.072025000000000006e+01 6.339135000000000275e+01 1.789119999999999891e+03
3.799999999999999906e-02 1.261220000000000119e-01 2.010895000000000010e+01 6.272684999999999889e+01 1.788944999999999936e+03
3.899999999999999994e-02 1.261015000000000053e-01 1.948984999999999701e+01 6.202094999999999914e+01 1.788744999999999891e+03
4.000000000000000083e-02 1.260804999999999843e-01 1.889645000000000152e+01 6.134534999999999627e+01 1.788529999999999973e+03
4.100000000000000172e-02 1.260600000000000054e-01 1.836560000000000059e+01 6.078995000000000459e+01 1.788335000000000036e+03
4.200000000000000261e-02 1.260435000000000028e-01 1.793070000000000164e+01 6.044320000000000448e+01 1.788164999999999964e+03
4.300000000000000350e-02 1.260320000000000051e-01 1.761544999999999916e+01 6.037290000000000134e+01 1.788054999999999836e+03
4.400000000000000439e-02 1.260290000000000021e-01 1.742914999999999992e+01 6.061095000000000255e+01 1.788019999999999982e+03
4.499999999999999833e-02 1.260339999999999794e-01 1.736500000000000199e+01 6.114525000000000432e+01 1.788059999999999945e+03
4.599999999999999922e-02 1.260479999999999934e-01 1.740084999999999837e+01 6.192085000000000150e+01 1.788184999999999945e+03
4.700000000000000011e-02 1.260685000000000000e-01 1.750294999999999845e+01 6.284759999999999991e+01 1.788384999999999991e+03
4.800000000000000100e-02 1.260930000000000106e-01 1.763040000000000163e+01 6.381419999999999959e+01 1.788625000000000000e+03
4.900000000000000189e-02 1.261200000000000099e-01 1.774054999999999893e+01 6.470375000000001364e+01 1.788884999999999991e+03
5.000000000000000278e-02 1.261459999999999804e-01 1.779404999999999859e+01 6.540870000000001028e+01 1.789139999999999873e+03
5.100000000000000366e-02 1.261670000000000014e-01 1.775854999999999961e+01 6.584264999999999191e+01 1.789349999999999909e+03
5.200000000000000455e-02 1.261815000000000020e-01 1.761075000000000301e+01 6.594775000000001342e+01 1.789494999999999891e+03
5.300000000000000544e-02 1.261869999999999936e-01 1.733765000000000001e+01 6.569704999999999018e+01 1.789550000000000182e+03
5.399999999999999939e-02 1.261825000000000030e-01 1.693549999999999756e+01 6.509274999999999523e+01 1.789509999999999991e+03
5.500000000000000028e-02 1.261674999999999880e-01 1.640885000000000105e+01 6.416089999999999804e+01 1.789365000000000009e+03
5.600000000000000117e-02 1.261424999999999907e-01 1.576880000000000059e+01 6.294505000000000194e+01 1.789125000000000000e+03
5.700000000000000205e-02 1.261085000000000123e-01 1.503079999999999927e+01 6.149935000000000684e+01 1.788789999999999964e+03
5.800000000000000294e-02 1.260664999999999980e-01 1.421340000000000003e+01 5.988285000000000480e+01 1.788375000000000000e+03
5.900000000000000383e-02 1.260175000000000045e-01 1.333715000000000117e+01 5.815500000000000114e+01 1.787894999999999982e+03
6.000000000000000472e-02 1.259635000000000060e-01 1.242382500000000078e+01 5.637359999999999616e+01 1.787364999999999782e+03
6.099999999999999867e-02 1.259069999999999911e-01 1.149610500000000002e+01 5.459385000000000332e+01 1.786805000000000064e+03
6.199999999999999956e-02 1.258489999999999887e-01 1.057777500000000082e+01 5.286870000000000402e+01 1.786230000000000018e+03
6.300000000000000044e-02 1.257915000000000005e-01 9.693315000000000126e+00 5.124969999999999715e+01 1.785654999999999973e+03
6.400000000000000133e-02 1.257355000000000000e-01 8.868165000000001186e+00 4.978815000000000168e+01 1.785105000000000018e+03
6.500000000000000222e-02 1.256835000000000035e-01 8.128330000000000055e+00 4.853499999999999659e+01 1.784585000000000036e+03
6.600000000000000311e-02 1.256375000000000131e-01 7.499794999999999767e+00 4.754104999999999848e+01 1.784125000000000000e+03
6.700000000000000400e-02 1.255989999999999884e-01 7.007945000000000313e+00 4.685559999999999548e+01 1.783740000000000009e+03
6.800000000000000488e-02 1.255695000000000006e-01 6.676555000000000462e+00 4.652495000000000402e+01 1.783440000000000055e+03
6.900000000000000577e-02 1.255515000000000103e-01 6.526835000000000164e+00 4.659029999999999916e+01 1.783255000000000109e+03
7.000000000000000666e-02 1.255454999999999766e-01 6.576449999999999463e+00 4.708545000000000158e+01 1.783179999999999836e+03
7.100000000000000755e-02 1.255529999999999979e-01 6.838635000000000019e+00 4.803459999999999752e+01 1.783250000000000000e+03
7.200000000000000844e-02 1.255749999999999922e-01 7.321519999999999584e+00 4.945095000000000596e+01 1.783454999999999927e+03
7.300000000000000933e-02 1.256130000000000024e-01 8.027699999999999392e+00 5.133554999999999779e+01 1.783820000000000164e+03
7.399999999999999634e-02 1.256659999999999999e-01 8.954129999999999256e+00 5.367690000000000339e+01 1.784329999999999927e+03
7.499999999999999722e-02 1.257350000000000134e-01 1.009215499999999999e+01 5.645165000000000077e+01 1.785000000000000000e+03
7.599999999999999811e-02 1.258190000000000142e-01 1.142813500000000104e+01 5.962555000000000405e+01 1.785819999999999936e+03
7.699999999999999900e-02 1.259164999999999868e-01 1.294400999999999868e+01 6.315545000000000186e+01 1.786779999999999973e+03
7.799999999999999989e-02 1.260280000000000011e-01 1.461805000000000021e+01 6.699120000000000630e+01 1.787869999999999891e+03
7.900000000000000078e-02 1.261499999999999844e-01 1.642609999999999815e+01 7.107840000000000202e+01 1.789085000000000036e+03
8.000000000000000167e-02 1.262824999999999920e-01 1.834219999999999828e+01 7.536074999999999591e+01 1.790394999999999982e+03
8.100000000000000255e-02 1.264234999999999942e-01 2.033995000000000175e+01 7.978255000000000052e+01 1.791795000000000073e+03
8.200000000000000344e-02 1.265709999999999891e-01 2.239334999999999809e+01 8.429110000000000014e+01 1.793264999999999873e+03
8.300000000000000433e-02 1.267234999999999889e-01 2.447775000000000034e+01 8.883865000000000123e+01 1.794789999999999964e+03
8.400000000000000522e-02 1.268789999999999918e-01 2.657055000000000078e+01 9.338370000000000459e+01 1.796344999999999800e+03
8.500000000000000611e-02 1.270364999999999966e-01 2.865174999999999983e+01 9.789209999999999923e+01 1.797929999999999836e+03
8.600000000000000699e-02 1.271940000000000015e-01 3.070449999999999591e+01 1.023385499999999979e+02 1.799525000000000091e+03
8.700000000000000788e-02 1.273524999999999796e-01 3.271495000000000175e+01 1.067045999999999992e+02 1.801115000000000009e+03
8.800000000000000877e-02 1.275084999999999968e-01 3.467264999999999731e+01 1.109795000000000016e+02 1.802699999999999818e+03
8.899999999999999578e-02 1.276629999999999987e-01 3.657025000000000148e+01 1.151599999999999966e+02 1.804269999999999982e+03
8.999999999999999667e-02 1.278154999999999986e-01 3.840279999999999916e+01 1.192469999999999999e+02 1.805825000000000045e+03
9.099999999999999756e-02 1.279655000000000098e-01 4.016790000000000305e+01 1.232464999999999975e+02 1.807360000000000127e+03
9.199999999999999845e-02 1.281134999999999913e-01 4.186475000000000080e+01 1.271655000000000086e+02 1.808869999999999891e+03
9.299999999999999933e-02 1.282590000000000119e-01 4.349374999999999858e+01 1.310134999999999934e+02 1.810360000000000127e+03
9.400000000000000022e-02 1.284020000000000161e-01 4.505610000000000070e+01 1.347980000000000018e+02 1.811835000000000036e+03
9.500000000000000111e-02 1.285435000000000050e-01 4.655299999999999727e+01 1.385260000000000105e+02 1.813289999999999964e+03
9.600000000000000200e-02 1.286829999999999918e-01 4.798555000000000348e+01 1.422005000000000052e+02 1.814724999999999909e+03
9.700000000000000289e-02 1.288205000000000044e-01 4.935420000000000584e+01 1.458229999999999791e+02 1.816144999999999982e+03
9.800000000000000377e-02 1.289565000000000017e-01 5.065874999999999773e+01 1.493905000000000030e+02 1.817545000000000073e+03
9.900000000000000466e-02 1.290904999999999969e-01 5.189789999999999992e+01 1.528969999999999914e+02 1.818934999999999945e+03
1.000000000000000056e-01 1.292220000000000035e-01 5.306960000000000122e+01 1.563319999999999936e+02 1.820295000000000073e+03
1.010000000000000064e-01 1.293509999999999938e-01 5.417069999999999652e+01 1.596845000000000141e+02 1.821634999999999991e+03
1.020000000000000073e-01 1.294774999999999954e-01 5.519740000000000180e+01 1.629399999999999977e+02 1.822949999999999818e+03
1.030000000000000082e-01 1.296005000000000074e-01 5.614520000000000266e+01 1.660815000000000055e+02 1.824235000000000127e+03
1.040000000000000091e-01 1.297200000000000020e-01 5.700924999999999443e+01 1.690930000000000177e+02 1.825480000000000018e+03
1.050000000000000100e-01 1.298350000000000060e-01 5.778435000000000343e+01 1.719574999999999818e+02 1.826679999999999836e+03
1.059999999999999970e-01 1.299449999999999772e-01 5.846559999999999491e+01 1.746580000000000155e+02 1.827835000000000036e+03
1.069999999999999979e-01 1.300499999999999989e-01 5.904814999999999969e+01 1.771794999999999902e+02 1.828929999999999836e+03
1.079999999999999988e-01 1.301489999999999869e-01 5.952790000000000248e+01 1.795085000000000264e+02 1.829970000000000027e+03
1.089999999999999997e-01 1.302415000000000100e-01 5.990125000000000455e+01 1.816324999999999932e+02 1.830940000000000055e+03
1.100000000000000006e-01 1.303269999999999984e-01 6.016575000000000273e+01 1.835434999999999945e+02 1.831835000000000036e+03
1.110000000000000014e-01 1.304055000000000075e-01 6.031989999999999696e+01 1.852344999999999970e+02 1.832664999999999964e+03
1.120000000000000023e-01 1.304760000000000086e-01 6.036345000000000027e+01 1.867029999999999745e+02 1.833414999999999964e+03
1.130000000000000032e-01 1.305395000000000028e-01 6.029744999999999777e+01 1.879474999999999909e+02 1.834085000000000036e+03
1.140000000000000041e-01 1.305945000000000022e-01 6.012449999999999761e+01 1.889724999999999966e+02 1.834674999999999955e+03
1.150000000000000050e-01 1.306424999999999947e-01 5.984829999999999472e+01 1.897839999999999918e+02 1.835184999999999945e+03
1.160000000000000059e-01 1.306829999999999936e-01 5.947409999999999997e+01 1.903915000000000077e+02 1.835615000000000009e+03
1.170000000000000068e-01 1.307155000000000122e-01 5.900844999999999629e+01 1.908059999999999832e+02 1.835965000000000146e+03
1.180000000000000077e-01 1.307415000000000105e-01 5.845879999999999654e+01 1.910425000000000182e+02 1.836244999999999891e+03
1.190000000000000085e-01 1.307605000000000017e-01 5.783375000000000199e+01 1.911179999999999950e+02 1.836454999999999927e+03
1.200000000000000094e-01 1.307735000000000147e-01 5.714249999999999829e+01 1.910494999999999948e+02 1.836599999999999909e+03
1.209999999999999964e-01 1.307805000000000217e-01 5.639484999999999815e+01 1.908559999999999945e+02 1.836684999999999945e+03
1.219999999999999973e-01 1.307834999999999970e-01 5.560074999999999790e+01 1.905570000000000164e+02 1.836719999999999800e+03
1.229999999999999982e-01 1.307809999999999806e-01 5.476999999999999602e+01 1.901700000000000159e+02 1.836704999999999927e+03
1.239999999999999991e-01 1.307750000000000024e-01 5.391230000000000189e+01 1.897144999999999868e+02 1.836650000000000091e+03
1.250000000000000000e-01 1.307665000000000077e-01 5.303659999999999997e+01 1.892060000000000173e+02 1.836559999999999945e+03
1.260000000000000009e-01 1.307544999999999957e-01 5.215124999999999744e+01 1.886599999999999966e+02 1.836440000000000055e+03
1.270000000000000018e-01 1.307405000000000095e-01 5.126359999999999673e+01 1.880879999999999939e+02 1.836305000000000064e+03
1.280000000000000027e-01 1.307249999999999801e-01 5.037989999999999924e+01 1.875010000000000048e+02 1.836139999999999873e+03
1.290000000000000036e-01 1.307085000000000052e-01 4.950509999999999877e+01 1.869069999999999823e+02 1.835970000000000027e+03
1.300000000000000044e-01 1.306904999999999872e-01 4.864325000000000188e+01 1.863114999999999952e+02 1.835784999999999854e+03
1.310000000000000053e-01 1.306720000000000104e-01 4.779694999999999538e+01 1.857175000000000011e+02 1.835590000000000146e+03
1.320000000000000062e-01 1.306529999999999914e-01 4.696770000000000067e+01 1.851245000000000118e+02 1.835389999999999873e+03
1.330000000000000071e-01 1.306335000000000135e-01 4.615590000000000259e+01 1.845324999999999989e+02 1.835184999999999945e+03
1.340000000000000080e-01 1.306134999999999935e-01 4.536084999999999923e+01 1.839375000000000000e+02 1.834974999999999909e+03
1.350000000000000089e-01 1.305929999999999869e-01 4.458119999999999550e+01 1.833350000000000080e+02 1.834759999999999991e+03
1.360000000000000098e-01 1.305725000000000080e-01 4.381454999999999700e+01 1.827189999999999941e+02 1.834539999999999964e+03
1.370000000000000107e-01 1.305510000000000004e-01 4.305825000000000102e+01 1.820840000000000032e+02 1.834315000000000055e+03
1.380000000000000115e-01 1.305284999999999918e-01 4.230910000000000082e+01 1.814220000000000255e+02 1.834079999999999927e+03
1.390000000000000124e-01 1.305054999999999965e-01 4.156369999999999720e+01 1.807259999999999991e+02 1.833839999999999918e+03
1.400000000000000133e-01 1.304810000000000136e-01 4.081855000000000189e+01 1.799900000000000091e+02 1.833579999999999927e+03
1.410000000000000142e-01 1.304555000000000020e-01 4.007014999999999816e+01 1.792069999999999936e+02 1.833309999999999945e+03
1.420000000000000151e-01 1.304275000000000018e-01 3.931539999999999679e+01 1.783710000000000093e+02 1.833019999999999982e+03
1.430000000000000160e-01 1.303985000000000005e-01 3.855140000000000100e+01 1.774774999999999920e+02 1.832715000000000146e+03
1.440000000000000169e-01 1.303674999999999973e-01 3.777575000000000216e+01 1.765240000000000009e+02 1.832389999999999873e+03
1.450000000000000178e-01 1.303345000000000198e-01 3.698669999999999902e+01 1.755074999999999932e+02 1.832045000000000073e+03
1.459999999999999909e-01 1.302995000000000125e-01 3.618300000000000693e+01 1.744279999999999973e+02 1.831679999999999836e+03
1.469999999999999918e-01 1.302619999999999889e-01 3.536430000000000007e+01 1.732860000000000014e+02 1.831289999999999964e+03
1.479999999999999927e-01 1.302224999999999910e-01 3.453095000000000425e+01 1.720840000000000032e+02 1.830880000000000109e+03
1.489999999999999936e-01 1.301809999999999912e-01 3.368399999999999750e+01 1.708269999999999982e+02 1.830444999999999936e+03
1.499999999999999944e-01 1.301374999999999893e-01 3.282545000000000357e+01 1.695199999999999818e+02 1.829994999999999891e+03
1.509999999999999953e-01 1.300924999999999998e-01 3.195790000000000219e+01 1.681709999999999923e+02 1.829525000000000091e+03
1.519999999999999962e-01 1.300455000000000083e-01 3.108469999999999800e+01 1.667880000000000109e+02 1.829039999999999964e+03
1.529999999999999971e-01 1.299970000000000014e-01 3.020994999999999919e+01 1.653815000000000168e+02 1.828539999999999964e+03
1.539999999999999980e-01 1.299480000000000079e-01 2.933800000000000097e+01 1.639619999999999891e+02 1.828025000000000091e+03
1.549999999999999989e-01 1.298980000000000135e-01 2.847380000000000422e+01 1.625409999999999968e+02 1.827509999999999991e+03
1.559999999999999998e-01 1.298479999999999912e-01 2.762235000000000085e+01 1.611299999999999955e+02 1.826985000000000127e+03
1.570000000000000007e-01 1.297975000000000101e-01 2.678885000000000005e+01 1.597404999999999973e+02 1.826464999999999918e+03
1.580000000000000016e-01 1.297474999999999878e-01 2.597834999999999894e+01 1.583840000000000146e+02 1.825944999999999936e+03
1.590000000000000024e-01 1.296984999999999943e-01 2.519565000000000055e+01 1.570709999999999980e+02 1.825434999999999945e+03
