# t [s], A [cm^2], U [cm/s], P [cPa], c [cm/s]
1.000000000000000021e-03 1.728474999999999873e-01 3.023872999999999700e-01 9.185144999999999982e+01 2.097605000000000018e+03
2.000000000000000042e-03 1.728029999999999844e-01 1.752014499999999808e+00 8.865995000000000914e+01 2.097190000000000055e+03
3.000000000000000062e-03 1.726825000000000165e-01 3.541527499999999939e+00 8.423714999999999975e+01 2.096114999999999782e+03
4.000000000000000083e-03 1.725185000000000191e-01 5.557113500000000705e+00 7.946269999999999811e+01 2.094675000000000182e+03
5.000000000000000104e-03 1.723445000000000116e-01 7.726914999999999978e+00 7.523935000000000173e+01 2.093154999999999745e+03
6.000000000000000125e-03 1.721779999999999977e-01 9.864135000000000986e+00 7.182704999999999984e+01 2.091725000000000364e+03
7.000000000000000146e-03 1.720224999999999949e-01 1.174621000000000137e+01 6.892350000000000421e+01 2.090414999999999964e+03
8.000000000000000167e-03 1.718804999999999916e-01 1.330408000000000079e+01 6.630105000000000359e+01 2.089244999999999891e+03
9.000000000000001055e-03 1.717565000000000064e-01 1.458735000000000070e+01 6.404564999999999486e+01 2.088235000000000127e+03
1.000000000000000194e-02 1.716535000000000144e-01 1.563100000000000023e+01 6.223470000000000368e+01 2.087404999999999745e+03
1.099999999999999936e-02 1.715705000000000147e-01 1.645110000000000028e+01 6.083585000000000065e+01 2.086739999999999782e+03
1.200000000000000025e-02 1.715055000000000052e-01 1.706234999999999857e+01 5.978150000000000119e+01 2.086224999999999909e+03
1.300000000000000114e-02 1.714539999999999953e-01 1.746614999999999895e+01 5.895714999999999861e+01 2.085835000000000036e+03
1.400000000000000203e-02 1.714125000000000232e-01 1.767555000000000121e+01 5.823874999999999602e+01 2.085525000000000091e+03
1.499999999999999944e-02 1.713790000000000036e-01 1.777045000000000030e+01 5.765680000000000405e+01 2.085279999999999745e+03
1.600000000000000033e-02 1.713600000000000123e-01 1.790474999999999994e+01 5.749495000000000289e+01 2.085144999999999982e+03
1.700000000000000122e-02 1.713649999999999896e-01 1.823689999999999856e+01 5.815820000000000078e+01 2.085194999999999709e+03
1.800000000000000211e-02 1.714014999999999844e-01 1.883854999999999791e+01 5.989600000000000080e+01 2.085494999999999891e+03
1.900000000000000300e-02 1.714704999999999979e-01 1.964824999999999733e+01 6.259195000000000420e+01 2.086050000000000182e+03
2.000000000000000042e-02 1.715615000000000057e-01 2.049535000000000196e+01 6.575504999999999711e+01 2.086789999999999964e+03
2.100000000000000130e-02 1.716575000000000184e-01 2.117255000000000109e+01 6.869915000000000305e+01 2.087585000000000036e+03
2.200000000000000219e-02 1.717409999999999770e-01 2.151615000000000322e+01 7.080074999999999363e+01 2.088284999999999854e+03
2.299999999999999961e-02 1.717969999999999775e-01 2.146034999999999826e+01 7.171264999999999645e+01 2.088775000000000091e+03
2.400000000000000050e-02 1.718210000000000015e-01 2.104744999999999777e+01 7.145310000000000628e+01 2.089000000000000000e+03
2.500000000000000139e-02 1.718155000000000099e-01 2.039690000000000225e+01 7.034915000000000873e+01 2.088985000000000127e+03
2.600000000000000228e-02 1.717909999999999993e-01 1.965104999999999791e+01 6.887595000000000312e+01 2.088800000000000182e+03
2.700000000000000316e-02 1.717585000000000084e-01 1.892170000000000130e+01 6.746825000000001182e+01 2.088539999999999964e+03
2.800000000000000058e-02 1.717275000000000051e-01 1.825864999999999938e+01 6.638004999999999711e+01 2.088284999999999854e+03
2.900000000000000147e-02 1.717009999999999925e-01 1.764649999999999963e+01 6.563490000000000180e+01 2.088065000000000055e+03
3.000000000000000236e-02 1.716785000000000116e-01 1.702599999999999980e+01 6.506834999999999525e+01 2.087880000000000109e+03
3.099999999999999978e-02 1.716560000000000030e-01 1.632870000000000132e+01 6.443125000000000568e+01 2.087694999999999709e+03
3.200000000000000067e-02 1.716274999999999884e-01 1.551115000000000066e+01 6.351019999999999754e+01 2.087460000000000036e+03
3.300000000000000155e-02 1.715889999999999915e-01 1.457920000000000016e+01 6.222535000000000593e+01 2.087159999999999854e+03
3.400000000000000244e-02 1.715420000000000000e-01 1.359319999999999951e+01 6.067524999999999835e+01 2.086784999999999854e+03
3.500000000000000333e-02 1.714914999999999912e-01 1.265569999999999951e+01 5.911764999999999759e+01 2.086369999999999891e+03
3.600000000000000422e-02 1.714455000000000007e-01 1.188309999999999889e+01 5.789379999999999882e+01 2.085989999999999782e+03
3.700000000000000511e-02 1.714134999999999964e-01 1.137310000000000088e+01 5.732435000000000258e+01 2.085725000000000364e+03
3.799999999999999906e-02 1.714040000000000008e-01 1.117759999999999998e+01 5.761169999999999902e+01 2.085630000000000109e+03
3.899999999999999994e-02 1.714204999999999757e-01 1.128885000000000005e+01 5.877924999999999756e+01 2.085739999999999782e+03
4.000000000000000083e-02 1.714610000000000023e-01 1.164140000000000086e+01 6.066150000000000375e+01 2.086055000000000291e+03
4.100000000000000172e-02 1.715209999999999790e-01 1.212744999999999962e+01 6.294310000000000116e+01 2.086524999999999636e+03
4.200000000000000261e-02 1.715889999999999915e-01 1.261909999999999954e+01 6.522865000000000180e+01 2.087074999999999818e+03
4.300000000000000350e-02 1.716544999999999876e-01 1.299239999999999995e+01 6.712309999999999377e+01 2.087610000000000127e+03
4.400000000000000439e-02 1.717064999999999841e-01 1.314594999999999914e+01 6.830144999999998845e+01 2.088034999999999854e+03
4.499999999999999833e-02 1.717359999999999998e-01 1.301350000000000051e+01 6.855485000000000184e+01 2.088289999999999964e+03
4.599999999999999922e-02 1.717370000000000008e-01 1.256674999999999898e+01 6.780760000000000787e+01 2.088315000000000055e+03
4.700000000000000011e-02 1.717084999999999861e-01 1.181242999999999910e+01 6.610644999999999527e+01 2.088090000000000146e+03
4.800000000000000100e-02 1.716504999999999836e-01 1.078358000000000061e+01 6.359035000000000082e+01 2.087635000000000218e+03
4.900000000000000189e-02 1.715675000000000117e-01 9.529400000000000759e+00 6.045129999999999626e+01 2.086965000000000146e+03
5.000000000000000278e-02 1.714640000000000053e-01 8.106049999999999756e+00 5.689674999999999727e+01 2.086135000000000218e+03
5.100000000000000366e-02 1.713474999999999859e-01 6.569984999999999964e+00 5.312154999999999916e+01 2.085184999999999945e+03
5.200000000000000455e-02 1.712219999999999853e-01 4.974495000000000111e+00 4.929225000000000279e+01 2.084159999999999854e+03
5.300000000000000544e-02 1.710935000000000095e-01 3.369011000000000422e+00 4.554439999999999600e+01 2.083109999999999673e+03
5.399999999999999939e-02 1.709660000000000069e-01 1.800345000000000084e+00 4.198794999999999789e+01 2.082065000000000055e+03
5.500000000000000028e-02 1.708434999999999815e-01 3.142700000000000493e-01 3.871715000000000373e+01 2.081060000000000400e+03
5.600000000000000117e-02 1.707299999999999929e-01 -1.043235000000000134e+00 3.581985000000000241e+01 2.080125000000000000e+03
5.700000000000000205e-02 1.706280000000000019e-01 -2.225932999999999939e+00 3.338340000000000174e+01 2.079284999999999854e+03
5.800000000000000294e-02 1.705419999999999991e-01 -3.188625000000000043e+00 3.149569999999999936e+01 2.078570000000000164e+03
5.900000000000000383e-02 1.704749999999999877e-01 -3.889580000000000037e+00 3.024089999999999989e+01 2.078000000000000000e+03
6.000000000000000472e-02 1.704289999999999972e-01 -4.293560000000000265e+00 2.969235000000000113e+01 2.077614999999999782e+03
6.099999999999999867e-02 1.704080000000000039e-01 -4.374940000000000495e+00 2.990359999999999729e+01 2.077420000000000073e+03
6.199999999999999956e-02 1.704124999999999945e-01 -4.120210000000000150e+00 3.090080000000000027e+01 2.077430000000000291e+03
6.300000000000000044e-02 1.704440000000000122e-01 -3.529374999999999929e+00 3.267730000000000246e+01 2.077659999999999854e+03
6.400000000000000133e-02 1.705015000000000003e-01 -2.616210999999999842e+00 3.519219999999999970e+01 2.078110000000000127e+03
6.500000000000000222e-02 1.705845000000000000e-01 -1.407315000000000094e+00 3.837245000000000061e+01 2.078760000000000218e+03
6.600000000000000311e-02 1.706894999999999940e-01 5.979500000000004256e-02 4.211825000000000330e+01 2.079605000000000018e+03
6.700000000000000400e-02 1.708144999999999802e-01 1.739280000000000159e+00 4.631034999999999968e+01 2.080605000000000018e+03
6.800000000000000488e-02 1.709555000000000102e-01 3.579802499999999998e+00 5.081865000000000521e+01 2.081750000000000000e+03
6.900000000000000577e-02 1.711075000000000235e-01 5.527529999999999610e+00 5.551044999999999874e+01 2.082980000000000018e+03
7.000000000000000666e-02 1.712670000000000026e-01 7.528979999999999784e+00 6.025864999999999583e+01 2.084284999999999854e+03
7.100000000000000755e-02 1.714295000000000124e-01 9.533794999999999575e+00 6.494854999999999734e+01 2.085614999999999782e+03
7.200000000000000844e-02 1.715915000000000079e-01 1.149701500000000109e+01 6.948375000000000057e+01 2.086949999999999818e+03
7.300000000000000933e-02 1.717494999999999994e-01 1.338113500000000045e+01 7.379040000000000532e+01 2.088250000000000000e+03
7.399999999999999634e-02 1.719014999999999849e-01 1.515760000000000041e+01 7.782019999999999982e+01 2.089515000000000327e+03
7.499999999999999722e-02 1.720450000000000035e-01 1.680740000000000123e+01 8.155115000000000691e+01 2.090710000000000036e+03
7.599999999999999811e-02 1.721799999999999997e-01 1.832155000000000200e+01 8.498669999999999902e+01 2.091835000000000036e+03
7.699999999999999900e-02 1.723065000000000013e-01 1.970019999999999882e+01 8.815264999999999418e+01 2.092889999999999873e+03
7.799999999999999989e-02 1.724240000000000217e-01 2.095139999999999958e+01 9.109274999999999523e+01 2.093885000000000218e+03
7.900000000000000078e-02 1.725349999999999939e-01 2.208899999999999864e+01 9.386250000000001137e+01 2.094819999999999709e+03
8.000000000000000167e-02 1.726409999999999889e-01 2.313119999999999976e+01 9.652320000000000277e+01 2.095710000000000036e+03
8.100000000000000255e-02 1.727434999999999943e-01 2.409769999999999968e+01 9.913409999999998945e+01 2.096574999999999818e+03
8.200000000000000344e-02 1.728445000000000120e-01 2.500789999999999935e+01 1.017495000000000118e+02 2.097425000000000182e+03
8.300000000000000433e-02 1.729454999999999742e-01 2.587910000000000110e+01 1.044120000000000061e+02 2.098274999999999636e+03
8.400000000000000522e-02 1.730475000000000207e-01 2.672500000000000142e+01 1.071495000000000033e+02 2.099135000000000218e+03
8.500000000000000611e-02 1.731515000000000137e-01 2.755505000000000138e+01 1.099739999999999895e+02 2.100005000000000109e+03
8.600000000000000699e-02 1.732579999999999953e-01 2.837340000000000018e+01 1.128840000000000003e+02 2.100900000000000091e+03
8.700000000000000788e-02 1.733659999999999923e-01 2.917960000000000065e+01 1.158609999999999900e+02 2.101814999999999600e+03
8.800000000000000877e-02 1.734769999999999923e-01 2.996829999999999927e+01 1.188744999999999976e+02 2.102739999999999782e+03
8.899999999999999578e-02 1.735879999999999923e-01 3.073029999999999973e+01 1.218859999999999957e+02 2.103679999999999836e+03
8.999999999999999667e-02 1.736985000000000057e-01 3.145315000000000083e+01 1.248485000000000014e+02 2.104605000000000018e+03
9.099999999999999756e-02 1.738069999999999893e-01 3.212215000000000487e+01 1.277125000000000057e+02 2.105519999999999982e+03
9.199999999999999845e-02 1.739120000000000110e-01 3.272149999999999892e+01 1.304279999999999973e+02 2.106404999999999745e+03
9.299999999999999933e-02 1.740114999999999856e-01 3.323505000000000109e+01 1.329460000000000264e+02 2.107244999999999891e+03
9.400000000000000022e-02 1.741040000000000088e-01 3.364764999999999873e+01 1.352235000000000014e+02 2.108029999999999745e+03
9.500000000000000111e-02 1.741885000000000239e-01 3.394565000000000055e+01 1.372235000000000014e+02 2.108744999999999891e+03
9.600000000000000200e-02 1.742630000000000012e-01 3.411795000000000044e+01 1.389175000000000182e+02 2.109385000000000218e+03
9.700000000000000289e-02 1.743270000000000097e-01 3.415664999999999907e+01 1.402849999999999966e+02 2.109929999999999836e+03
9.800000000000000377e-02 1.743800000000000072e-01 3.405740000000000123e+01 1.413174999999999955e+02 2.110385000000000218e+03
9.900000000000000466e-02 1.744209999999999927e-01 3.381989999999999696e+01 1.420155000000000030e+02 2.110744999999999891e+03
1.000000000000000056e-01 1.744509999999999950e-01 3.344785000000000252e+01 1.423919999999999959e+02 2.111010000000000218e+03
1.010000000000000064e-01 1.744700000000000140e-01 3.294895000000000351e+01 1.424660000000000082e+02 2.111179999999999836e+03
1.020000000000000073e-01 1.744780000000000220e-01 3.233440000000000225e+01 1.422674999999999841e+02 2.111255000000000109e+03
1.030000000000000082e-01 1.744769999999999932e-01 3.161865000000000236e+01 1.418329999999999984e+02 2.111255000000000109e+03
1.040000000000000091e-01 1.744664999999999966e-01 3.081844999999999857e+01 1.412040000000000077e+02 2.111185000000000400e+03
1.050000000000000100e-01 1.744499999999999940e-01 2.995230000000000103e+01 1.404234999999999900e+02 2.111050000000000182e+03
1.059999999999999970e-01 1.744275000000000131e-01 2.903940000000000055e+01 1.395369999999999777e+02 2.110864999999999782e+03
1.069999999999999979e-01 1.744010000000000005e-01 2.809909999999999997e+01 1.385875000000000057e+02 2.110650000000000091e+03
1.079999999999999988e-01 1.743715000000000126e-01 2.714989999999999881e+01 1.376154999999999973e+02 2.110409999999999854e+03
1.089999999999999997e-01 1.743410000000000237e-01 2.620864999999999867e+01 1.366574999999999989e+02 2.110154999999999745e+03
1.100000000000000006e-01 1.743100000000000205e-01 2.529030000000000200e+01 1.357425000000000068e+02 2.109899999999999636e+03
1.110000000000000014e-01 1.742799999999999905e-01 2.440715000000000146e+01 1.348940000000000055e+02 2.109644999999999982e+03
1.120000000000000023e-01 1.742520000000000180e-01 2.356844999999999857e+01 1.341274999999999977e+02 2.109404999999999745e+03
1.130000000000000032e-01 1.742259999999999920e-01 2.278014999999999901e+01 1.334515000000000100e+02 2.109184999999999945e+03
1.140000000000000041e-01 1.742025000000000101e-01 2.204509999999999792e+01 1.328650000000000091e+02 2.108980000000000018e+03
1.150000000000000050e-01 1.741814999999999891e-01 2.136280000000000001e+01 1.323615000000000066e+02 2.108804999999999836e+03
1.160000000000000059e-01 1.741630000000000122e-01 2.072970000000000113e+01 1.319265000000000043e+02 2.108640000000000327e+03
1.170000000000000068e-01 1.741459999999999952e-01 2.013945000000000007e+01 1.315420000000000016e+02 2.108500000000000000e+03
1.180000000000000077e-01 1.741314999999999946e-01 1.958375000000000199e+01 1.311835000000000093e+02 2.108364999999999782e+03
1.190000000000000085e-01 1.741165000000000074e-01 1.905249999999999844e+01 1.308240000000000123e+02 2.108239999999999782e+03
1.200000000000000094e-01 1.741019999999999790e-01 1.853450000000000131e+01 1.304350000000000023e+02 2.108114999999999782e+03
1.209999999999999964e-01 1.740865000000000051e-01 1.801834999999999809e+01 1.299900000000000091e+02 2.107980000000000018e+03
1.219999999999999973e-01 1.740685000000000149e-01 1.749305000000000021e+01 1.294624999999999773e+02 2.107829999999999927e+03
1.229999999999999982e-01 1.740475000000000216e-01 1.694855000000000089e+01 1.288315000000000055e+02 2.107654999999999745e+03
1.239999999999999991e-01 1.740240000000000120e-01 1.637655000000000172e+01 1.280780000000000030e+02 2.107449999999999818e+03
1.250000000000000000e-01 1.739959999999999840e-01 1.577084999999999937e+01 1.271924999999999955e+02 2.107215000000000146e+03
1.260000000000000009e-01 1.739629999999999788e-01 1.512770000000000081e+01 1.261694999999999993e+02 2.106940000000000055e+03
1.270000000000000018e-01 1.739259999999999973e-01 1.444644999999999868e+01 1.250134999999999934e+02 2.106635000000000218e+03
1.280000000000000027e-01 1.738844999999999974e-01 1.372905000000000086e+01 1.237334999999999923e+02 2.106289999999999964e+03
1.290000000000000036e-01 1.738389999999999935e-01 1.298045000000000115e+01 1.223470000000000084e+02 2.105904999999999745e+03
1.300000000000000044e-01 1.737894999999999857e-01 1.220820000000000149e+01 1.208774999999999977e+02 2.105494999999999891e+03
1.310000000000000053e-01 1.737380000000000035e-01 1.142196999999999996e+01 1.193530000000000086e+02 2.105059999999999945e+03
1.320000000000000062e-01 1.736840000000000050e-01 1.063319999999999865e+01 1.178040000000000020e+02 2.104609999999999673e+03
1.330000000000000071e-01 1.736290000000000056e-01 9.854385000000000616e+00 1.162655000000000030e+02 2.104150000000000091e+03
1.340000000000000080e-01 1.735745000000000204e-01 9.098575000000000301e+00 1.147694999999999936e+02 2.103699999999999818e+03
1.350000000000000089e-01 1.735214999999999952e-01 8.378440000000001220e+00 1.133490000000000038e+02 2.103255000000000109e+03
1.360000000000000098e-01 1.734709999999999863e-01 7.706014999999999837e+00 1.120324999999999989e+02 2.102829999999999927e+03
1.370000000000000107e-01 1.734239999999999948e-01 7.091849999999999987e+00 1.108439999999999941e+02 2.102434999999999945e+03
1.380000000000000115e-01 1.733810000000000073e-01 6.544690000000000119e+00 1.098044999999999902e+02 2.102069999999999709e+03
1.390000000000000124e-01 1.733429999999999971e-01 6.071089999999999876e+00 1.089260000000000019e+02 2.101744999999999891e+03
1.400000000000000133e-01 1.733104999999999785e-01 5.675254999999999939e+00 1.082169999999999987e+02 2.101465000000000146e+03
1.410000000000000142e-01 1.732835000000000070e-01 5.358900000000000219e+00 1.076769999999999925e+02 2.101235000000000127e+03
1.420000000000000151e-01 1.732619999999999993e-01 5.121375000000000455e+00 1.073034999999999997e+02 2.101050000000000182e+03
1.430000000000000160e-01 1.732464999999999977e-01 4.959754999999999470e+00 1.070854999999999961e+02 2.100914999999999964e+03
1.440000000000000169e-01 1.732360000000000011e-01 4.869134999999999991e+00 1.070090000000000003e+02 2.100819999999999709e+03
1.450000000000000178e-01 1.732305000000000095e-01 4.842945000000000277e+00 1.070575000000000045e+02 2.100769999999999982e+03
1.459999999999999909e-01 1.732299999999999951e-01 4.873255000000000337e+00 1.072104999999999961e+02 2.100750000000000000e+03
1.469999999999999918e-01 1.732325000000000115e-01 4.951229999999999798e+00 1.074470000000000027e+02 2.100764999999999873e+03
1.479999999999999927e-01 1.732380000000000031e-01 5.067454999999999821e+00 1.077460000000000093e+02 2.100809999999999945e+03
1.489999999999999936e-01 1.732460000000000111e-01 5.212315000000000254e+00 1.080865000000000009e+02 2.100875000000000000e+03
1.499999999999999944e-01 1.732560000000000211e-01 5.376355000000000217e+00 1.084480000000000075e+02 2.100949999999999818e+03
1.509999999999999953e-01 1.732670000000000043e-01 5.550559999999999938e+00 1.088114999999999952e+02 2.101039999999999964e+03
1.519999999999999962e-01 1.732775000000000010e-01 5.726644999999999541e+00 1.091624999999999943e+02 2.101125000000000000e+03
1.529999999999999971e-01 1.732885000000000120e-01 5.897260000000000169e+00 1.094860000000000042e+02 2.101215000000000146e+03
1.539999999999999980e-01 1.732989999999999808e-01 6.056200000000000472e+00 1.097719999999999914e+02 2.101304999999999836e+03
1.549999999999999989e-01 1.733080000000000176e-01 6.198479999999999990e+00 1.100125000000000028e+02 2.101380000000000109e+03
1.559999999999999998e-01 1.733159999999999978e-01 6.320454999999999934e+00 1.102025000000000006e+02 2.101444999999999709e+03
1.570000000000000007e-01 1.733224999999999905e-01 6.419800000000000395e+00 1.103404999999999916e+02 2.101500000000000000e+03
1.580000000000000016e-01 1.733270000000000088e-01 6.495485000000000397e+00 1.104269999999999925e+02 2.101545000000000073e+03
1.590000000000000024e-01 1.733304999999999985e-01 6.547679999999999723e+00 1.104660000000000082e+02 2.101569999999999709e+03
