# t [s], A [cm^2], U [cm/s], P [cPa], c [cm/s]
1.000000000000000021e-03 2.000215000000000187e-01 2.982004999999999795e-01 1.024320000000000022e+02 2.125570000000000164e+03
2.000000000000000042e-03 1.999644999999999895e-01 1.887246499999999827e+00 9.895869999999999322e+01 2.125109999999999673e+03
3.000000000000000062e-03 1.998099999999999876e-01 3.874980499999999495e+00 9.405564999999999998e+01 2.123914999999999964e+03
4.000000000000000083e-03 1.996005000000000140e-01 6.124247500000000066e+00 8.868115000000000236e+01 2.122324999999999818e+03
5.000000000000000104e-03 1.993765000000000120e-01 8.548394999999999300e+00 8.385165000000000646e+01 2.120644999999999982e+03
6.000000000000000125e-03 1.991629999999999789e-01 1.093970500000000001e+01 7.989265000000000327e+01 2.119059999999999945e+03
7.000000000000000146e-03 1.989640000000000020e-01 1.305105000000000004e+01 7.651019999999999754e+01 2.117610000000000127e+03
8.000000000000000167e-03 1.987829999999999875e-01 1.480037499999999895e+01 7.346899999999999409e+01 2.116319999999999709e+03
9.000000000000001055e-03 1.986260000000000248e-01 1.623714999999999975e+01 7.085845000000000482e+01 2.115210000000000036e+03
1.000000000000000194e-02 1.984954999999999914e-01 1.740064999999999884e+01 6.876060000000001082e+01 2.114305000000000291e+03
1.099999999999999936e-02 1.983904999999999974e-01 1.831370000000000076e+01 6.714735000000000298e+01 2.113585000000000036e+03
1.200000000000000025e-02 1.983099999999999863e-01 1.899719999999999942e+01 6.595144999999999413e+01 2.113039999999999964e+03
1.300000000000000114e-02 1.982480000000000075e-01 1.945489999999999853e+01 6.504534999999999911e+01 2.112625000000000000e+03
1.400000000000000203e-02 1.981984999999999997e-01 1.970139999999999958e+01 6.428549999999999898e+01 2.112305000000000291e+03
1.499999999999999944e-02 1.981600000000000028e-01 1.982450000000000045e+01 6.369800000000000750e+01 2.112065000000000055e+03
1.600000000000000033e-02 1.981404999999999972e-01 1.999065000000000225e+01 6.358280000000000598e+01 2.111949999999999818e+03
1.700000000000000122e-02 1.981505000000000072e-01 2.036800000000000210e+01 6.436410000000000764e+01 2.112034999999999854e+03
1.800000000000000211e-02 1.981999999999999873e-01 2.102720000000000056e+01 6.628775000000000261e+01 2.112380000000000109e+03
1.900000000000000300e-02 1.982879999999999920e-01 2.189499999999999957e+01 6.920159999999999911e+01 2.112989999999999782e+03
2.000000000000000042e-02 1.983999999999999930e-01 2.278470000000000084e+01 7.255889999999999418e+01 2.113784999999999854e+03
2.100000000000000130e-02 1.985155000000000114e-01 2.347670000000000101e+01 7.562255000000000393e+01 2.114605000000000018e+03
2.200000000000000219e-02 1.986120000000000108e-01 2.380584999999999951e+01 7.774635000000000673e+01 2.115310000000000400e+03
2.299999999999999961e-02 1.986740000000000173e-01 2.371614999999999895e+01 7.859899999999998954e+01 2.115779999999999745e+03
2.400000000000000050e-02 1.986970000000000125e-01 2.326740000000000208e+01 7.824559999999999604e+01 2.115980000000000018e+03
2.500000000000000139e-02 1.986874999999999891e-01 2.259635000000000105e+01 7.707065000000000055e+01 2.115940000000000055e+03
2.600000000000000228e-02 1.986574999999999869e-01 2.185585000000000022e+01 7.559279999999999688e+01 2.115739999999999782e+03
2.700000000000000316e-02 1.986215000000000064e-01 2.115769999999999840e+01 7.425990000000000180e+01 2.115485000000000127e+03
2.800000000000000058e-02 1.985885000000000011e-01 2.054185000000000016e+01 7.330549999999999500e+01 2.115260000000000218e+03
2.900000000000000147e-02 1.985635000000000039e-01 1.997775000000000034e+01 7.270904999999999063e+01 2.115069999999999709e+03
3.000000000000000236e-02 1.985419999999999963e-01 1.939114999999999966e+01 7.225575000000000614e+01 2.114925000000000182e+03
3.099999999999999978e-02 1.985184999999999866e-01 1.870439999999999969e+01 7.165855000000000530e+01 2.114755000000000109e+03
3.200000000000000067e-02 1.984854999999999814e-01 1.787415000000000020e+01 7.069259999999999877e+01 2.114530000000000200e+03
3.300000000000000155e-02 1.984400000000000053e-01 1.691544999999999987e+01 6.929874999999999829e+01 2.114210000000000036e+03
3.400000000000000244e-02 1.983830000000000038e-01 1.590530000000000044e+01 6.762274999999999636e+01 2.113820000000000164e+03
3.500000000000000333e-02 1.983219999999999983e-01 1.496359999999999957e+01 6.598059999999999548e+01 2.113385000000000218e+03
3.600000000000000422e-02 1.982690000000000008e-01 1.421910000000000096e+01 6.476234999999999786e+01 2.113010000000000218e+03
3.700000000000000511e-02 1.982359999999999955e-01 1.377255000000000074e+01 6.431139999999999191e+01 2.112764999999999873e+03
3.799999999999999906e-02 1.982329999999999925e-01 1.366835000000000022e+01 6.481880000000001019e+01 2.112720000000000255e+03
3.899999999999999994e-02 1.982614999999999794e-01 1.388299999999999912e+01 6.626645000000000607e+01 2.112900000000000091e+03
4.000000000000000083e-02 1.983195000000000097e-01 1.433215000000000039e+01 6.843049999999999500e+01 2.113289999999999964e+03
4.100000000000000172e-02 1.983969999999999900e-01 1.489014999999999844e+01 7.093614999999999782e+01 2.113824999999999818e+03
4.200000000000000261e-02 1.984819999999999918e-01 1.541729999999999912e+01 7.334290000000000020e+01 2.114414999999999964e+03
4.300000000000000350e-02 1.985589999999999855e-01 1.578490000000000038e+01 7.523385000000000389e+01 2.114960000000000036e+03
4.400000000000000439e-02 1.986160000000000148e-01 1.589535000000000053e+01 7.628879999999999484e+01 2.115375000000000000e+03
4.499999999999999833e-02 1.986430000000000140e-01 1.569190000000000040e+01 7.632644999999999413e+01 2.115579999999999927e+03
4.599999999999999922e-02 1.986344999999999916e-01 1.515984999999999872e+01 7.531305000000000405e+01 2.115539999999999964e+03
4.700000000000000011e-02 1.985905000000000031e-01 1.431990000000000052e+01 7.334170000000000300e+01 2.115244999999999891e+03
4.800000000000000100e-02 1.985140000000000238e-01 1.321710000000000029e+01 7.059194999999999709e+01 2.114720000000000255e+03
4.900000000000000189e-02 1.984104999999999897e-01 1.190911000000000008e+01 6.728459999999999752e+01 2.113994999999999891e+03
5.000000000000000278e-02 1.982869999999999910e-01 1.045674999999999955e+01 6.364154999999999518e+01 2.113135000000000218e+03
5.100000000000000366e-02 1.981505000000000072e-01 8.917870000000000630e+00 5.985930000000000462e+01 2.112175000000000182e+03
5.200000000000000455e-02 1.980079999999999896e-01 7.345234999999999737e+00 5.609819999999999851e+01 2.111164999999999964e+03
5.300000000000000544e-02 1.978639999999999843e-01 5.787459999999999383e+00 5.248470000000000368e+01 2.110150000000000091e+03
5.399999999999999939e-02 1.977249999999999841e-01 4.291063000000000294e+00 4.912194999999999823e+01 2.109159999999999854e+03
5.500000000000000028e-02 1.975939999999999919e-01 2.902909500000000254e+00 4.610250000000000625e+01 2.108230000000000018e+03
5.600000000000000117e-02 1.974764999999999993e-01 1.671310000000000073e+00 4.351829999999999643e+01 2.107385000000000218e+03
5.700000000000000205e-02 1.973754999999999815e-01 6.455899999999999972e-01 4.146589999999999776e+01 2.106659999999999854e+03
5.800000000000000294e-02 1.972949999999999982e-01 -1.260550000000000281e-01 4.004410000000000025e+01 2.106079999999999927e+03
5.900000000000000383e-02 1.972399999999999987e-01 -5.998769999999999936e-01 3.934709999999999752e+01 2.105670000000000073e+03
6.000000000000000472e-02 1.972129999999999994e-01 -7.403545000000000265e-01 3.945414999999999850e+01 2.105465000000000146e+03
6.099999999999999867e-02 1.972174999999999900e-01 -5.236551000000000400e-01 4.041904999999999859e+01 2.105470000000000255e+03
6.199999999999999956e-02 1.972559999999999869e-01 5.988000000000004430e-02 4.226149999999999807e+01 2.105715000000000146e+03
6.300000000000000044e-02 1.973280000000000034e-01 1.004684999999999828e+00 4.496309999999999718e+01 2.106194999999999709e+03
6.400000000000000133e-02 1.974325000000000108e-01 2.290275000000000283e+00 4.846654999999999802e+01 2.106914999999999964e+03
6.500000000000000222e-02 1.975679999999999936e-01 3.882878499999999899e+00 5.268094999999999573e+01 2.107845000000000255e+03
6.600000000000000311e-02 1.977309999999999901e-01 5.737934999999999341e+00 5.748789999999999623e+01 2.108980000000000018e+03
6.700000000000000400e-02 1.979164999999999952e-01 7.803094999999999892e+00 6.275159999999999627e+01 2.110274999999999636e+03
6.800000000000000488e-02 1.981200000000000183e-01 1.002152000000000065e+01 6.832755000000000223e+01 2.111710000000000036e+03
6.900000000000000577e-02 1.983360000000000123e-01 1.233483000000000018e+01 7.407210000000000605e+01 2.113239999999999782e+03
7.000000000000000666e-02 1.985605000000000009e-01 1.468655000000000044e+01 7.985079999999999245e+01 2.114829999999999927e+03
7.100000000000000755e-02 1.987869999999999915e-01 1.702465000000000117e+01 8.554545000000000243e+01 2.116440000000000055e+03
7.200000000000000844e-02 1.990109999999999935e-01 1.930389999999999873e+01 9.106000000000000227e+01 2.118045000000000073e+03
7.300000000000000933e-02 1.992304999999999771e-01 2.148809999999999931e+01 9.632470000000000709e+01 2.119614999999999782e+03
7.399999999999999634e-02 1.994414999999999938e-01 2.355120000000000147e+01 1.012983499999999992e+02 2.121140000000000327e+03
7.499999999999999722e-02 1.996425000000000005e-01 2.547775000000000034e+01 1.059689500000000066e+02 2.122590000000000146e+03
7.599999999999999811e-02 1.998334999999999972e-01 2.726265000000000072e+01 1.103499999999999943e+02 2.123974999999999909e+03
7.699999999999999900e-02 2.000155000000000127e-01 2.890980000000000061e+01 1.144765000000000015e+02 2.125300000000000182e+03
7.799999999999999989e-02 2.001890000000000058e-01 3.043025000000000091e+01 1.184009999999999962e+02 2.126559999999999945e+03
7.900000000000000078e-02 2.003550000000000053e-01 3.183999999999999986e+01 1.221810000000000116e+02 2.127764999999999873e+03
8.000000000000000167e-02 2.005159999999999998e-01 3.315749999999999886e+01 1.258774999999999977e+02 2.128944999999999709e+03
8.100000000000000255e-02 2.006740000000000190e-01 3.440115000000000123e+01 1.295450000000000159e+02 2.130105000000000018e+03
8.200000000000000344e-02 2.008309999999999818e-01 3.558755000000000024e+01 1.332259999999999991e+02 2.131250000000000000e+03
8.300000000000000433e-02 2.009890000000000010e-01 3.672950000000000159e+01 1.369480000000000075e+02 2.132394999999999982e+03
8.400000000000000522e-02 2.011470000000000202e-01 3.783534999999999826e+01 1.407225000000000250e+02 2.133550000000000182e+03
8.500000000000000611e-02 2.013064999999999993e-01 3.890845000000000198e+01 1.445434999999999945e+02 2.134715000000000146e+03
8.600000000000000699e-02 2.014674999999999938e-01 3.994684999999999775e+01 1.483890000000000100e+02 2.135889999999999873e+03
8.700000000000000788e-02 2.016279999999999739e-01 4.094404999999999717e+01 1.522244999999999777e+02 2.137064999999999600e+03
8.800000000000000877e-02 2.017875000000000085e-01 4.188954999999999984e+01 1.560060000000000002e+02 2.138230000000000018e+03
8.899999999999999578e-02 2.019444999999999990e-01 4.276989999999999981e+01 1.596814999999999998e+02 2.139375000000000000e+03
8.999999999999999667e-02 2.020965000000000122e-01 4.356954999999999956e+01 1.631980000000000075e+02 2.140489999999999782e+03
9.099999999999999756e-02 2.022414999999999907e-01 4.427210000000000178e+01 1.665024999999999977e+02 2.141555000000000291e+03
9.199999999999999845e-02 2.023784999999999890e-01 4.486144999999999783e+01 1.695430000000000064e+02 2.142564999999999600e+03
9.299999999999999933e-02 2.025045000000000039e-01 4.532254999999999967e+01 1.722760000000000105e+02 2.143489999999999782e+03
9.400000000000000022e-02 2.026179999999999926e-01 4.564235000000000042e+01 1.746649999999999920e+02 2.144335000000000036e+03
9.500000000000000111e-02 2.027184999999999959e-01 4.581095000000000539e+01 1.766815000000000282e+02 2.145074999999999818e+03
9.600000000000000200e-02 2.028035000000000254e-01 4.582184999999999775e+01 1.783085000000000093e+02 2.145710000000000036e+03
9.700000000000000289e-02 2.028739999999999988e-01 4.567249999999999943e+01 1.795395000000000039e+02 2.146239999999999782e+03
9.800000000000000377e-02 2.029285000000000116e-01 4.536485000000000412e+01 1.803799999999999955e+02 2.146650000000000091e+03
9.900000000000000466e-02 2.029675000000000229e-01 4.490529999999999688e+01 1.808464999999999918e+02 2.146954999999999927e+03
1.000000000000000056e-01 2.029920000000000058e-01 4.430429999999999779e+01 1.809669999999999845e+02 2.147150000000000091e+03
1.010000000000000064e-01 2.030035000000000034e-01 4.357635000000000502e+01 1.807764999999999986e+02 2.147239999999999782e+03
1.020000000000000073e-01 2.030020000000000158e-01 4.273874999999999602e+01 1.803184999999999718e+02 2.147244999999999891e+03
1.030000000000000082e-01 2.029900000000000038e-01 4.181159999999999854e+01 1.796410000000000196e+02 2.147170000000000073e+03
1.040000000000000091e-01 2.029694999999999971e-01 4.081615000000000038e+01 1.787944999999999993e+02 2.147019999999999982e+03
1.050000000000000100e-01 2.029414999999999969e-01 3.977420000000000044e+01 1.778299999999999841e+02 2.146829999999999927e+03
1.059999999999999970e-01 2.029084999999999916e-01 3.870714999999999861e+01 1.767964999999999804e+02 2.146590000000000146e+03
1.069999999999999979e-01 2.028719999999999968e-01 3.763510000000000133e+01 1.757379999999999995e+02 2.146335000000000036e+03
1.079999999999999988e-01 2.028340000000000143e-01 3.657604999999999507e+01 1.746924999999999955e+02 2.146055000000000291e+03
1.089999999999999997e-01 2.027959999999999763e-01 3.554525000000000290e+01 1.736910000000000025e+02 2.145779999999999745e+03
1.100000000000000006e-01 2.027585000000000082e-01 3.455490000000000350e+01 1.727574999999999932e+02 2.145510000000000218e+03
1.110000000000000014e-01 2.027235000000000009e-01 3.361350000000000193e+01 1.719055000000000177e+02 2.145250000000000000e+03
1.120000000000000023e-01 2.026910000000000101e-01 3.272610000000000241e+01 1.711410000000000196e+02 2.145005000000000109e+03
1.130000000000000032e-01 2.026609999999999800e-01 3.189399999999999835e+01 1.704610000000000127e+02 2.144780000000000200e+03
1.140000000000000041e-01 2.026335000000000219e-01 3.111475000000000080e+01 1.698545000000000016e+02 2.144574999999999818e+03
1.150000000000000050e-01 2.026084999999999969e-01 3.038319999999999865e+01 1.693034999999999854e+02 2.144389999999999873e+03
1.160000000000000059e-01 2.025855000000000017e-01 2.969099999999999895e+01 1.687855000000000132e+02 2.144210000000000036e+03
1.170000000000000068e-01 2.025625000000000064e-01 2.902789999999999893e+01 1.682715000000000032e+02 2.144045000000000073e+03
1.180000000000000077e-01 2.025394999999999834e-01 2.838224999999999909e+01 1.677325000000000159e+02 2.143875000000000000e+03
1.190000000000000085e-01 2.025160000000000016e-01 2.774164999999999992e+01 1.671374999999999886e+02 2.143694999999999709e+03
1.200000000000000094e-01 2.024894999999999889e-01 2.709384999999999977e+01 1.664574999999999818e+02 2.143494999999999891e+03
1.209999999999999964e-01 2.024595000000000145e-01 2.642745000000000033e+01 1.656670000000000016e+02 2.143279999999999745e+03
1.219999999999999973e-01 2.024254999999999804e-01 2.573275000000000290e+01 1.647445000000000164e+02 2.143025000000000091e+03
1.229999999999999982e-01 2.023860000000000103e-01 2.500215000000000032e+01 1.636750000000000114e+02 2.142739999999999782e+03
1.239999999999999991e-01 2.023409999999999931e-01 2.423075000000000045e+01 1.624519999999999982e+02 2.142420000000000073e+03
1.250000000000000000e-01 2.022904999999999842e-01 2.341669999999999874e+01 1.610759999999999934e+02 2.142050000000000182e+03
1.260000000000000009e-01 2.022339999999999971e-01 2.256139999999999901e+01 1.595550000000000068e+02 2.141640000000000327e+03
1.270000000000000018e-01 2.021725000000000050e-01 2.166929999999999978e+01 1.579055000000000177e+02 2.141194999999999709e+03
1.280000000000000027e-01 2.021060000000000079e-01 2.074784999999999968e+01 1.561519999999999868e+02 2.140710000000000036e+03
1.290000000000000036e-01 2.020349999999999924e-01 1.980715000000000003e+01 1.543230000000000075e+02 2.140195000000000164e+03
1.300000000000000044e-01 2.019624999999999893e-01 1.885920000000000130e+01 1.524530000000000030e+02 2.139664999999999964e+03
1.310000000000000053e-01 2.018874999999999975e-01 1.791774999999999807e+01 1.505780000000000030e+02 2.139125000000000000e+03
1.320000000000000062e-01 2.018125000000000058e-01 1.699680000000000035e+01 1.487359999999999900e+02 2.138574999999999818e+03
1.330000000000000071e-01 2.017390000000000017e-01 1.611070000000000135e+01 1.469639999999999986e+02 2.138039999999999964e+03
1.340000000000000080e-01 2.016680000000000139e-01 1.527299999999999969e+01 1.452940000000000111e+02 2.137519999999999982e+03
1.350000000000000089e-01 2.016010000000000024e-01 1.449564999999999948e+01 1.437565000000000168e+02 2.137034999999999854e+03
1.360000000000000098e-01 2.015385000000000093e-01 1.378900000000000148e+01 1.423745000000000118e+02 2.136574999999999818e+03
1.370000000000000107e-01 2.014825000000000088e-01 1.316075000000000017e+01 1.411655000000000086e+02 2.136159999999999854e+03
1.380000000000000115e-01 2.014325000000000143e-01 1.261615000000000109e+01 1.401390000000000100e+02 2.135789999999999964e+03
1.390000000000000124e-01 2.013894999999999991e-01 1.215760000000000041e+01 1.392980000000000018e+02 2.135475000000000364e+03
1.400000000000000133e-01 2.013540000000000052e-01 1.178494999999999848e+01 1.386399999999999864e+02 2.135210000000000036e+03
1.410000000000000142e-01 2.013254999999999906e-01 1.149535000000000018e+01 1.381544999999999845e+02 2.134994999999999891e+03
1.420000000000000151e-01 2.013030000000000097e-01 1.128385000000000105e+01 1.378280000000000030e+02 2.134824999999999818e+03
1.430000000000000160e-01 2.012869999999999937e-01 1.114344999999999963e+01 1.376415000000000077e+02 2.134699999999999818e+03
1.440000000000000169e-01 2.012764999999999971e-01 1.106589999999999918e+01 1.375734999999999957e+02 2.134614999999999782e+03
1.450000000000000178e-01 2.012705000000000188e-01 1.104170000000000051e+01 1.376024999999999920e+02 2.134565000000000055e+03
1.459999999999999909e-01 2.012689999999999757e-01 1.106084999999999852e+01 1.377040000000000077e+02 2.134550000000000182e+03
1.469999999999999918e-01 2.012700000000000045e-01 1.111319999999999908e+01 1.378559999999999945e+02 2.134545000000000073e+03
1.479999999999999927e-01 2.012725000000000208e-01 1.118870000000000076e+01 1.380360000000000014e+02 2.134569999999999709e+03
1.489999999999999936e-01 2.012774999999999981e-01 1.127789999999999893e+01 1.382255000000000109e+02 2.134600000000000364e+03
1.499999999999999944e-01 2.012825000000000031e-01 1.137204999999999977e+01 1.384064999999999941e+02 2.134630000000000109e+03
1.509999999999999953e-01 2.012875000000000081e-01 1.146340000000000003e+01 1.385645000000000095e+02 2.134670000000000073e+03
1.519999999999999962e-01 2.012924999999999853e-01 1.154555000000000042e+01 1.386879999999999882e+02 2.134699999999999818e+03
1.529999999999999971e-01 2.012960000000000027e-01 1.161315000000000097e+01 1.387685000000000173e+02 2.134725000000000364e+03
1.539999999999999980e-01 2.012980000000000047e-01 1.166244999999999976e+01 1.388009999999999877e+02 2.134739999999999782e+03
1.549999999999999989e-01 2.012984999999999913e-01 1.169089999999999918e+01 1.387819999999999823e+02 2.134739999999999782e+03
1.559999999999999998e-01 2.012970000000000037e-01 1.169729999999999848e+01 1.387129999999999939e+02 2.134735000000000127e+03
1.570000000000000007e-01 2.012935000000000141e-01 1.168179999999999907e+01 1.385964999999999918e+02 2.134715000000000146e+03
1.580000000000000016e-01 2.012889999999999957e-01 1.164564999999999984e+01 1.384379999999999882e+02 2.134679999999999836e+03
1.590000000000000024e-01 2.012825000000000031e-01 1.159100000000000108e+01 1.382434999999999832e+02 2.134639999999999873e+03
