# t [s], A [cm^2], U [cm/s], P [cPa], c [cm/s]
1.000000000000000021e-03 1.545174999999999743e-01 3.168759999999999910e-01 9.990305000000000746e+01 1.966490000000000009e+03
2.000000000000000042e-03 1.544785000000000186e-01 1.911965000000000137e+00 9.664400000000000546e+01 1.966140000000000100e+03
3.000000000000000062e-03 1.543630000000000002e-01 3.880604000000000386e+00 9.218600000000000705e+01 1.965130000000000109e+03
4.000000000000000083e-03 1.541990000000000027e-01 6.084720500000000420e+00 8.726815000000000566e+01 1.963730000000000018e+03
5.000000000000000104e-03 1.540175000000000016e-01 8.456464999999999677e+00 8.276204999999998790e+01 1.962190000000000055e+03
6.000000000000000125e-03 1.538399999999999768e-01 1.083830999999999989e+01 7.901930000000000121e+01 1.960700000000000045e+03
7.000000000000000146e-03 1.536724999999999897e-01 1.301928000000000019e+01 7.586375000000001023e+01 1.959320000000000164e+03
8.000000000000000167e-03 1.535165000000000002e-01 1.488719500000000018e+01 7.303245000000001141e+01 1.958055000000000064e+03
9.000000000000001055e-03 1.533769999999999856e-01 1.646290000000000120e+01 7.051959999999999695e+01 1.956940000000000055e+03
1.000000000000000194e-02 1.532564999999999900e-01 1.778819999999999979e+01 6.841270000000000095e+01 1.955985000000000127e+03
1.099999999999999936e-02 1.531555000000000000e-01 1.888159999999999883e+01 6.671299999999999386e+01 1.955194999999999936e+03
1.200000000000000025e-02 1.530730000000000146e-01 1.975945000000000107e+01 6.537305000000000632e+01 1.954559999999999945e+03
1.300000000000000114e-02 1.530070000000000041e-01 2.043444999999999823e+01 6.432630000000000337e+01 1.954055000000000064e+03
1.400000000000000203e-02 1.529535000000000200e-01 2.091165000000000163e+01 6.347330000000000183e+01 1.953654999999999973e+03
1.499999999999999944e-02 1.529099999999999904e-01 2.121894999999999953e+01 6.274184999999999945e+01 1.953335000000000036e+03
1.600000000000000033e-02 1.528760000000000119e-01 2.144095000000000084e+01 6.220175000000000409e+01 1.953090000000000146e+03
1.700000000000000122e-02 1.528565000000000063e-01 2.170864999999999867e+01 6.209349999999999881e+01 1.952954999999999927e+03
1.800000000000000211e-02 1.528585000000000083e-01 2.214229999999999876e+01 6.270815000000000339e+01 1.952980000000000018e+03
1.900000000000000300e-02 1.528875000000000095e-01 2.278920000000000101e+01 6.419935000000000969e+01 1.953220000000000027e+03
2.000000000000000042e-02 1.529435000000000100e-01 2.359640000000000271e+01 6.645544999999999902e+01 1.953660000000000082e+03
2.100000000000000130e-02 1.530185000000000017e-01 2.443039999999999878e+01 6.910345000000000937e+01 1.954255000000000109e+03
2.200000000000000219e-02 1.531000000000000139e-01 2.512854999999999706e+01 7.163009999999999877e+01 1.954909999999999854e+03
2.299999999999999961e-02 1.531739999999999768e-01 2.555610000000000070e+01 7.355385000000001128e+01 1.955514999999999873e+03
2.400000000000000050e-02 1.532290000000000041e-01 2.564739999999999753e+01 7.457439999999999714e+01 1.955974999999999909e+03
2.500000000000000139e-02 1.532600000000000073e-01 2.541879999999999740e+01 7.464669999999999561e+01 1.956240000000000009e+03
2.600000000000000228e-02 1.532660000000000133e-01 2.495260000000000034e+01 7.396245000000000402e+01 1.956315000000000055e+03
2.700000000000000316e-02 1.532534999999999870e-01 2.436064999999999969e+01 7.285585000000000377e+01 1.956235000000000127e+03
2.800000000000000058e-02 1.532310000000000061e-01 2.374490000000000123e+01 7.167555000000000121e+01 1.956065000000000055e+03
2.900000000000000147e-02 1.532054999999999945e-01 2.316720000000000113e+01 7.067369999999999663e+01 1.955865000000000009e+03
3.000000000000000236e-02 1.531830000000000136e-01 2.263929999999999865e+01 6.994610000000000127e+01 1.955684999999999945e+03
3.099999999999999978e-02 1.531639999999999946e-01 2.213049999999999784e+01 6.943420000000000414e+01 1.955535000000000082e+03
3.200000000000000067e-02 1.531470000000000053e-01 2.158879999999999910e+01 6.897814999999999941e+01 1.955394999999999982e+03
3.300000000000000155e-02 1.531274999999999997e-01 2.096645000000000181e+01 6.839539999999999509e+01 1.955244999999999891e+03
3.400000000000000244e-02 1.531024999999999747e-01 2.024195000000000277e+01 6.755805000000000859e+01 1.955054999999999836e+03
3.500000000000000333e-02 1.530694999999999972e-01 1.943325000000000102e+01 6.644740000000000180e+01 1.954795000000000073e+03
3.600000000000000422e-02 1.530305000000000137e-01 1.859769999999999968e+01 6.517069999999999652e+01 1.954490000000000009e+03
3.700000000000000511e-02 1.529889999999999861e-01 1.781969999999999743e+01 6.393774999999999409e+01 1.954164999999999964e+03
3.799999999999999906e-02 1.529524999999999912e-01 1.719020000000000081e+01 6.300454999999999472e+01 1.953875000000000000e+03
3.899999999999999994e-02 1.529274999999999940e-01 1.678330000000000055e+01 6.260309999999999775e+01 1.953664999999999964e+03
4.000000000000000083e-02 1.529194999999999860e-01 1.663765000000000072e+01 6.287725000000000364e+01 1.953590000000000146e+03
4.100000000000000172e-02 1.529324999999999990e-01 1.674735000000000085e+01 6.384390000000000498e+01 1.953674999999999955e+03
4.200000000000000261e-02 1.529645000000000032e-01 1.706260000000000332e+01 6.538579999999998904e+01 1.953920000000000073e+03
4.300000000000000350e-02 1.530130000000000101e-01 1.750025000000000119e+01 6.727590000000000714e+01 1.954289999999999964e+03
4.400000000000000439e-02 1.530699999999999839e-01 1.795964999999999989e+01 6.922325000000000728e+01 1.954730000000000018e+03
4.499999999999999833e-02 1.531270000000000131e-01 1.833930000000000149e+01 7.092660000000000764e+01 1.955179999999999836e+03
4.599999999999999922e-02 1.531760000000000066e-01 1.855205000000000126e+01 7.212405000000001110e+01 1.955570000000000164e+03
4.700000000000000011e-02 1.532094999999999985e-01 1.853475000000000250e+01 7.262864999999999327e+01 1.955845000000000027e+03
4.800000000000000100e-02 1.532220000000000248e-01 1.825319999999999965e+01 7.234640000000000271e+01 1.955950000000000045e+03
4.900000000000000189e-02 1.532104999999999995e-01 1.770125000000000171e+01 7.127520000000001232e+01 1.955880000000000109e+03
5.000000000000000278e-02 1.531750000000000056e-01 1.689604999999999890e+01 6.948955000000000837e+01 1.955610000000000127e+03
5.100000000000000366e-02 1.531170000000000031e-01 1.587150000000000105e+01 6.711634999999999707e+01 1.955154999999999973e+03
5.200000000000000455e-02 1.530404999999999960e-01 1.467094999999999949e+01 6.430854999999999677e+01 1.954554999999999836e+03
5.300000000000000544e-02 1.529484999999999872e-01 1.334120000000000061e+01 6.122230000000000416e+01 1.953839999999999918e+03
5.399999999999999939e-02 1.528470000000000106e-01 1.192880000000000074e+01 5.800135000000000218e+01 1.953035000000000082e+03
5.500000000000000028e-02 1.527390000000000136e-01 1.047788000000000075e+01 5.476944999999999908e+01 1.952175000000000182e+03
5.600000000000000117e-02 1.526290000000000147e-01 9.030290000000000816e+00 5.162999999999999545e+01 1.951300000000000182e+03
5.700000000000000205e-02 1.525199999999999889e-01 7.626260000000000261e+00 4.867085000000000150e+01 1.950440000000000055e+03
5.800000000000000294e-02 1.524165000000000103e-01 6.305445000000000633e+00 4.597034999999999627e+01 1.949610000000000127e+03
5.900000000000000383e-02 1.523209999999999842e-01 5.107804999999999929e+00 4.360325000000000273e+01 1.948845000000000027e+03
6.000000000000000472e-02 1.522354999999999958e-01 4.073260000000000325e+00 4.164399999999999835e+01 1.948154999999999973e+03
6.099999999999999867e-02 1.521639999999999937e-01 3.240775000000000183e+00 4.016700000000000159e+01 1.947575000000000045e+03
6.199999999999999956e-02 1.521084999999999798e-01 2.646479999999999944e+00 3.924330000000000496e+01 1.947125000000000000e+03
6.300000000000000044e-02 1.520719999999999850e-01 2.321429999999999882e+00 3.893585000000000207e+01 1.946819999999999936e+03
6.400000000000000133e-02 1.520569999999999977e-01 2.289270000000000138e+00 3.929279999999999973e+01 1.946684999999999945e+03
6.500000000000000222e-02 1.520644999999999913e-01 2.564259999999999984e+00 4.034229999999999450e+01 1.946724999999999909e+03
6.600000000000000311e-02 1.520954999999999946e-01 3.150020000000000486e+00 4.208794999999999931e+01 1.946960000000000036e+03
6.700000000000000400e-02 1.521514999999999951e-01 4.039064999999999905e+00 4.450719999999999743e+01 1.947380000000000109e+03
6.800000000000000488e-02 1.522300000000000042e-01 5.213275000000000325e+00 4.755199999999999960e+01 1.947980000000000018e+03
6.900000000000000577e-02 1.523304999999999798e-01 6.645075000000000287e+00 5.115200000000000102e+01 1.948764999999999873e+03
7.000000000000000666e-02 1.524510000000000032e-01 8.299189999999999401e+00 5.521914999999999907e+01 1.949704999999999927e+03
7.100000000000000755e-02 1.525880000000000014e-01 1.013461999999999996e+01 5.965335000000000321e+01 1.950780000000000200e+03
7.200000000000000844e-02 1.527390000000000136e-01 1.210705999999999882e+01 6.434890000000000043e+01 1.951969999999999800e+03
7.300000000000000933e-02 1.529000000000000081e-01 1.417077000000000098e+01 6.919989999999999952e+01 1.953255000000000109e+03
7.399999999999999634e-02 1.530684999999999962e-01 1.628105000000000047e+01 7.410570000000001301e+01 1.954589999999999918e+03
7.499999999999999722e-02 1.532399999999999873e-01 1.839574999999999960e+01 7.897585000000000832e+01 1.955954999999999927e+03
7.599999999999999811e-02 1.534119999999999928e-01 2.047729999999999961e+01 8.373319999999999652e+01 1.957335000000000036e+03
7.699999999999999900e-02 1.535819999999999963e-01 2.249405000000000143e+01 8.831759999999999877e+01 1.958700000000000045e+03
7.799999999999999989e-02 1.537474999999999814e-01 2.442105000000000103e+01 9.268715000000000259e+01 1.960029999999999973e+03
7.900000000000000078e-02 1.539069999999999883e-01 2.624130000000000251e+01 9.681995000000000573e+01 1.961325000000000045e+03
8.000000000000000167e-02 1.540600000000000025e-01 2.794519999999999982e+01 1.007119500000000016e+02 1.962565000000000055e+03
8.100000000000000255e-02 1.542054999999999954e-01 2.953065000000000140e+01 1.043764000000000038e+02 1.963750000000000000e+03
8.200000000000000344e-02 1.543444999999999956e-01 3.100205000000000055e+01 1.078419999999999987e+02 1.964880000000000109e+03
8.300000000000000433e-02 1.544770000000000032e-01 3.236889999999999645e+01 1.111454999999999984e+02 1.965965000000000146e+03
8.400000000000000522e-02 1.546045000000000058e-01 3.364434999999999576e+01 1.143310000000000031e+02 1.967009999999999991e+03
8.500000000000000611e-02 1.547284999999999910e-01 3.484355000000000047e+01 1.174440000000000026e+02 1.968019999999999982e+03
8.600000000000000699e-02 1.548495000000000010e-01 3.598214999999999719e+01 1.205250000000000057e+02 1.969014999999999873e+03
8.700000000000000788e-02 1.549694999999999823e-01 3.707455000000000211e+01 1.236105000000000018e+02 1.969994999999999891e+03
8.800000000000000877e-02 1.550894999999999913e-01 3.813280000000000314e+01 1.267255000000000109e+02 1.970974999999999909e+03
8.899999999999999578e-02 1.552089999999999859e-01 3.916584999999999894e+01 1.298849999999999909e+02 1.971960000000000036e+03
8.999999999999999667e-02 1.553304999999999825e-01 4.017875000000000085e+01 1.330914999999999964e+02 1.972950000000000045e+03
9.099999999999999756e-02 1.554524999999999935e-01 4.117269999999999897e+01 1.363374999999999773e+02 1.973950000000000045e+03
9.199999999999999845e-02 1.555754999999999777e-01 4.214499999999999602e+01 1.396030000000000086e+02 1.974954999999999927e+03
9.299999999999999933e-02 1.556990000000000041e-01 4.308934999999999604e+01 1.428609999999999900e+02 1.975965000000000146e+03
9.400000000000000022e-02 1.558220000000000161e-01 4.399649999999999750e+01 1.460779999999999745e+02 1.976970000000000027e+03
9.500000000000000111e-02 1.559425000000000117e-01 4.485500000000000398e+01 1.492150000000000034e+02 1.977960000000000036e+03
9.600000000000000200e-02 1.560604999999999909e-01 4.565170000000000528e+01 1.522305000000000064e+02 1.978929999999999836e+03
9.700000000000000289e-02 1.561739999999999795e-01 4.637284999999999968e+01 1.550860000000000127e+02 1.979865000000000009e+03
9.800000000000000377e-02 1.562819999999999765e-01 4.700464999999999804e+01 1.577415000000000020e+02 1.980750000000000000e+03
9.900000000000000466e-02 1.563825000000000076e-01 4.753405000000000058e+01 1.601619999999999777e+02 1.981579999999999927e+03
1.000000000000000056e-01 1.564754999999999896e-01 4.794955000000000211e+01 1.623190000000000168e+02 1.982345000000000027e+03
1.010000000000000064e-01 1.565590000000000037e-01 4.824155000000000371e+01 1.641879999999999882e+02 1.983039999999999964e+03
1.020000000000000073e-01 1.566325000000000078e-01 4.840299999999999869e+01 1.657520000000000095e+02 1.983650000000000091e+03
1.030000000000000082e-01 1.566950000000000010e-01 4.842990000000000350e+01 1.670029999999999859e+02 1.984175000000000182e+03
1.040000000000000091e-01 1.567469999999999974e-01 4.832124999999999915e+01 1.679390000000000214e+02 1.984610000000000127e+03
1.050000000000000100e-01 1.567874999999999963e-01 4.807945000000000135e+01 1.685679999999999836e+02 1.984954999999999927e+03
1.059999999999999970e-01 1.568174999999999986e-01 4.771000000000000085e+01 1.689035000000000082e+02 1.985215000000000146e+03
1.069999999999999979e-01 1.568364999999999898e-01 4.722169999999999845e+01 1.689675000000000011e+02 1.985380000000000109e+03
1.079999999999999988e-01 1.568459999999999854e-01 4.662584999999999980e+01 1.687860000000000014e+02 1.985470000000000027e+03
1.089999999999999997e-01 1.568464999999999998e-01 4.593614999999999782e+01 1.683919999999999959e+02 1.985485000000000127e+03
1.100000000000000006e-01 1.568395000000000206e-01 4.516795000000000471e+01 1.678204999999999814e+02 1.985440000000000055e+03
1.110000000000000014e-01 1.568255000000000066e-01 4.433769999999999811e+01 1.671075000000000159e+02 1.985329999999999927e+03
1.120000000000000023e-01 1.568054999999999866e-01 4.346229999999999905e+01 1.662909999999999968e+02 1.985174999999999955e+03
1.130000000000000032e-01 1.567819999999999769e-01 4.255845000000000056e+01 1.654064999999999941e+02 1.984985000000000127e+03
1.140000000000000041e-01 1.567550000000000054e-01 4.164194999999999425e+01 1.644869999999999948e+02 1.984764999999999873e+03
1.150000000000000050e-01 1.567260000000000042e-01 4.072729999999999961e+01 1.635625000000000000e+02 1.984534999999999854e+03
1.160000000000000059e-01 1.566965000000000163e-01 3.982724999999999937e+01 1.626574999999999989e+02 1.984289999999999964e+03
1.170000000000000068e-01 1.566664999999999863e-01 3.895215000000000316e+01 1.617914999999999850e+02 1.984045000000000073e+03
1.180000000000000077e-01 1.566369999999999985e-01 3.811010000000000275e+01 1.609780000000000086e+02 1.983804999999999836e+03
1.190000000000000085e-01 1.566089999999999982e-01 3.730639999999999645e+01 1.602249999999999943e+02 1.983574999999999818e+03
1.200000000000000094e-01 1.565825000000000133e-01 3.654389999999999361e+01 1.595345000000000084e+02 1.983355000000000018e+03
1.209999999999999964e-01 1.565570000000000017e-01 3.582269999999999754e+01 1.589025000000000034e+02 1.983144999999999982e+03
1.219999999999999973e-01 1.565340000000000065e-01 3.514045000000000130e+01 1.583199999999999932e+02 1.982944999999999936e+03
1.229999999999999982e-01 1.565120000000000122e-01 3.449269999999999925e+01 1.577749999999999773e+02 1.982765000000000100e+03
1.239999999999999991e-01 1.564904999999999768e-01 3.387304999999999922e+01 1.572489999999999952e+02 1.982590000000000146e+03
1.250000000000000000e-01 1.564699999999999980e-01 3.327369999999999806e+01 1.567239999999999895e+02 1.982414999999999964e+03
1.260000000000000009e-01 1.564494999999999914e-01 3.268580000000000041e+01 1.561784999999999854e+02 1.982244999999999891e+03
1.270000000000000018e-01 1.564280000000000115e-01 3.210014999999999930e+01 1.555904999999999916e+02 1.982065000000000055e+03
1.280000000000000027e-01 1.564050000000000162e-01 3.150735000000000241e+01 1.549404999999999859e+02 1.981875000000000000e+03
1.290000000000000036e-01 1.563795000000000046e-01 3.089860000000000184e+01 1.542090000000000032e+02 1.981664999999999964e+03
1.300000000000000044e-01 1.563519999999999910e-01 3.026610000000000156e+01 1.533805000000000121e+02 1.981440000000000055e+03
1.310000000000000053e-01 1.563205000000000011e-01 2.960325000000000273e+01 1.524420000000000073e+02 1.981179999999999836e+03
1.320000000000000062e-01 1.562855000000000216e-01 2.890540000000000020e+01 1.513860000000000241e+02 1.980900000000000091e+03
1.330000000000000071e-01 1.562469999999999970e-01 2.816975000000000051e+01 1.502094999999999914e+02 1.980585000000000036e+03
1.340000000000000080e-01 1.562044999999999961e-01 2.739580000000000126e+01 1.489149999999999920e+02 1.980235000000000127e+03
1.350000000000000089e-01 1.561569999999999903e-01 2.658514999999999873e+01 1.475095000000000027e+02 1.979849999999999909e+03
1.360000000000000098e-01 1.561064999999999814e-01 2.574174999999999969e+01 1.460060000000000002e+02 1.979440000000000055e+03
1.370000000000000107e-01 1.560524999999999829e-01 2.487154999999999916e+01 1.444215000000000089e+02 1.978994999999999891e+03
1.380000000000000115e-01 1.559955000000000092e-01 2.398254999999999981e+01 1.427764999999999986e+02 1.978534999999999854e+03
1.390000000000000124e-01 1.559360000000000190e-01 2.308415000000000106e+01 1.410964999999999918e+02 1.978055000000000064e+03
1.400000000000000133e-01 1.558760000000000145e-01 2.218684999999999974e+01 1.394074999999999989e+02 1.977559999999999945e+03
1.410000000000000142e-01 1.558150000000000091e-01 2.130185000000000173e+01 1.377370000000000232e+02 1.977065000000000055e+03
1.420000000000000151e-01 1.557540000000000036e-01 2.044064999999999799e+01 1.361115000000000066e+02 1.976570000000000164e+03
1.430000000000000160e-01 1.556950000000000001e-01 1.961449999999999960e+01 1.345584999999999809e+02 1.976090000000000146e+03
1.440000000000000169e-01 1.556385000000000129e-01 1.883360000000000056e+01 1.331009999999999991e+02 1.975625000000000000e+03
1.450000000000000178e-01 1.555845000000000145e-01 1.810745000000000005e+01 1.317584999999999980e+02 1.975180000000000064e+03
1.459999999999999909e-01 1.555350000000000066e-01 1.744359999999999999e+01 1.305484999999999900e+02 1.974769999999999982e+03
1.469999999999999918e-01 1.554889999999999883e-01 1.684815000000000040e+01 1.294830000000000041e+02 1.974389999999999873e+03
1.479999999999999927e-01 1.554484999999999895e-01 1.632505000000000095e+01 1.285695000000000050e+02 1.974055000000000064e+03
1.489999999999999936e-01 1.554125000000000090e-01 1.587635000000000041e+01 1.278100000000000023e+02 1.973759999999999991e+03
1.499999999999999944e-01 1.553820000000000201e-01 1.550194999999999901e+01 1.272019999999999982e+02 1.973505000000000109e+03
1.509999999999999953e-01 1.553565000000000085e-01 1.519994999999999941e+01 1.267400000000000091e+02 1.973295000000000073e+03
1.519999999999999962e-01 1.553364999999999885e-01 1.496665000000000134e+01 1.264134999999999991e+02 1.973125000000000000e+03
1.529999999999999971e-01 1.553215000000000012e-01 1.479694999999999894e+01 1.262090000000000032e+02 1.972990000000000009e+03
1.539999999999999980e-01 1.553100000000000036e-01 1.468440000000000012e+01 1.261119999999999948e+02 1.972894999999999982e+03
1.549999999999999989e-01 1.553029999999999966e-01 1.462175000000000047e+01 1.261045000000000016e+02 1.972835000000000036e+03
1.559999999999999998e-01 1.552994999999999792e-01 1.460120000000000040e+01 1.261709999999999923e+02 1.972799999999999955e+03
1.570000000000000007e-01 1.552985000000000060e-01 1.461465000000000103e+01 1.262920000000000016e+02 1.972789999999999964e+03
1.580000000000000016e-01 1.552999999999999936e-01 1.465395000000000003e+01 1.264515000000000100e+02 1.972789999999999964e+03
1.590000000000000024e-01 1.553025000000000100e-01 1.471130000000000138e+01 1.266329999999999956e+02 1.972815000000000055e+03
