# t [s], A [cm^2], U [cm/s], P [cPa], c [cm/s]
1.000000000000000021e-03 5.511260000000000048e-01 3.130449999999999899e-03 9.341434999999999889e+01 1.453284999999999854e+03
2.000000000000000042e-03 5.511175000000000379e-01 -1.275480000000000060e-03 9.339564999999998918e+01 1.453275000000000091e+03
3.000000000000000062e-03 5.511550000000000615e-01 6.570705000000000295e-02 9.345570000000000732e+01 1.453295000000000073e+03
4.000000000000000083e-03 5.512044999999999861e-01 1.574203499999999867e-01 9.356085000000000207e+01 1.453320000000000164e+03
5.000000000000000104e-03 5.512044999999999861e-01 1.674404999999999921e-01 9.356905000000000427e+01 1.453325000000000045e+03
6.000000000000000125e-03 5.511605000000000532e-01 9.728149999999999298e-02 9.344490000000000407e+01 1.453299999999999955e+03
7.000000000000000146e-03 5.511129999999999640e-01 1.584499999999999797e-02 9.325165000000001214e+01 1.453259999999999991e+03
8.000000000000000167e-03 5.510595000000000354e-01 -8.385349999999996973e-02 9.299389999999999645e+01 1.453194999999999936e+03
9.000000000000001055e-03 5.509669999999999845e-01 -2.620500000000000052e-01 9.260354999999999848e+01 1.453110000000000127e+03
1.000000000000000194e-02 5.508264999999999967e-01 -5.385550000000000059e-01 9.203444999999999254e+01 1.452970000000000027e+03
1.099999999999999936e-02 5.506329999999999281e-01 -9.146649999999999503e-01 9.125714999999999577e+01 1.452784999999999854e+03
1.200000000000000025e-02 5.503744999999999887e-01 -1.402155000000000040e+00 9.023089999999999122e+01 1.452539999999999964e+03
1.300000000000000114e-02 5.500454999999999650e-01 -1.996890000000000054e+00 8.892980000000000018e+01 1.452220000000000027e+03
1.400000000000000203e-02 5.496649999999999592e-01 -2.645724999999999660e+00 8.738710000000000377e+01 1.451829999999999927e+03
1.499999999999999944e-02 5.492730000000000112e-01 -3.251190000000000246e+00 8.570525000000000659e+01 1.451394999999999982e+03
1.600000000000000033e-02 5.489125000000000254e-01 -3.708964000000000372e+00 8.402060000000000173e+01 1.450940000000000055e+03
1.700000000000000122e-02 5.486090000000000133e-01 -3.946464000000000194e+00 8.245380000000000109e+01 1.450494999999999891e+03
1.800000000000000211e-02 5.483694999999999542e-01 -3.941397999999999957e+00 8.107450000000000045e+01 1.450085000000000036e+03
1.900000000000000300e-02 5.481765000000000665e-01 -3.718806500000000348e+00 7.989024999999999466e+01 1.449710000000000036e+03
2.000000000000000042e-02 5.480040000000000466e-01 -3.334816000000000003e+00 7.885640000000000782e+01 1.449360000000000127e+03
2.100000000000000130e-02 5.478244999999999365e-01 -2.855604899999999891e+00 7.789830000000000609e+01 1.449030000000000200e+03
2.200000000000000219e-02 5.476170000000000204e-01 -2.337950999999999890e+00 7.693780000000000996e+01 1.448704999999999927e+03
2.299999999999999961e-02 5.473725000000000396e-01 -1.815919999999999979e+00 7.591655000000000086e+01 1.448360000000000127e+03
2.400000000000000050e-02 5.470939999999999692e-01 -1.297015000000000029e+00 7.480910000000000082e+01 1.448000000000000000e+03
2.500000000000000139e-02 5.467929999999999735e-01 -7.681649999999999867e-01 7.362350000000000705e+01 1.447625000000000000e+03
2.600000000000000228e-02 5.464835000000000109e-01 -2.083800000000000097e-01 7.239000000000000057e+01 1.447230000000000018e+03
2.700000000000000316e-02 5.461780000000000523e-01 3.972849999999996662e-01 7.114374999999999716e+01 1.446839999999999918e+03
2.800000000000000058e-02 5.458800000000000319e-01 1.047475000000000156e+00 6.990840000000000032e+01 1.446440000000000055e+03
2.900000000000000147e-02 5.455839999999999579e-01 1.720369999999999955e+00 6.868510000000000559e+01 1.446045000000000073e+03
3.000000000000000236e-02 5.452780000000000404e-01 2.375820000000000043e+00 6.744944999999999879e+01 1.445644999999999982e+03
3.099999999999999978e-02 5.449450000000000127e-01 2.962329999999999686e+00 6.615569999999999595e+01 1.445235000000000127e+03
3.200000000000000067e-02 5.445674999999999821e-01 3.426845000000000141e+00 6.474690000000001078e+01 1.444800000000000182e+03
3.300000000000000155e-02 5.441325000000000189e-01 3.725200000000000067e+00 6.316839999999999833e+01 1.444320000000000164e+03
3.400000000000000244e-02 5.436339999999999506e-01 3.831040000000000667e+00 6.138174999999999670e+01 1.443795000000000073e+03
3.500000000000000333e-02 5.430749999999999744e-01 3.741255000000000219e+00 5.937565000000000026e+01 1.443219999999999800e+03
3.600000000000000422e-02 5.424700000000000077e-01 3.476995000000000502e+00 5.717215000000000202e+01 1.442599999999999909e+03
3.700000000000000511e-02 5.418385000000000007e-01 3.079579999999999984e+00 5.482590000000000430e+01 1.441940000000000055e+03
3.799999999999999906e-02 5.412059999999999649e-01 2.603744999999999976e+00 5.241755000000000564e+01 1.441255000000000109e+03
3.899999999999999994e-02 5.405989999999999407e-01 2.108900000000000219e+00 5.004339999999999833e+01 1.440574999999999818e+03
4.000000000000000083e-02 5.400415000000000632e-01 1.651804999999999968e+00 4.780389999999999873e+01 1.439924999999999955e+03
4.100000000000000172e-02 5.395544999999999369e-01 1.280534999999999979e+00 4.579274999999999807e+01 1.439325000000000045e+03
4.200000000000000261e-02 5.391535000000000633e-01 1.031695000000000029e+00 4.408934999999999604e+01 1.438795000000000073e+03
4.300000000000000350e-02 5.388470000000000759e-01 9.297749999999997961e-01 4.275379999999999825e+01 1.438360000000000127e+03
4.400000000000000439e-02 5.386419999999999542e-01 9.885150000000000325e-01 4.182554999999999978e+01 1.438029999999999973e+03
4.499999999999999833e-02 5.385375000000000023e-01 1.213480000000000114e+00 4.132509999999999906e+01 1.437809999999999945e+03
4.599999999999999922e-02 5.385340000000000682e-01 1.604994000000000032e+00 4.125679999999999836e+01 1.437710000000000036e+03
4.700000000000000011e-02 5.386275000000000368e-01 2.160824999999999996e+00 4.161345000000000027e+01 1.437730000000000018e+03
4.800000000000000100e-02 5.388155000000000028e-01 2.878075500000000009e+00 4.238009999999999877e+01 1.437869999999999891e+03
4.900000000000000189e-02 5.390924999999999745e-01 3.753975499999999688e+00 4.353754999999999598e+01 1.438119999999999891e+03
5.000000000000000278e-02 5.394565000000000055e-01 4.785662499999999930e+00 4.506435000000000457e+01 1.438485000000000127e+03
5.100000000000000366e-02 5.399019999999999930e-01 5.969224500000000155e+00 4.693734999999999502e+01 1.438950000000000045e+03
5.200000000000000455e-02 5.404234999999999456e-01 7.298270500000000105e+00 4.913129999999999598e+01 1.439509999999999991e+03
5.300000000000000544e-02 5.410139999999999949e-01 8.763035000000000352e+00 5.161814999999999998e+01 1.440159999999999854e+03
5.399999999999999939e-02 5.416665000000000507e-01 1.034916499999999928e+01 5.436610000000000298e+01 1.440894999999999982e+03
5.500000000000000028e-02 5.423719999999999652e-01 1.203816499999999934e+01 5.733920000000000528e+01 1.441700000000000045e+03
5.600000000000000117e-02 5.431190000000000184e-01 1.380750499999999903e+01 6.049745000000000061e+01 1.442569999999999936e+03
5.700000000000000205e-02 5.438975000000000337e-01 1.563202000000000069e+01 6.379805000000000348e+01 1.443485000000000127e+03
5.800000000000000294e-02 5.446965000000000279e-01 1.748525000000000063e+01 6.719679999999999609e+01 1.444440000000000055e+03
5.900000000000000383e-02 5.455050000000000177e-01 1.934110000000000085e+01 7.064979999999999905e+01 1.445424999999999955e+03
6.000000000000000472e-02 5.463139999999999663e-01 2.117510000000000048e+01 7.411619999999999209e+01 1.446425000000000182e+03
6.099999999999999867e-02 5.471150000000000180e-01 2.296574999999999989e+01 7.755929999999999325e+01 1.447424999999999955e+03
6.199999999999999956e-02 5.479020000000000001e-01 2.469539999999999935e+01 8.094865000000000066e+01 1.448425000000000182e+03
6.300000000000000044e-02 5.486710000000000198e-01 2.635040000000000049e+01 8.426075000000000159e+01 1.449410000000000082e+03
6.400000000000000133e-02 5.494189999999999907e-01 2.792150000000000176e+01 8.747990000000000066e+01 1.450384999999999991e+03
6.500000000000000222e-02 5.501445000000000363e-01 2.940339999999999776e+01 9.059665000000001100e+01 1.451329999999999927e+03
6.600000000000000311e-02 5.508485000000000742e-01 3.079429999999999978e+01 9.361060000000000514e+01 1.452250000000000000e+03
6.700000000000000400e-02 5.515330000000000510e-01 3.209539999999999793e+01 9.652434999999999832e+01 1.453154999999999973e+03
6.800000000000000488e-02 5.521994999999999543e-01 3.331034999999999968e+01 9.934735000000000582e+01 1.454025000000000091e+03
6.900000000000000577e-02 5.528520000000000101e-01 3.444435000000000002e+01 1.020921500000000037e+02 1.454884999999999991e+03
7.000000000000000666e-02 5.534935000000000827e-01 3.550390000000000157e+01 1.047719999999999914e+02 1.455724999999999909e+03
7.100000000000000755e-02 5.541270000000000362e-01 3.649584999999999724e+01 1.074029999999999916e+02 1.456549999999999955e+03
7.200000000000000844e-02 5.547564999999999857e-01 3.742725000000000080e+01 1.099989999999999952e+02 1.457365000000000009e+03
7.300000000000000933e-02 5.553839999999999888e-01 3.830454999999999899e+01 1.125739999999999981e+02 1.458170000000000073e+03
7.399999999999999634e-02 5.560114999999999919e-01 3.913315000000000055e+01 1.151375000000000028e+02 1.458970000000000027e+03
7.499999999999999722e-02 5.566400000000000237e-01 3.991725000000000279e+01 1.176970000000000027e+02 1.459769999999999982e+03
7.599999999999999811e-02 5.572699999999999321e-01 4.065925000000000011e+01 1.202554999999999978e+02 1.460569999999999936e+03
7.699999999999999900e-02 5.579000000000000625e-01 4.135975000000000534e+01 1.228114999999999952e+02 1.461365000000000009e+03
7.799999999999999989e-02 5.585280000000000244e-01 4.201754999999999995e+01 1.253605000000000018e+02 1.462160000000000082e+03
7.900000000000000078e-02 5.591519999999999824e-01 4.262964999999999804e+01 1.278905000000000030e+02 1.462944999999999936e+03
8.000000000000000167e-02 5.597680000000000433e-01 4.319150000000000489e+01 1.303899999999999864e+02 1.463730000000000018e+03
8.100000000000000255e-02 5.603709999999999525e-01 4.369745000000000346e+01 1.328410000000000082e+02 1.464494999999999891e+03
8.200000000000000344e-02 5.609570000000000389e-01 4.414090000000000202e+01 1.352249999999999943e+02 1.465250000000000000e+03
8.300000000000000433e-02 5.615209999999999368e-01 4.451529999999999632e+01 1.375240000000000009e+02 1.465980000000000018e+03
8.400000000000000522e-02 5.620585000000000164e-01 4.481404999999999461e+01 1.397169999999999845e+02 1.466675000000000182e+03
8.500000000000000611e-02 5.625654999999999406e-01 4.503114999999999668e+01 1.417860000000000014e+02 1.467344999999999800e+03
8.600000000000000699e-02 5.630374999999999686e-01 4.516145000000000209e+01 1.437139999999999986e+02 1.467970000000000027e+03
8.700000000000000788e-02 5.634725000000000428e-01 4.520130000000000337e+01 1.454869999999999948e+02 1.468549999999999955e+03
8.800000000000000877e-02 5.638674999999999660e-01 4.514809999999999945e+01 1.470935000000000059e+02 1.469090000000000146e+03
8.899999999999999578e-02 5.642205000000000137e-01 4.500114999999999554e+01 1.485255000000000223e+02 1.469579999999999927e+03
8.999999999999999667e-02 5.645314999999999639e-01 4.476115000000000066e+01 1.497794999999999845e+02 1.470009999999999991e+03
9.099999999999999756e-02 5.648005000000000386e-01 4.443064999999999998e+01 1.508549999999999898e+02 1.470394999999999982e+03
9.199999999999999845e-02 5.650279999999999747e-01 4.401375000000000171e+01 1.517555000000000121e+02 1.470724999999999909e+03
9.299999999999999933e-02 5.652169999999999694e-01 4.351600000000000534e+01 1.524875000000000114e+02 1.471005000000000109e+03
9.400000000000000022e-02 5.653675000000000228e-01 4.294445000000000334e+01 1.530600000000000023e+02 1.471235000000000127e+03
9.500000000000000111e-02 5.654854999999999743e-01 4.230729999999999791e+01 1.534859999999999900e+02 1.471414999999999964e+03
9.600000000000000200e-02 5.655725000000000335e-01 4.161360000000000525e+01 1.537810000000000059e+02 1.471559999999999945e+03
9.700000000000000289e-02 5.656324999999999825e-01 4.087340000000000373e+01 1.539590000000000032e+02 1.471659999999999854e+03
9.800000000000000377e-02 5.656700000000000061e-01 4.009685000000000343e+01 1.540400000000000205e+02 1.471724999999999909e+03
9.900000000000000466e-02 5.656889999999999974e-01 3.929444999999999766e+01 1.540395000000000039e+02 1.471764999999999873e+03
1.000000000000000056e-01 5.656940000000000301e-01 3.847655000000000314e+01 1.539759999999999991e+02 1.471780000000000200e+03
1.010000000000000064e-01 5.656879999999999686e-01 3.765285000000000082e+01 1.538675000000000068e+02 1.471785000000000082e+03
1.020000000000000073e-01 5.656754999999999978e-01 3.683239999999999981e+01 1.537289999999999850e+02 1.471765000000000100e+03
1.030000000000000082e-01 5.656589999999999119e-01 3.602304999999999779e+01 1.535755000000000052e+02 1.471740000000000009e+03
1.040000000000000091e-01 5.656410000000000604e-01 3.523144999999999527e+01 1.534184999999999945e+02 1.471710000000000036e+03
1.050000000000000100e-01 5.656250000000000444e-01 3.446274999999999977e+01 1.532680000000000007e+02 1.471675000000000182e+03
1.059999999999999970e-01 5.656099999999999461e-01 3.372050000000000125e+01 1.531310000000000002e+02 1.471639999999999873e+03
1.069999999999999979e-01 5.655985000000000040e-01 3.300660000000000593e+01 1.530120000000000005e+02 1.471605000000000018e+03
1.079999999999999988e-01 5.655900000000000372e-01 3.232139999999999702e+01 1.529114999999999895e+02 1.471579999999999927e+03
1.089999999999999997e-01 5.655839999999999756e-01 3.166369999999999862e+01 1.528290000000000077e+02 1.471555000000000064e+03
1.100000000000000006e-01 5.655799999999999716e-01 3.103099999999999881e+01 1.527615000000000123e+02 1.471525000000000091e+03
1.110000000000000014e-01 5.655759999999999676e-01 3.041969999999999885e+01 1.527024999999999864e+02 1.471505000000000109e+03
1.120000000000000023e-01 5.655699999999999061e-01 2.982515000000000072e+01 1.526444999999999936e+02 1.471484999999999900e+03
1.130000000000000032e-01 5.655599999999999516e-01 2.924239999999999640e+01 1.525810000000000173e+02 1.471465000000000146e+03
1.140000000000000041e-01 5.655455000000000343e-01 2.866590000000000060e+01 1.525020000000000095e+02 1.471434999999999945e+03
1.150000000000000050e-01 5.655229999999999979e-01 2.809019999999999939e+01 1.523985000000000127e+02 1.471405000000000200e+03
1.160000000000000059e-01 5.654905000000000070e-01 2.751004999999999967e+01 1.522620000000000005e+02 1.471359999999999900e+03
1.170000000000000068e-01 5.654474999999999918e-01 2.692050000000000054e+01 1.520849999999999795e+02 1.471309999999999945e+03
1.180000000000000077e-01 5.653920000000000057e-01 2.631745000000000090e+01 1.518609999999999900e+02 1.471244999999999891e+03
1.190000000000000085e-01 5.653230000000000199e-01 2.569754999999999967e+01 1.515849999999999795e+02 1.471170000000000073e+03
1.200000000000000094e-01 5.652399999999999647e-01 2.505834999999999724e+01 1.512535000000000025e+02 1.471075000000000045e+03
1.209999999999999964e-01 5.651429999999999509e-01 2.439849999999999852e+01 1.508645000000000209e+02 1.470970000000000027e+03
1.219999999999999973e-01 5.650325000000000486e-01 2.371784999999999854e+01 1.504194999999999993e+02 1.470839999999999918e+03
1.229999999999999982e-01 5.649089999999999945e-01 2.301724999999999710e+01 1.499205000000000041e+02 1.470700000000000045e+03
1.239999999999999991e-01 5.647739999999999982e-01 2.229865000000000208e+01 1.493714999999999975e+02 1.470545000000000073e+03
1.250000000000000000e-01 5.646295000000000064e-01 2.156515000000000271e+01 1.487794999999999845e+02 1.470380000000000109e+03
1.260000000000000009e-01 5.644765000000000477e-01 2.082070000000000221e+01 1.481514999999999986e+02 1.470195000000000164e+03
1.270000000000000018e-01 5.643184999999999452e-01 2.007000000000000028e+01 1.474964999999999975e+02 1.470009999999999991e+03
1.280000000000000027e-01 5.641574999999999784e-01 1.931844999999999857e+01 1.468245000000000005e+02 1.469815000000000055e+03
1.290000000000000036e-01 5.639954999999999830e-01 1.857199999999999918e+01 1.461454999999999984e+02 1.469615000000000009e+03
1.300000000000000044e-01 5.638355000000000450e-01 1.783660000000000068e+01 1.454714999999999918e+02 1.469414999999999964e+03
1.310000000000000053e-01 5.636805000000000287e-01 1.711844999999999928e+01 1.448129999999999882e+02 1.469220000000000027e+03
1.320000000000000062e-01 5.635324999999999918e-01 1.642354999999999876e+01 1.441795000000000186e+02 1.469025000000000091e+03
1.330000000000000071e-01 5.633934999999999915e-01 1.575750000000000028e+01 1.435815000000000055e+02 1.468845000000000027e+03
1.340000000000000080e-01 5.632660000000000444e-01 1.512550000000000061e+01 1.430279999999999916e+02 1.468670000000000073e+03
1.350000000000000089e-01 5.631509999999999572e-01 1.453190000000000026e+01 1.425254999999999939e+02 1.468509999999999991e+03
1.360000000000000098e-01 5.630505000000000093e-01 1.398019999999999996e+01 1.420805000000000007e+02 1.468369999999999891e+03
1.370000000000000107e-01 5.629644999999999788e-01 1.347320000000000206e+01 1.416959999999999980e+02 1.468235000000000127e+03
1.380000000000000115e-01 5.628934999999999356e-01 1.301245499999999922e+01 1.413750000000000000e+02 1.468125000000000000e+03
1.390000000000000124e-01 5.628379999999999495e-01 1.259853999999999985e+01 1.411179999999999950e+02 1.468034999999999854e+03
1.400000000000000133e-01 5.627969999999999917e-01 1.223112000000000066e+01 1.409239999999999782e+02 1.467954999999999927e+03
1.410000000000000142e-01 5.627699999999999925e-01 1.190879999999999939e+01 1.407889999999999873e+02 1.467894999999999982e+03
1.420000000000000151e-01 5.627550000000000052e-01 1.162937499999999957e+01 1.407094999999999914e+02 1.467855000000000018e+03
1.430000000000000160e-01 5.627515000000000711e-01 1.138980000000000103e+01 1.406790000000000020e+02 1.467829999999999927e+03
1.440000000000000169e-01 5.627570000000000627e-01 1.118654000000000082e+01 1.406915000000000191e+02 1.467815000000000055e+03
1.450000000000000178e-01 5.627704999999999513e-01 1.101540999999999926e+01 1.407400000000000091e+02 1.467815000000000055e+03
1.459999999999999909e-01 5.627894999999999426e-01 1.087208499999999844e+01 1.408149999999999977e+02 1.467819999999999936e+03
1.469999999999999918e-01 5.628130000000000077e-01 1.075195000000000078e+01 1.409099999999999966e+02 1.467835000000000036e+03
1.479999999999999927e-01 5.628374999999999906e-01 1.065055999999999869e+01 1.410174999999999841e+02 1.467860000000000127e+03
1.489999999999999936e-01 5.628634999999999611e-01 1.056347500000000039e+01 1.411289999999999907e+02 1.467880000000000109e+03
1.499999999999999944e-01 5.628880000000000550e-01 1.048658000000000001e+01 1.412389999999999759e+02 1.467904999999999973e+03
1.509999999999999953e-01 5.629100000000000215e-01 1.041611999999999938e+01 1.413410000000000082e+02 1.467929999999999836e+03
1.519999999999999962e-01 5.629290000000000127e-01 1.034886000000000017e+01 1.414309999999999832e+02 1.467950000000000045e+03
1.529999999999999971e-01 5.629435000000000411e-01 1.028200499999999984e+01 1.415049999999999955e+02 1.467970000000000027e+03
1.539999999999999980e-01 5.629545000000000243e-01 1.021329000000000065e+01 1.415595000000000141e+02 1.467985000000000127e+03
1.549999999999999989e-01 5.629600000000000160e-01 1.014094499999999854e+01 1.415944999999999823e+02 1.467994999999999891e+03
1.559999999999999998e-01 5.629610000000000447e-01 1.006389500000000048e+01 1.416080000000000041e+02 1.468000000000000000e+03
1.570000000000000007e-01 5.629570000000000407e-01 9.981314999999998605e+00 1.416014999999999873e+02 1.468000000000000000e+03
1.580000000000000016e-01 5.629484999999999628e-01 9.893090000000000828e+00 1.415745000000000005e+02 1.467990000000000009e+03
1.590000000000000024e-01 5.629365000000000618e-01 9.799319999999999808e+00 1.415300000000000011e+02 1.467980000000000018e+03
