# t [s], A [cm^2], U [cm/s], P [cPa], c [cm/s]
1.000000000000000021e-03 8.206355000000000732e-01 6.235949999999997051e-03 9.858629999999999427e+01 1.678789999999999964e+03
2.000000000000000042e-03 8.206194999999999462e-01 -5.586075000000000242e-03 9.855495000000000516e+01 1.678784999999999854e+03
3.000000000000000062e-03 8.206729999999999858e-01 6.891810000000000991e-02 9.863800000000000523e+01 1.678805000000000064e+03
4.000000000000000083e-03 8.207394999999999552e-01 1.709115499999999954e-01 9.876965000000001282e+01 1.678829999999999927e+03
5.000000000000000104e-03 8.207230000000000913e-01 1.711425000000000030e-01 9.874924999999998931e+01 1.678829999999999927e+03
6.000000000000000125e-03 8.206419999999999826e-01 8.166900000000001936e-02 9.855164999999999509e+01 1.678795000000000073e+03
7.000000000000000146e-03 8.205780000000000296e-01 9.604500000000015802e-03 9.831424999999998704e+01 1.678744999999999891e+03
8.000000000000000167e-03 8.204970000000000319e-01 -9.721549999999995473e-02 9.799859999999999616e+01 1.678679999999999836e+03
9.000000000000001055e-03 8.203515000000000112e-01 -3.120699999999999585e-01 9.750339999999999918e+01 1.678579999999999927e+03
1.000000000000000194e-02 8.201370000000000049e-01 -6.429350000000001453e-01 9.678659999999999286e+01 1.678445000000000164e+03
1.099999999999999936e-02 8.198364999999999680e-01 -1.109214999999999840e+00 9.578874999999999318e+01 1.678244999999999891e+03
1.200000000000000025e-02 8.194285000000000041e-01 -1.727825000000000166e+00 9.444444999999998913e+01 1.677980000000000018e+03
1.300000000000000114e-02 8.189394999999999314e-01 -2.442779999999999951e+00 9.278130000000000166e+01 1.677644999999999982e+03
1.400000000000000203e-02 8.184434999999999905e-01 -3.121419999999999639e+00 9.095019999999999527e+01 1.677260000000000218e+03
1.499999999999999944e-02 8.180144999999999778e-01 -3.622676000000000229e+00 8.915125000000000455e+01 1.676869999999999891e+03
1.600000000000000033e-02 8.176859999999999129e-01 -3.863674500000000123e+00 8.753440000000000509e+01 1.676500000000000000e+03
1.700000000000000122e-02 8.174445000000000183e-01 -3.840599999999999792e+00 8.614805000000001201e+01 1.676164999999999964e+03
1.800000000000000211e-02 8.172440000000000815e-01 -3.609904000000000224e+00 8.494365000000000521e+01 1.675860000000000127e+03
1.900000000000000300e-02 8.170325000000000504e-01 -3.252831500000000098e+00 8.381629999999999825e+01 1.675559999999999945e+03
2.000000000000000042e-02 8.167694999999999261e-01 -2.841393999999999753e+00 8.265434999999999377e+01 1.675259999999999991e+03
2.100000000000000130e-02 8.164415000000000422e-01 -2.415776000000000145e+00 8.138159999999999172e+01 1.674934999999999945e+03
2.200000000000000219e-02 8.160574999999999912e-01 -1.977665000000000006e+00 7.997915000000000418e+01 1.674589999999999918e+03
2.299999999999999961e-02 8.156460000000000932e-01 -1.499875000000000069e+00 7.848265000000000668e+01 1.674220000000000027e+03
2.400000000000000050e-02 8.152375000000000593e-01 -9.468799999999999439e-01 7.695875000000000909e+01 1.673840000000000146e+03
2.500000000000000139e-02 8.148524999999999796e-01 -2.971849999999998104e-01 7.547104999999999109e+01 1.673469999999999800e+03
2.600000000000000228e-02 8.144934999999999814e-01 4.413849999999999163e-01 7.405164999999999509e+01 1.673105000000000018e+03
2.700000000000000316e-02 8.141430000000000611e-01 1.227514999999999912e+00 7.268519999999999470e+01 1.672755000000000109e+03
2.800000000000000058e-02 8.137714999999999810e-01 1.993039999999999923e+00 7.130989999999999895e+01 1.672394999999999982e+03
2.900000000000000147e-02 8.133405000000000218e-01 2.657404999999999795e+00 6.983230000000000359e+01 1.672025000000000091e+03
3.000000000000000236e-02 8.128210000000000157e-01 3.145895000000000330e+00 6.815240000000000009e+01 1.671619999999999891e+03
3.099999999999999978e-02 8.121944999999999304e-01 3.407345000000000290e+00 6.619214999999999804e+01 1.671159999999999854e+03
3.200000000000000067e-02 8.114645000000000330e-01 3.426360000000000294e+00 6.391939999999999600e+01 1.670644999999999982e+03
3.300000000000000155e-02 8.106554999999999733e-01 3.226015000000000299e+00 6.136074999999999591e+01 1.670070000000000164e+03
3.400000000000000244e-02 8.098054999999999559e-01 2.860735000000000472e+00 5.859815000000000396e+01 1.669449999999999818e+03
3.500000000000000333e-02 8.089600000000000124e-01 2.402134999999999909e+00 5.575314999999999799e+01 1.668809999999999945e+03
3.600000000000000422e-02 8.081614999999999771e-01 1.923315000000000108e+00 5.296340000000000003e+01 1.668174999999999955e+03
3.700000000000000511e-02 8.074455000000000382e-01 1.486550000000000260e+00 5.036010000000000275e+01 1.667569999999999936e+03
3.799999999999999906e-02 8.068340000000000511e-01 1.136360000000000259e+00 4.805174999999999841e+01 1.667025000000000091e+03
3.899999999999999994e-02 8.063385000000000691e-01 8.984950000000000436e-01 4.611525000000000318e+01 1.666550000000000182e+03
4.000000000000000083e-02 8.059614999999999974e-01 7.830100000000004279e-01 4.459494999999999720e+01 1.666159999999999854e+03
4.100000000000000172e-02 8.056995000000000129e-01 7.898350000000000648e-01 4.350730000000000075e+01 1.665865000000000009e+03
4.200000000000000261e-02 8.055475000000000829e-01 9.150200000000000555e-01 4.284940000000000282e+01 1.665664999999999964e+03
4.300000000000000350e-02 8.055004999999999526e-01 1.155993000000000048e+00 4.260840000000000316e+01 1.665565000000000055e+03
4.400000000000000439e-02 8.055559999999999388e-01 1.514764999999999917e+00 4.276939999999999742e+01 1.665549999999999955e+03
4.499999999999999833e-02 8.057130000000000125e-01 1.998484999999999845e+00 4.332030000000000314e+01 1.665630000000000109e+03
4.599999999999999922e-02 8.059734999999998983e-01 2.617614150000000084e+00 4.425310000000000343e+01 1.665800000000000182e+03
4.700000000000000011e-02 8.063374999999999293e-01 3.382481499999999919e+00 4.556175000000000352e+01 1.666055000000000064e+03
4.800000000000000100e-02 8.068030000000000479e-01 4.299477000000000437e+00 4.723780000000000001e+01 1.666394999999999982e+03
4.900000000000000189e-02 8.073669999999999458e-01 5.368003400000000092e+00 4.926619999999999777e+01 1.666819999999999936e+03
5.000000000000000278e-02 8.080199999999999605e-01 6.578697000000000017e+00 5.162189999999999657e+01 1.667325000000000045e+03
5.100000000000000366e-02 8.087484999999999813e-01 7.913669999999999760e+00 5.426834999999999809e+01 1.667894999999999982e+03
5.200000000000000455e-02 8.095375000000000210e-01 9.347739999999999938e+00 5.715825000000000244e+01 1.668525000000000091e+03
5.300000000000000544e-02 8.103690000000000060e-01 1.085099499999999928e+01 6.023619999999999663e+01 1.669204999999999927e+03
5.399999999999999939e-02 8.112264999999999615e-01 1.239168000000000092e+01 6.344274999999999665e+01 1.669925000000000182e+03
5.500000000000000028e-02 8.120929999999999538e-01 1.393915000000000148e+01 6.671864999999999668e+01 1.670660000000000082e+03
5.600000000000000117e-02 8.129554999999999421e-01 1.546595999999999904e+01 7.000939999999999941e+01 1.671414999999999964e+03
5.700000000000000205e-02 8.138020000000000254e-01 1.694960000000000022e+01 7.326834999999999809e+01 1.672174999999999955e+03
5.800000000000000294e-02 8.146269999999999900e-01 1.837340000000000018e+01 7.645935000000000059e+01 1.672920000000000073e+03
5.900000000000000383e-02 8.154254999999999143e-01 1.972599999999999909e+01 7.955719999999999459e+01 1.673654999999999973e+03
6.000000000000000472e-02 8.161960000000000326e-01 2.100124999999999886e+01 8.254769999999999186e+01 1.674369999999999891e+03
6.099999999999999867e-02 8.169399999999999995e-01 2.219709999999999894e+01 8.542644999999998845e+01 1.675065000000000055e+03
6.199999999999999956e-02 8.176590000000000247e-01 2.331445000000000078e+01 8.819669999999999277e+01 1.675735000000000127e+03
6.300000000000000044e-02 8.183575000000000710e-01 2.435640000000000072e+01 9.086769999999999925e+01 1.676384999999999991e+03
6.400000000000000133e-02 8.190374999999999739e-01 2.532714999999999961e+01 9.345189999999999486e+01 1.677019999999999982e+03
6.500000000000000222e-02 8.197039999999999882e-01 2.623134999999999906e+01 9.596410000000000196e+01 1.677634999999999991e+03
6.600000000000000311e-02 8.203599999999999781e-01 2.707329999999999970e+01 9.841749999999998977e+01 1.678235000000000127e+03
6.700000000000000400e-02 8.210075000000000012e-01 2.785640000000000072e+01 1.008228500000000025e+02 1.678824999999999818e+03
6.800000000000000488e-02 8.216464999999999463e-01 2.858269999999999911e+01 1.031891499999999979e+02 1.679404999999999973e+03
6.900000000000000577e-02 8.222789999999999822e-01 2.925274999999999892e+01 1.055190000000000055e+02 1.679974999999999909e+03
7.000000000000000666e-02 8.229014999999999525e-01 2.986549999999999727e+01 1.078114999999999952e+02 1.680539999999999964e+03
7.100000000000000755e-02 8.235124999999999806e-01 3.041829999999999856e+01 1.100594999999999999e+02 1.681089999999999918e+03
7.200000000000000844e-02 8.241074999999999928e-01 3.090744999999999720e+01 1.122520000000000095e+02 1.681630000000000109e+03
7.300000000000000933e-02 8.246824999999999850e-01 3.132859999999999800e+01 1.143760000000000048e+02 1.682155000000000200e+03
7.399999999999999634e-02 8.252334999999999532e-01 3.167714999999999748e+01 1.164155000000000086e+02 1.682659999999999854e+03
7.499999999999999722e-02 8.257555000000000867e-01 3.194910000000000139e+01 1.183545000000000016e+02 1.683150000000000091e+03
7.599999999999999811e-02 8.262454999999999661e-01 3.214095000000000368e+01 1.201760000000000019e+02 1.683605000000000018e+03
7.699999999999999900e-02 8.266985000000000028e-01 3.225039999999999907e+01 1.218665000000000020e+02 1.684034999999999854e+03
7.799999999999999989e-02 8.271129999999999871e-01 3.227615000000000123e+01 1.234145000000000039e+02 1.684429999999999836e+03
7.900000000000000078e-02 8.274865000000000137e-01 3.221790000000000020e+01 1.248104999999999905e+02 1.684789999999999964e+03
8.000000000000000167e-02 8.278179999999999428e-01 3.207670000000000243e+01 1.260474999999999994e+02 1.685115000000000009e+03
8.100000000000000255e-02 8.281065000000000786e-01 3.185419999999999874e+01 1.271209999999999951e+02 1.685404999999999973e+03
8.200000000000000344e-02 8.283515000000000184e-01 3.155320000000000036e+01 1.280314999999999941e+02 1.685654999999999973e+03
8.300000000000000433e-02 8.285534999999999428e-01 3.117730000000000246e+01 1.287789999999999964e+02 1.685860000000000127e+03
8.400000000000000522e-02 8.287145000000000206e-01 3.073109999999999786e+01 1.293675000000000068e+02 1.686034999999999854e+03
8.500000000000000611e-02 8.288360000000000172e-01 3.022030000000000172e+01 1.298045000000000186e+02 1.686170000000000073e+03
8.600000000000000699e-02 8.289204999999999490e-01 2.965149999999999864e+01 1.300989999999999895e+02 1.686269999999999982e+03
8.700000000000000788e-02 8.289709999999999024e-01 2.903244999999999720e+01 1.302609999999999957e+02 1.686335000000000036e+03
8.800000000000000877e-02 8.289914999999999923e-01 2.837185000000000201e+01 1.303044999999999902e+02 1.686375000000000000e+03
8.899999999999999578e-02 8.289854999999999308e-01 2.767909999999999826e+01 1.302454999999999927e+02 1.686384999999999991e+03
8.999999999999999667e-02 8.289595000000000713e-01 2.696419999999999817e+01 1.301005000000000109e+02 1.686369999999999891e+03
9.099999999999999756e-02 8.289159999999999862e-01 2.623695000000000022e+01 1.298859999999999957e+02 1.686340000000000146e+03
9.199999999999999845e-02 8.288605000000000000e-01 2.550694999999999979e+01 1.296204999999999927e+02 1.686295000000000073e+03
9.299999999999999933e-02 8.287975000000000758e-01 2.478294999999999959e+01 1.293190000000000168e+02 1.686240000000000009e+03
9.400000000000000022e-02 8.287299999999999667e-01 2.407260000000000133e+01 1.289975000000000023e+02 1.686170000000000073e+03
9.500000000000000111e-02 8.286605000000000221e-01 2.338175000000000026e+01 1.286674999999999898e+02 1.686099999999999909e+03
9.600000000000000200e-02 8.285919999999999952e-01 2.271484999999999843e+01 1.283389999999999986e+02 1.686025000000000091e+03
9.700000000000000289e-02 8.285244999999999971e-01 2.207410000000000139e+01 1.280185000000000173e+02 1.685949999999999818e+03
9.800000000000000377e-02 8.284584999999999866e-01 2.146025000000000205e+01 1.277075000000000102e+02 1.685880000000000109e+03
9.900000000000000466e-02 8.283935000000000048e-01 2.087210000000000321e+01 1.274074999999999989e+02 1.685804999999999836e+03
1.000000000000000056e-01 8.283285000000000231e-01 2.030724999999999980e+01 1.271144999999999925e+02 1.685730000000000018e+03
1.010000000000000064e-01 8.282614999999999839e-01 1.976180000000000092e+01 1.268239999999999981e+02 1.685659999999999854e+03
1.020000000000000073e-01 8.281905000000000516e-01 1.923134999999999906e+01 1.265285000000000082e+02 1.685585000000000036e+03
1.030000000000000082e-01 8.281125000000000291e-01 1.871069999999999922e+01 1.262185000000000059e+02 1.685509999999999991e+03
1.040000000000000091e-01 8.280264999999999986e-01 1.819454999999999956e+01 1.258874999999999886e+02 1.685429999999999836e+03
1.050000000000000100e-01 8.279290000000000260e-01 1.767764999999999986e+01 1.255249999999999915e+02 1.685345000000000027e+03
1.059999999999999970e-01 8.278189999999999715e-01 1.715500000000000114e+01 1.251235000000000070e+02 1.685250000000000000e+03
1.069999999999999979e-01 8.276950000000000696e-01 1.662234999999999729e+01 1.246765000000000043e+02 1.685144999999999982e+03
1.079999999999999988e-01 8.275554999999999994e-01 1.607620000000000005e+01 1.241779999999999973e+02 1.685029999999999973e+03
1.089999999999999997e-01 8.273995000000000655e-01 1.551410000000000089e+01 1.236250000000000000e+02 1.684900000000000091e+03
1.100000000000000006e-01 8.272285000000000332e-01 1.493479999999999919e+01 1.230165000000000077e+02 1.684759999999999991e+03
1.110000000000000014e-01 8.270420000000000549e-01 1.433819999999999872e+01 1.223539999999999992e+02 1.684610000000000127e+03
1.120000000000000023e-01 8.268424999999999248e-01 1.372578999999999994e+01 1.216419999999999959e+02 1.684440000000000055e+03
1.130000000000000032e-01 8.266329999999999512e-01 1.310021500000000039e+01 1.208859999999999957e+02 1.684269999999999982e+03
1.140000000000000041e-01 8.264139999999999819e-01 1.246538499999999949e+01 1.200955000000000013e+02 1.684090000000000146e+03
1.150000000000000050e-01 8.261905000000000499e-01 1.182626499999999936e+01 1.192805000000000035e+02 1.683894999999999982e+03
1.160000000000000059e-01 8.259654999999999081e-01 1.118874500000000083e+01 1.184539999999999935e+02 1.683704999999999927e+03
1.170000000000000068e-01 8.257430000000000048e-01 1.055928500000000092e+01 1.176295000000000073e+02 1.683514999999999873e+03
1.180000000000000077e-01 8.255270000000000108e-01 9.944805000000000561e+00 1.168209999999999980e+02 1.683319999999999936e+03
1.190000000000000085e-01 8.253204999999999014e-01 9.352035000000000764e+00 1.160425000000000040e+02 1.683130000000000109e+03
1.200000000000000094e-01 8.251284999999999314e-01 8.787649999999999295e+00 1.153070000000000022e+02 1.682954999999999927e+03
1.209999999999999964e-01 8.249520000000000186e-01 8.257635000000000502e+00 1.146269999999999953e+02 1.682784999999999854e+03
1.219999999999999973e-01 8.247955000000000148e-01 7.767179999999999751e+00 1.140130000000000052e+02 1.682639999999999873e+03
1.229999999999999982e-01 8.246599999999999486e-01 7.320464999999999556e+00 1.134735000000000014e+02 1.682500000000000000e+03
1.239999999999999991e-01 8.245469999999999189e-01 6.920539999999999026e+00 1.130134999999999934e+02 1.682380000000000109e+03
1.250000000000000000e-01 8.244560000000000777e-01 6.569024999999999892e+00 1.126370000000000005e+02 1.682279999999999973e+03
1.260000000000000009e-01 8.243879999999998986e-01 6.266329999999999956e+00 1.123445000000000107e+02 1.682200000000000045e+03
1.270000000000000018e-01 8.243409999999999904e-01 6.011569999999999858e+00 1.121340000000000003e+02 1.682134999999999991e+03
1.280000000000000027e-01 8.243139999999999912e-01 5.802659999999999485e+00 1.120000000000000000e+02 1.682090000000000146e+03
1.290000000000000036e-01 8.243044999999999956e-01 5.636530000000000484e+00 1.119375000000000000e+02 1.682059999999999945e+03
1.300000000000000044e-01 8.243104999999999460e-01 5.509269999999999889e+00 1.119375000000000000e+02 1.682045000000000073e+03
1.310000000000000053e-01 8.243300000000000072e-01 5.416369999999999685e+00 1.119899999999999949e+02 1.682045000000000073e+03
1.320000000000000062e-01 8.243584999999999940e-01 5.352940000000000254e+00 1.120859999999999985e+02 1.682059999999999945e+03
1.330000000000000071e-01 8.243949999999999889e-01 5.313954999999999984e+00 1.122150000000000034e+02 1.682079999999999927e+03
1.340000000000000080e-01 8.244354999999999878e-01 5.294394999999999740e+00 1.123665000000000020e+02 1.682105000000000018e+03
1.350000000000000089e-01 8.244789999999999619e-01 5.289479999999999293e+00 1.125324999999999989e+02 1.682134999999999991e+03
1.360000000000000098e-01 8.245225000000000470e-01 5.294745000000000701e+00 1.127030000000000030e+02 1.682170000000000073e+03
1.370000000000000107e-01 8.245644999999999225e-01 5.306150000000000588e+00 1.128714999999999975e+02 1.682204999999999927e+03
1.380000000000000115e-01 8.246040000000000036e-01 5.320174999999999876e+00 1.130314999999999941e+02 1.682235000000000127e+03
1.390000000000000124e-01 8.246394999999999698e-01 5.333800000000000097e+00 1.131790000000000020e+02 1.682275000000000091e+03
1.400000000000000133e-01 8.246700000000000141e-01 5.344564999999999344e+00 1.133094999999999999e+02 1.682299999999999955e+03
1.410000000000000142e-01 8.246955000000000258e-01 5.350559999999999761e+00 1.134209999999999923e+02 1.682329999999999927e+03
1.420000000000000151e-01 8.247160000000000046e-01 5.350379999999999470e+00 1.135130000000000052e+02 1.682349999999999909e+03
1.430000000000000160e-01 8.247314999999999507e-01 5.343165000000000830e+00 1.135844999999999914e+02 1.682369999999999891e+03
1.440000000000000169e-01 8.247419999999999751e-01 5.328504999999999825e+00 1.136359999999999957e+02 1.682380000000000109e+03
1.450000000000000178e-01 8.247480000000000366e-01 5.306435000000000457e+00 1.136694999999999993e+02 1.682389999999999873e+03
1.459999999999999909e-01 8.247499999999999831e-01 5.277390000000000470e+00 1.136864999999999952e+02 1.682400000000000091e+03
1.469999999999999918e-01 8.247489999999999544e-01 5.242115000000000080e+00 1.136899999999999977e+02 1.682400000000000091e+03
1.479999999999999927e-01 8.247455000000000203e-01 5.201615000000000322e+00 1.136829999999999927e+02 1.682400000000000091e+03
1.489999999999999936e-01 8.247404999999999875e-01 5.157085000000000363e+00 1.136670000000000016e+02 1.682400000000000091e+03
1.499999999999999944e-01 8.247349999999999959e-01 5.109795000000000087e+00 1.136465000000000032e+02 1.682394999999999982e+03
1.509999999999999953e-01 8.247290000000000454e-01 5.061035000000000394e+00 1.136225000000000023e+02 1.682389999999999873e+03
1.519999999999999962e-01 8.247240000000000126e-01 5.012005000000000265e+00 1.135990000000000038e+02 1.682389999999999873e+03
1.529999999999999971e-01 8.247189999999999799e-01 4.963775000000000048e+00 1.135769999999999982e+02 1.682384999999999991e+03
1.539999999999999980e-01 8.247160000000000046e-01 4.917205000000000048e+00 1.135575000000000045e+02 1.682380000000000109e+03
1.549999999999999989e-01 8.247139999999999471e-01 4.872904999999999376e+00 1.135424999999999898e+02 1.682380000000000109e+03
1.559999999999999998e-01 8.247130000000000294e-01 4.831215000000000259e+00 1.135314999999999941e+02 1.682375000000000000e+03
1.570000000000000007e-01 8.247130000000000294e-01 4.792209999999999859e+00 1.135234999999999985e+02 1.682375000000000000e+03
1.580000000000000016e-01 8.247135000000000993e-01 4.755715000000000359e+00 1.135184999999999889e+02 1.682375000000000000e+03
1.590000000000000024e-01 8.247145000000000170e-01 4.721344999999999459e+00 1.135144999999999982e+02 1.682369999999999891e+03
