# t [s], A [cm^2], U [cm/s], P [cPa], c [cm/s]
1.000000000000000021e-03 1.858075000000000143e-01 3.581091000000000135e-01 1.030049999999999955e+02 2.235639999999999873e+03
2.000000000000000042e-03 1.857469999999999954e-01 2.011775000000000091e+00 9.912794999999999845e+01 2.235105000000000018e+03
3.000000000000000062e-03 1.855979999999999852e-01 4.063213000000000186e+00 9.370060000000000855e+01 2.233855000000000018e+03
4.000000000000000083e-03 1.854034999999999989e-01 6.388336999999999932e+00 8.797905000000000086e+01 2.232239999999999782e+03
5.000000000000000104e-03 1.852039999999999798e-01 8.871439999999999770e+00 8.306350000000000477e+01 2.230599999999999909e+03
6.000000000000000125e-03 1.850165000000000004e-01 1.124020999999999937e+01 7.910050000000001091e+01 2.229085000000000036e+03
7.000000000000000146e-03 1.848440000000000083e-01 1.324558500000000016e+01 7.563670000000000471e+01 2.227719999999999800e+03
8.000000000000000167e-03 1.846900000000000208e-01 1.487315000000000076e+01 7.254994999999999550e+01 2.226519999999999982e+03
9.000000000000001055e-03 1.845600000000000018e-01 1.619030000000000058e+01 7.000570000000000448e+01 2.225524999999999636e+03
1.000000000000000194e-02 1.844554999999999945e-01 1.722700000000000031e+01 6.803144999999999243e+01 2.224734999999999673e+03
1.099999999999999936e-02 1.843744999999999967e-01 1.800854999999999961e+01 6.656149999999999523e+01 2.224130000000000109e+03
1.200000000000000025e-02 1.843130000000000046e-01 1.854674999999999940e+01 6.547565000000000168e+01 2.223675000000000182e+03
1.300000000000000114e-02 1.842644999999999977e-01 1.884384999999999977e+01 6.458334999999999582e+01 2.223329999999999927e+03
1.400000000000000203e-02 1.842260000000000009e-01 1.897169999999999845e+01 6.383194999999999908e+01 2.223059999999999945e+03
1.499999999999999944e-02 1.842024999999999912e-01 1.911430000000000007e+01 6.353300000000000125e+01 2.222900000000000091e+03
1.600000000000000033e-02 1.842074999999999962e-01 1.948720000000000141e+01 6.424155000000000371e+01 2.222954999999999927e+03
1.700000000000000122e-02 1.842519999999999991e-01 2.019805000000000206e+01 6.633729999999999905e+01 2.223295000000000073e+03
1.800000000000000211e-02 1.843354999999999855e-01 2.116744999999999877e+01 6.966949999999999932e+01 2.223935000000000400e+03
1.900000000000000300e-02 1.844439999999999968e-01 2.216195000000000093e+01 7.353074999999999761e+01 2.224769999999999982e+03
2.000000000000000042e-02 1.845535000000000092e-01 2.290520000000000067e+01 7.694855000000001155e+01 2.225630000000000109e+03
2.100000000000000130e-02 1.846404999999999852e-01 2.319855000000000089e+01 7.909834999999999638e+01 2.226324999999999818e+03
2.200000000000000219e-02 1.846884999999999777e-01 2.299354999999999905e+01 7.962019999999999698e+01 2.226735000000000127e+03
2.299999999999999961e-02 1.846959999999999991e-01 2.239160000000000039e+01 7.870695000000000618e+01 2.226824999999999818e+03
2.400000000000000050e-02 1.846720000000000028e-01 2.158035000000000281e+01 7.695074999999999932e+01 2.226664999999999964e+03
2.500000000000000139e-02 1.846320000000000183e-01 2.074540000000000006e+01 7.504720000000000368e+01 2.226369999999999891e+03
2.600000000000000228e-02 1.845910000000000051e-01 1.999810000000000088e+01 7.350679999999999836e+01 2.226055000000000291e+03
2.700000000000000316e-02 1.845579999999999998e-01 1.934839999999999804e+01 7.249405000000000143e+01 2.225784999999999854e+03
2.800000000000000058e-02 1.845319999999999738e-01 1.872404999999999831e+01 7.183565000000000111e+01 2.225579999999999927e+03
2.900000000000000147e-02 1.845070000000000043e-01 1.802035000000000053e+01 7.116424999999999557e+01 2.225385000000000218e+03
3.000000000000000236e-02 1.844755000000000145e-01 1.715840000000000032e+01 7.012020000000001119e+01 2.225144999999999982e+03
3.099999999999999978e-02 1.844304999999999972e-01 1.612900000000000134e+01 6.853370000000001028e+01 2.224810000000000400e+03
3.200000000000000067e-02 1.843724999999999947e-01 1.500854999999999961e+01 6.652055000000000007e+01 2.224369999999999891e+03
3.300000000000000155e-02 1.843090000000000006e-01 1.394074999999999953e+01 6.446205000000000496e+01 2.223880000000000109e+03
3.400000000000000244e-02 1.842530000000000001e-01 1.309215000000000018e+01 6.287855000000000416e+01 2.223434999999999945e+03
3.500000000000000333e-02 1.842174999999999785e-01 1.259789999999999921e+01 6.224885000000000446e+01 2.223145000000000437e+03
3.600000000000000422e-02 1.842125000000000012e-01 1.251919999999999966e+01 6.284505000000000052e+01 2.223090000000000146e+03
3.700000000000000511e-02 1.842425000000000035e-01 1.282535000000000025e+01 6.464124999999999943e+01 2.223295000000000073e+03
3.799999999999999906e-02 1.843040000000000234e-01 1.340285000000000082e+01 6.731780000000000541e+01 2.223750000000000000e+03
3.899999999999999994e-02 1.843839999999999923e-01 1.408525000000000027e+01 7.034844999999999970e+01 2.224354999999999563e+03
4.000000000000000083e-02 1.844689999999999941e-01 1.469219999999999970e+01 7.313139999999999930e+01 2.225005000000000109e+03
4.100000000000000172e-02 1.845410000000000106e-01 1.506475000000000009e+01 7.512284999999999968e+01 2.225574999999999818e+03
4.200000000000000261e-02 1.845880000000000021e-01 1.509110000000000085e+01 7.593840000000000146e+01 2.225949999999999818e+03
4.300000000000000350e-02 1.845994999999999997e-01 1.471744999999999948e+01 7.540255000000000507e+01 2.226055000000000291e+03
4.400000000000000439e-02 1.845720000000000138e-01 1.394525000000000148e+01 7.354554999999999154e+01 2.225859999999999673e+03
4.499999999999999833e-02 1.845065000000000177e-01 1.281834999999999880e+01 7.055789999999998940e+01 2.225369999999999891e+03
4.599999999999999922e-02 1.844095000000000040e-01 1.140650499999999923e+01 6.672315000000000396e+01 2.224635000000000218e+03
4.700000000000000011e-02 1.842880000000000074e-01 9.788889999999998537e+00 6.235110000000000241e+01 2.223704999999999927e+03
4.800000000000000100e-02 1.841499999999999804e-01 8.043345000000000411e+00 5.772705000000000553e+01 2.222640000000000327e+03
4.900000000000000189e-02 1.840034999999999865e-01 6.240769999999999484e+00 5.308634999999999593e+01 2.221505000000000109e+03
5.000000000000000278e-02 1.838555000000000050e-01 4.445302500000000379e+00 4.861169999999999902e+01 2.220355000000000018e+03
5.100000000000000366e-02 1.837110000000000132e-01 2.716890000000000249e+00 4.444650000000000034e+01 2.219234999999999673e+03
5.200000000000000455e-02 1.835755000000000026e-01 1.114850000000000119e+00 4.071430000000000149e+01 2.218180000000000291e+03
5.300000000000000544e-02 1.834540000000000060e-01 -3.000500000000001499e-01 3.753539999999999566e+01 2.217224999999999909e+03
5.399999999999999939e-02 1.833504999999999996e-01 -1.465985500000000163e+00 3.503509999999999991e+01 2.216414999999999964e+03
5.500000000000000028e-02 1.832695000000000018e-01 -2.322877000000000081e+00 3.334174999999999756e+01 2.215769999999999982e+03
5.600000000000000117e-02 1.832159999999999900e-01 -2.817035000000000178e+00 3.257620000000000005e+01 2.215329999999999927e+03
5.700000000000000205e-02 1.831929999999999947e-01 -2.906489999999999796e+00 3.283650000000000091e+01 2.215125000000000000e+03
5.800000000000000294e-02 1.832034999999999914e-01 -2.565649999999999764e+00 3.418260000000000076e+01 2.215184999999999945e+03
5.900000000000000383e-02 1.832495000000000096e-01 -1.788372300000000026e+00 3.662474999999999881e+01 2.215514999999999873e+03
6.000000000000000472e-02 1.833305000000000073e-01 -5.889250000000000318e-01 4.011880000000000024e+01 2.216114999999999782e+03
6.099999999999999867e-02 1.834454999999999836e-01 9.991999999999998661e-01 4.456830000000000069e+01 2.216975000000000364e+03
6.199999999999999956e-02 1.835910000000000042e-01 2.926109999999999545e+00 4.983275000000000432e+01 2.218079999999999927e+03
6.300000000000000044e-02 1.837630000000000097e-01 5.129442000000000057e+00 5.574004999999999654e+01 2.219390000000000327e+03
6.400000000000000133e-02 1.839550000000000074e-01 7.538759999999999906e+00 6.210000000000000142e+01 2.220875000000000000e+03
6.500000000000000222e-02 1.841625000000000068e-01 1.008000000000000007e+01 6.871805000000000518e+01 2.222474999999999909e+03
6.600000000000000311e-02 1.843785000000000007e-01 1.267975999999999992e+01 7.540829999999999700e+01 2.224154999999999745e+03
6.700000000000000400e-02 1.845979999999999843e-01 1.526950000000000074e+01 8.200395000000000323e+01 2.225864999999999782e+03
6.800000000000000488e-02 1.848154999999999937e-01 1.778885000000000005e+01 8.836705000000000609e+01 2.227569999999999709e+03
6.900000000000000577e-02 1.850264999999999826e-01 2.018915000000000148e+01 9.439509999999999934e+01 2.229225000000000364e+03
7.000000000000000666e-02 1.852285000000000181e-01 2.243485000000000085e+01 1.000259499999999946e+02 2.230824999999999818e+03
7.100000000000000755e-02 1.854190000000000005e-01 2.450534999999999997e+01 1.052386999999999944e+02 2.232329999999999927e+03
7.200000000000000844e-02 1.855974999999999986e-01 2.639410000000000167e+01 1.100504999999999995e+02 2.233750000000000000e+03
7.300000000000000933e-02 1.857650000000000134e-01 2.810739999999999839e+01 1.145109999999999957e+02 2.235085000000000036e+03
7.399999999999999634e-02 1.859220000000000039e-01 2.966150000000000375e+01 1.186935000000000002e+02 2.236340000000000146e+03
7.499999999999999722e-02 1.860715000000000008e-01 3.107954999999999757e+01 1.226829999999999927e+02 2.237534999999999854e+03
7.599999999999999811e-02 1.862150000000000194e-01 3.238779999999999859e+01 1.265660000000000025e+02 2.238684999999999945e+03
7.699999999999999900e-02 1.863555000000000073e-01 3.361229999999999762e+01 1.304189999999999827e+02 2.239809999999999945e+03
7.799999999999999989e-02 1.864954999999999807e-01 3.477584999999999837e+01 1.343019999999999925e+02 2.240925000000000182e+03
7.900000000000000078e-02 1.866355000000000097e-01 3.589605000000000246e+01 1.382524999999999977e+02 2.242050000000000182e+03
8.000000000000000167e-02 1.867774999999999852e-01 3.698369999999999891e+01 1.422824999999999989e+02 2.243184999999999945e+03
8.100000000000000255e-02 1.869215000000000182e-01 3.804255000000000564e+01 1.463820000000000050e+02 2.244329999999999927e+03
8.200000000000000344e-02 1.870660000000000101e-01 3.906910000000000593e+01 1.505175000000000125e+02 2.245489999999999782e+03
8.300000000000000433e-02 1.872109999999999885e-01 4.005389999999999873e+01 1.546390000000000100e+02 2.246644999999999982e+03
8.400000000000000522e-02 1.873555000000000081e-01 4.098219999999999885e+01 1.586839999999999975e+02 2.247795000000000073e+03
8.500000000000000611e-02 1.874949999999999950e-01 4.183565000000000111e+01 1.625835000000000150e+02 2.248920000000000073e+03
8.600000000000000699e-02 1.876299999999999912e-01 4.259385000000000332e+01 1.662649999999999864e+02 2.250000000000000000e+03
8.700000000000000788e-02 1.877575000000000216e-01 4.323579999999999757e+01 1.696605000000000132e+02 2.251025000000000091e+03
8.800000000000000877e-02 1.878744999999999998e-01 4.374139999999999873e+01 1.727075000000000102e+02 2.251965000000000146e+03
8.899999999999999578e-02 1.879799999999999804e-01 4.409279999999999688e+01 1.753525000000000205e+02 2.252819999999999709e+03
8.999999999999999667e-02 1.880720000000000169e-01 4.427580000000000382e+01 1.775550000000000068e+02 2.253564999999999600e+03
9.099999999999999756e-02 1.881494999999999973e-01 4.428050000000000352e+01 1.792895000000000039e+02 2.254194999999999709e+03
9.199999999999999845e-02 1.882114999999999760e-01 4.410245000000000459e+01 1.805450000000000159e+02 2.254704999999999927e+03
9.299999999999999933e-02 1.882574999999999943e-01 4.374295000000000044e+01 1.813260000000000218e+02 2.255085000000000036e+03
9.400000000000000022e-02 1.882880000000000109e-01 4.320905000000000484e+01 1.816544999999999845e+02 2.255345000000000255e+03
9.500000000000000111e-02 1.883035000000000125e-01 4.251349999999999341e+01 1.815649999999999977e+02 2.255484999999999673e+03
9.600000000000000200e-02 1.883055000000000145e-01 4.167399999999999949e+01 1.811059999999999945e+02 2.255515000000000327e+03
9.700000000000000289e-02 1.882955000000000045e-01 4.071245000000000402e+01 1.803344999999999914e+02 2.255440000000000055e+03
9.800000000000000377e-02 1.882745000000000113e-01 3.965349999999999397e+01 1.793139999999999930e+02 2.255289999999999964e+03
9.900000000000000466e-02 1.882455000000000100e-01 3.852374999999999972e+01 1.781109999999999900e+02 2.255065000000000055e+03
1.000000000000000056e-01 1.882105000000000028e-01 3.735005000000000308e+01 1.767914999999999850e+02 2.254789999999999964e+03
1.010000000000000064e-01 1.881705000000000183e-01 3.615854999999999819e+01 1.754180000000000064e+02 2.254479999999999563e+03
1.020000000000000073e-01 1.881284999999999763e-01 3.497334999999999638e+01 1.740464999999999804e+02 2.254144999999999982e+03
1.030000000000000082e-01 1.880864999999999898e-01 3.381569999999999965e+01 1.727230000000000132e+02 2.253810000000000400e+03
1.040000000000000091e-01 1.880450000000000177e-01 3.270309999999999917e+01 1.714859999999999900e+02 2.253474999999999909e+03
1.050000000000000100e-01 1.880054999999999921e-01 3.164859999999999829e+01 1.703594999999999970e+02 2.253164999999999964e+03
1.059999999999999970e-01 1.879689999999999972e-01 3.066075000000000017e+01 1.693580000000000041e+02 2.252869999999999891e+03
1.069999999999999979e-01 1.879359999999999919e-01 2.974314999999999998e+01 1.684825000000000159e+02 2.252600000000000364e+03
1.079999999999999988e-01 1.879069999999999907e-01 2.889444999999999908e+01 1.677235000000000014e+02 2.252364999999999782e+03
1.089999999999999997e-01 1.878810000000000202e-01 2.810909999999999798e+01 1.670595000000000141e+02 2.252144999999999982e+03
1.100000000000000006e-01 1.878569999999999962e-01 2.737744999999999962e+01 1.664619999999999891e+02 2.251949999999999818e+03
1.110000000000000014e-01 1.878350000000000020e-01 2.668674999999999997e+01 1.658940000000000055e+02 2.251765000000000327e+03
1.120000000000000023e-01 1.878135000000000221e-01 2.602210000000000178e+01 1.653154999999999859e+02 2.251595000000000255e+03
1.130000000000000032e-01 1.877909999999999857e-01 2.536744999999999806e+01 1.646845000000000141e+02 2.251409999999999854e+03
1.140000000000000041e-01 1.877670000000000172e-01 2.470655000000000001e+01 1.639599999999999795e+02 2.251215000000000146e+03
1.150000000000000050e-01 1.877400000000000180e-01 2.402439999999999998e+01 1.631059999999999945e+02 2.250994999999999891e+03
1.160000000000000059e-01 1.877079999999999860e-01 2.330805000000000149e+01 1.620925000000000011e+02 2.250744999999999891e+03
1.170000000000000068e-01 1.876710000000000045e-01 2.254739999999999966e+01 1.608985000000000127e+02 2.250449999999999818e+03
1.180000000000000077e-01 1.876289999999999902e-01 2.173610000000000042e+01 1.595144999999999982e+02 2.250114999999999782e+03
1.190000000000000085e-01 1.875804999999999834e-01 2.087194999999999823e+01 1.579399999999999977e+02 2.249730000000000018e+03
1.200000000000000094e-01 1.875255000000000116e-01 1.995705000000000240e+01 1.561885000000000048e+02 2.249300000000000182e+03
1.209999999999999964e-01 1.874659999999999938e-01 1.899774999999999991e+01 1.542830000000000155e+02 2.248824999999999818e+03
1.219999999999999973e-01 1.874009999999999843e-01 1.800434999999999874e+01 1.522570000000000050e+02 2.248309999999999945e+03
1.229999999999999982e-01 1.873319999999999985e-01 1.699034999999999940e+01 1.501514999999999986e+02 2.247765000000000327e+03
1.239999999999999991e-01 1.872615000000000252e-01 1.597184999999999988e+01 1.480130000000000052e+02 2.247204999999999927e+03
1.250000000000000000e-01 1.871895000000000087e-01 1.496634999999999849e+01 1.458905000000000030e+02 2.246630000000000109e+03
1.260000000000000009e-01 1.871184999999999932e-01 1.399194999999999922e+01 1.438335000000000150e+02 2.246065000000000055e+03
1.270000000000000018e-01 1.870499999999999940e-01 1.306605000000000061e+01 1.418870000000000005e+02 2.245519999999999982e+03
1.280000000000000027e-01 1.869844999999999979e-01 1.220455499999999915e+01 1.400925000000000011e+02 2.244994999999999891e+03
1.290000000000000036e-01 1.869239999999999791e-01 1.142104499999999945e+01 1.384830000000000041e+02 2.244510000000000218e+03
1.300000000000000044e-01 1.868690000000000073e-01 1.072602000000000011e+01 1.370819999999999936e+02 2.244069999999999709e+03
1.310000000000000053e-01 1.868214999999999737e-01 1.012648499999999885e+01 1.359050000000000011e+02 2.243685000000000400e+03
1.320000000000000062e-01 1.867805000000000160e-01 9.625920000000000698e+00 1.349555000000000007e+02 2.243355000000000018e+03
1.330000000000000071e-01 1.867469999999999963e-01 9.224149999999999849e+00 1.342299999999999898e+02 2.243079999999999927e+03
1.340000000000000080e-01 1.867205000000000115e-01 8.917609999999999815e+00 1.337150000000000034e+02 2.242859999999999673e+03
1.350000000000000089e-01 1.867010000000000058e-01 8.699849999999999639e+00 1.333905000000000030e+02 2.242699999999999818e+03
1.360000000000000098e-01 1.866875000000000062e-01 8.561870000000000758e+00 1.332309999999999945e+02 2.242585000000000036e+03
1.370000000000000107e-01 1.866794999999999982e-01 8.492879999999999541e+00 1.332080000000000268e+02 2.242510000000000218e+03
1.380000000000000115e-01 1.866760000000000086e-01 8.480830000000000979e+00 1.332914999999999850e+02 2.242480000000000018e+03
1.390000000000000124e-01 1.866760000000000086e-01 8.513075000000000614e+00 1.334490000000000123e+02 2.242475000000000364e+03
1.400000000000000133e-01 1.866784999999999972e-01 8.576914999999999623e+00 1.336525000000000034e+02 2.242484999999999673e+03
1.410000000000000142e-01 1.866825000000000012e-01 8.660119999999999152e+00 1.338729999999999905e+02 2.242514999999999873e+03
1.420000000000000151e-01 1.866875000000000062e-01 8.751400000000000290e+00 1.340865000000000009e+02 2.242550000000000182e+03
1.430000000000000160e-01 1.866924999999999835e-01 8.840735000000000454e+00 1.342730000000000246e+02 2.242595000000000255e+03
1.440000000000000169e-01 1.866970000000000018e-01 8.919684999999999420e+00 1.344159999999999968e+02 2.242625000000000000e+03
1.450000000000000178e-01 1.867004999999999915e-01 8.981570000000001386e+00 1.345045000000000073e+02 2.242649999999999636e+03
1.459999999999999909e-01 1.867019999999999791e-01 9.021580000000000155e+00 1.345304999999999893e+02 2.242664999999999964e+03
1.469999999999999918e-01 1.867019999999999791e-01 9.036815000000000708e+00 1.344920000000000186e+02 2.242670000000000073e+03
1.479999999999999927e-01 1.866999999999999771e-01 9.026180000000000092e+00 1.343899999999999864e+02 2.242649999999999636e+03
1.489999999999999936e-01 1.866959999999999731e-01 8.990255000000001218e+00 1.342309999999999945e+02 2.242625000000000000e+03
1.499999999999999944e-01 1.866905000000000092e-01 8.931065000000000254e+00 1.340215000000000032e+02 2.242579999999999927e+03
1.509999999999999953e-01 1.866840000000000166e-01 8.851784999999999570e+00 1.337729999999999961e+02 2.242524999999999636e+03
1.519999999999999962e-01 1.866760000000000086e-01 8.756394999999999484e+00 1.334964999999999975e+02 2.242465000000000146e+03
1.529999999999999971e-01 1.866669999999999996e-01 8.649319999999999453e+00 1.332034999999999911e+02 2.242394999999999982e+03
1.539999999999999980e-01 1.866569999999999896e-01 8.535074999999999079e+00 1.329055000000000177e+02 2.242324999999999818e+03
1.549999999999999989e-01 1.866480000000000083e-01 8.417925000000000324e+00 1.326129999999999995e+02 2.242250000000000000e+03
1.559999999999999998e-01 1.866384999999999850e-01 8.301595000000000724e+00 1.323335000000000150e+02 2.242175000000000182e+03
1.570000000000000007e-01 1.866289999999999893e-01 8.189080000000000581e+00 1.320720000000000027e+02 2.242105000000000018e+03
1.580000000000000016e-01 1.866204999999999947e-01 8.082489999999999952e+00 1.318319999999999936e+02 2.242034999999999854e+03
1.590000000000000024e-01 1.866130000000000011e-01 7.983019999999999783e+00 1.316140000000000043e+02 2.241970000000000255e+03
