# t [s], A [cm^2], U [cm/s], P [cPa], c [cm/s]
1.000000000000000021e-03 5.050419999999999909e-01 3.791450000000001763e-03 1.004544999999999959e+02 1.452045000000000073e+03
2.000000000000000042e-03 5.050345000000000528e-01 -8.694034999999998830e-04 1.004380000000000024e+02 1.452045000000000073e+03
3.000000000000000062e-03 5.050589999999999247e-01 4.457640000000000213e-02 1.004784999999999968e+02 1.452059999999999945e+03
4.000000000000000083e-03 5.051039999999999974e-01 1.305672999999999973e-01 1.005797499999999900e+02 1.452090000000000146e+03
5.000000000000000104e-03 5.051160000000000094e-01 1.598143500000000217e-01 1.006164500000000004e+02 1.452105000000000018e+03
6.000000000000000125e-03 5.050859999999999239e-01 1.106097000000000052e-01 1.005339999999999918e+02 1.452079999999999927e+03
7.000000000000000146e-03 5.050465000000000648e-01 3.998299999999999077e-02 1.003789999999999907e+02 1.452045000000000073e+03
8.000000000000000167e-03 5.050095000000000001e-01 -2.974450000000000705e-02 1.001839999999999975e+02 1.451994999999999891e+03
9.000000000000001055e-03 5.049519999999999564e-01 -1.470594999999999541e-01 9.990254999999999086e+01 1.451925000000000182e+03
1.000000000000000194e-02 5.048584999999999878e-01 -3.438700000000000090e-01 9.948599999999999000e+01 1.451815000000000055e+03
1.099999999999999936e-02 5.047264999999999668e-01 -6.246999999999999220e-01 9.890545000000000186e+01 1.451664999999999964e+03
1.200000000000000025e-02 5.045459999999999390e-01 -9.997199999999999420e-01 9.812584999999999980e+01 1.451454999999999927e+03
1.300000000000000114e-02 5.043075000000000196e-01 -1.476859999999999840e+00 9.711064999999999259e+01 1.451184999999999945e+03
1.400000000000000203e-02 5.040179999999999660e-01 -2.030190000000000161e+00 9.585990000000001032e+01 1.450839999999999918e+03
1.499999999999999944e-02 5.037019999999999831e-01 -2.589875000000000149e+00 9.443289999999998940e+01 1.450440000000000055e+03
1.600000000000000033e-02 5.033940000000000081e-01 -3.065044999999999575e+00 9.293319999999999936e+01 1.450000000000000000e+03
1.700000000000000122e-02 5.031200000000000117e-01 -3.378267499999999757e+00 9.146779999999999688e+01 1.449549999999999955e+03
1.800000000000000211e-02 5.028920000000000057e-01 -3.488831000000000238e+00 9.011345000000000027e+01 1.449125000000000000e+03
1.900000000000000300e-02 5.027040000000000397e-01 -3.397548500000000082e+00 8.889949999999998909e+01 1.448714999999999918e+03
2.000000000000000042e-02 5.025384999999999991e-01 -3.137575000000000003e+00 8.780940000000001078e+01 1.448325000000000045e+03
2.100000000000000130e-02 5.023750000000000160e-01 -2.758600999999999637e+00 8.679495000000000005e+01 1.447960000000000036e+03
2.200000000000000219e-02 5.021940000000000293e-01 -2.310556000000000054e+00 8.579569999999999652e+01 1.447585000000000036e+03
2.299999999999999961e-02 5.019839999999999858e-01 -1.830645000000000078e+00 8.475819999999998799e+01 1.447210000000000036e+03
2.400000000000000050e-02 5.017424999999999802e-01 -1.336439999999999850e+00 8.365019999999999811e+01 1.446809999999999945e+03
2.500000000000000139e-02 5.014760000000000328e-01 -8.261099999999999000e-01 8.246654999999999802e+01 1.446394999999999982e+03
2.600000000000000228e-02 5.011950000000000571e-01 -2.851449999999999818e-01 8.122530000000000427e+01 1.445960000000000036e+03
2.700000000000000316e-02 5.009120000000000239e-01 3.034750000000001613e-01 7.995750000000001023e+01 1.445509999999999991e+03
2.800000000000000058e-02 5.006340000000000234e-01 9.492449999999998944e-01 7.869380000000001019e+01 1.445065000000000055e+03
2.900000000000000147e-02 5.003634999999999611e-01 1.647415000000000296e+00 7.745284999999999798e+01 1.444619999999999891e+03
3.000000000000000236e-02 5.000959999999999850e-01 2.376805000000000057e+00 7.623439999999999372e+01 1.444180000000000064e+03
3.099999999999999978e-02 4.998215000000000297e-01 3.102160000000000473e+00 7.501810000000000400e+01 1.443740000000000009e+03
3.200000000000000067e-02 4.995275000000000132e-01 3.779785000000000394e+00 7.376724999999999000e+01 1.443289999999999964e+03
3.300000000000000155e-02 4.992019999999999791e-01 4.365270000000000650e+00 7.243729999999999336e+01 1.442824999999999818e+03
3.400000000000000244e-02 4.988359999999999461e-01 4.821365000000000123e+00 7.098550000000000182e+01 1.442329999999999927e+03
3.500000000000000333e-02 4.984235000000000193e-01 5.125015000000000320e+00 6.938204999999999245e+01 1.441795000000000073e+03
3.600000000000000422e-02 4.979689999999999950e-01 5.271349999999999980e+00 6.761805000000001087e+01 1.441224999999999909e+03
3.700000000000000511e-02 4.974815000000000209e-01 5.274375000000000036e+00 6.570984999999998877e+01 1.440610000000000127e+03
3.799999999999999906e-02 4.969759999999999733e-01 5.164225000000000065e+00 6.369854999999999734e+01 1.439970000000000027e+03
3.899999999999999994e-02 4.964714999999999545e-01 4.981635000000000701e+00 6.164535000000000053e+01 1.439315000000000055e+03
4.000000000000000083e-02 4.959864999999999968e-01 4.771584999999999965e+00 5.962319999999999709e+01 1.438664999999999964e+03
4.100000000000000172e-02 4.955390000000000073e-01 4.577225000000000321e+00 5.770879999999999654e+01 1.438039999999999964e+03
4.200000000000000261e-02 4.951435000000000142e-01 4.435679999999999623e+00 5.597429999999999950e+01 1.437465000000000146e+03
4.300000000000000350e-02 4.948120000000000296e-01 4.375650000000000261e+00 5.448160000000000025e+01 1.436954999999999927e+03
4.400000000000000439e-02 4.945505000000000040e-01 4.416720000000000645e+00 5.327870000000000061e+01 1.436519999999999982e+03
4.499999999999999833e-02 4.943639999999999701e-01 4.570682500000000203e+00 5.239894999999999925e+01 1.436180000000000064e+03
4.599999999999999922e-02 4.942535000000000123e-01 4.843255000000000088e+00 5.186180000000000234e+01 1.435944999999999936e+03
4.700000000000000011e-02 4.942189999999999639e-01 5.236565000000000580e+00 5.167534999999999457e+01 1.435815000000000055e+03
4.800000000000000100e-02 4.942584999999999895e-01 5.751210000000000377e+00 5.183910000000000196e+01 1.435795000000000073e+03
4.900000000000000189e-02 4.943724999999999925e-01 6.387800000000000367e+00 5.234740000000000038e+01 1.435884999999999991e+03
5.000000000000000278e-02 4.945579999999999976e-01 7.147679999999999367e+00 5.319150000000000489e+01 1.436079999999999927e+03
5.100000000000000366e-02 4.948150000000000048e-01 8.032754999999999868e+00 5.436140000000000327e+01 1.436384999999999991e+03
5.200000000000000455e-02 4.951404999999999834e-01 9.044750000000000512e+00 5.584584999999999866e+01 1.436789999999999964e+03
5.300000000000000544e-02 4.955325000000000424e-01 1.018386499999999906e+01 5.763230000000000075e+01 1.437300000000000182e+03
5.399999999999999939e-02 4.959884999999999988e-01 1.144762000000000057e+01 5.970575000000000188e+01 1.437900000000000091e+03
5.500000000000000028e-02 4.965040000000000564e-01 1.282997999999999905e+01 6.204759999999999565e+01 1.438590000000000146e+03
5.600000000000000117e-02 4.970735000000000015e-01 1.432064499999999896e+01 6.463509999999999422e+01 1.439365000000000009e+03
5.700000000000000205e-02 4.976899999999999658e-01 1.590557499999999891e+01 6.744105000000000416e+01 1.440220000000000027e+03
5.800000000000000294e-02 4.983459999999999557e-01 1.756715499999999963e+01 7.043415000000000248e+01 1.441134999999999991e+03
5.900000000000000383e-02 4.990324999999999900e-01 1.928540000000000276e+01 7.357980000000000587e+01 1.442110000000000127e+03
6.000000000000000472e-02 4.997424999999999784e-01 2.103929999999999723e+01 7.684189999999999543e+01 1.443135000000000218e+03
6.099999999999999867e-02 5.004665000000000363e-01 2.280770000000000053e+01 8.018404999999999916e+01 1.444190000000000055e+03
6.199999999999999956e-02 5.011980000000000324e-01 2.457075000000000031e+01 8.357150000000000034e+01 1.445279999999999973e+03
6.300000000000000044e-02 5.019299999999999873e-01 2.631074999999999875e+01 8.697249999999999659e+01 1.446380000000000109e+03
6.400000000000000133e-02 5.026574999999999793e-01 2.801255000000000095e+01 9.036050000000000182e+01 1.447480000000000018e+03
6.500000000000000222e-02 5.033769999999999634e-01 2.966420000000000101e+01 9.371309999999999718e+01 1.448585000000000036e+03
6.600000000000000311e-02 5.040850000000000053e-01 3.125669999999999860e+01 9.701364999999999839e+01 1.449684999999999945e+03
6.700000000000000400e-02 5.047805000000000764e-01 3.278385000000000105e+01 1.002508500000000140e+02 1.450769999999999982e+03
6.800000000000000488e-02 5.054635000000000655e-01 3.424215000000000231e+01 1.034196499999999901e+02 1.451840000000000146e+03
6.900000000000000577e-02 5.061324999999999852e-01 3.562989999999999924e+01 1.065173499999999933e+02 1.452889999999999873e+03
7.000000000000000666e-02 5.067905000000000326e-01 3.694705000000000439e+01 1.095467500000000030e+02 1.453925000000000182e+03
7.100000000000000755e-02 5.074365000000000681e-01 3.819474999999999909e+01 1.125115000000000123e+02 1.454945000000000164e+03
7.200000000000000844e-02 5.080729999999999968e-01 3.937470000000000425e+01 1.154174999999999898e+02 1.455940000000000055e+03
7.300000000000000933e-02 5.087014999999999176e-01 4.048884999999999934e+01 1.182710000000000008e+02 1.456930000000000064e+03
7.399999999999999634e-02 5.093220000000000525e-01 4.153920000000000101e+01 1.210784999999999911e+02 1.457900000000000091e+03
7.499999999999999722e-02 5.099354999999999860e-01 4.252724999999999511e+01 1.238449999999999989e+02 1.458860000000000127e+03
7.599999999999999811e-02 5.105429999999999691e-01 4.345390000000000441e+01 1.265729999999999933e+02 1.459809999999999945e+03
7.699999999999999900e-02 5.111434999999999729e-01 4.431935000000000002e+01 1.292640000000000100e+02 1.460750000000000000e+03
7.799999999999999989e-02 5.117359999999999687e-01 4.512284999999999968e+01 1.319164999999999850e+02 1.461670000000000073e+03
7.900000000000000078e-02 5.123199999999999976e-01 4.586270000000000380e+01 1.345260000000000105e+02 1.462585000000000036e+03
8.000000000000000167e-02 5.128935000000000022e-01 4.653659999999999997e+01 1.370860000000000127e+02 1.463474999999999909e+03
8.100000000000000255e-02 5.134535000000000071e-01 4.714135000000000275e+01 1.395874999999999773e+02 1.464355000000000018e+03
8.200000000000000344e-02 5.139979999999999549e-01 4.767345000000000255e+01 1.420194999999999936e+02 1.465215000000000146e+03
8.300000000000000433e-02 5.145239999999999814e-01 4.812924999999999898e+01 1.443710000000000093e+02 1.466045000000000073e+03
8.400000000000000522e-02 5.150289999999999591e-01 4.850499999999999545e+01 1.466279999999999859e+02 1.466855000000000018e+03
8.500000000000000611e-02 5.155104999999999826e-01 4.879760000000000275e+01 1.487800000000000011e+02 1.467625000000000000e+03
8.600000000000000699e-02 5.159660000000000357e-01 4.900410000000000110e+01 1.508134999999999764e+02 1.468360000000000127e+03
8.700000000000000788e-02 5.163919999999999622e-01 4.912259999999999849e+01 1.527189999999999941e+02 1.469054999999999836e+03
8.800000000000000877e-02 5.167880000000000251e-01 4.915194999999999936e+01 1.544865000000000066e+02 1.469704999999999927e+03
8.899999999999999578e-02 5.171529999999999738e-01 4.909189999999999543e+01 1.561100000000000136e+02 1.470305000000000064e+03
8.999999999999999667e-02 5.174849999999999728e-01 4.894344999999999857e+01 1.575835000000000150e+02 1.470860000000000127e+03
9.099999999999999756e-02 5.177844999999999809e-01 4.870825000000000671e+01 1.589044999999999845e+02 1.471365000000000009e+03
9.199999999999999845e-02 5.180500000000000105e-01 4.838929999999999865e+01 1.600730000000000075e+02 1.471820000000000164e+03
9.299999999999999933e-02 5.182839999999999669e-01 4.799040000000000106e+01 1.610904999999999916e+02 1.472224999999999909e+03
9.400000000000000022e-02 5.184860000000000024e-01 4.751630000000000109e+01 1.619610000000000127e+02 1.472579999999999927e+03
9.500000000000000111e-02 5.186579999999999524e-01 4.697259999999999991e+01 1.626895000000000095e+02 1.472884999999999991e+03
9.600000000000000200e-02 5.188014999999999155e-01 4.636580000000000013e+01 1.632849999999999966e+02 1.473139999999999873e+03
9.700000000000000289e-02 5.189190000000000191e-01 4.570279999999999632e+01 1.637560000000000002e+02 1.473355000000000018e+03
9.800000000000000377e-02 5.190120000000000289e-01 4.499134999999999707e+01 1.641129999999999995e+02 1.473529999999999973e+03
9.900000000000000466e-02 5.190829999999999611e-01 4.423945000000000505e+01 1.643675000000000068e+02 1.473664999999999964e+03
1.000000000000000056e-01 5.191354999999999720e-01 4.345534999999999570e+01 1.645324999999999989e+02 1.473769999999999982e+03
1.010000000000000064e-01 5.191715000000000080e-01 4.264750000000000085e+01 1.646200000000000045e+02 1.473839999999999918e+03
1.020000000000000073e-01 5.191939999999999333e-01 4.182394999999999641e+01 1.646430000000000007e+02 1.473884999999999991e+03
1.030000000000000082e-01 5.192054999999999865e-01 4.099269999999999925e+01 1.646139999999999759e+02 1.473904999999999973e+03
1.040000000000000091e-01 5.192080000000000028e-01 4.016100000000000136e+01 1.645449999999999875e+02 1.473914999999999964e+03
1.050000000000000100e-01 5.192044999999999577e-01 3.933525000000000205e+01 1.644470000000000027e+02 1.473904999999999973e+03
1.059999999999999970e-01 5.191964999999999497e-01 3.852110000000000412e+01 1.643290000000000077e+02 1.473884999999999991e+03
1.069999999999999979e-01 5.191850000000000076e-01 3.772294999999999732e+01 1.641990000000000123e+02 1.473855000000000018e+03
1.079999999999999988e-01 5.191719999999999668e-01 3.694405000000000427e+01 1.640629999999999882e+02 1.473820000000000164e+03
1.089999999999999997e-01 5.191574999999999385e-01 3.618625000000000114e+01 1.639245000000000232e+02 1.473785000000000082e+03
1.100000000000000006e-01 5.191419999999999924e-01 3.545035000000000025e+01 1.637864999999999895e+02 1.473740000000000009e+03
1.110000000000000014e-01 5.191255000000000175e-01 3.473590000000000089e+01 1.636485000000000127e+02 1.473700000000000045e+03
1.120000000000000023e-01 5.191069999999999851e-01 3.404129999999999967e+01 1.635090000000000146e+02 1.473650000000000091e+03
1.130000000000000032e-01 5.190859999999999363e-01 3.336415000000000219e+01 1.633645000000000209e+02 1.473599999999999909e+03
1.140000000000000041e-01 5.190609999999999946e-01 3.270130000000000337e+01 1.632104999999999961e+02 1.473549999999999955e+03
1.150000000000000050e-01 5.190310000000000201e-01 3.204895000000000493e+01 1.630420000000000016e+02 1.473494999999999891e+03
1.160000000000000059e-01 5.189949999999999841e-01 3.140310000000000201e+01 1.628524999999999920e+02 1.473429999999999836e+03
1.170000000000000068e-01 5.189509999999999401e-01 3.075974999999999682e+01 1.626365000000000123e+02 1.473360000000000127e+03
1.180000000000000077e-01 5.188989999999999991e-01 3.011479999999999890e+01 1.623874999999999886e+02 1.473275000000000091e+03
1.190000000000000085e-01 5.188365000000000338e-01 2.946464999999999890e+01 1.620994999999999777e+02 1.473184999999999945e+03
1.200000000000000094e-01 5.187634999999999330e-01 2.880594999999999928e+01 1.617690000000000055e+02 1.473074999999999818e+03
1.209999999999999964e-01 5.186800000000000299e-01 2.813609999999999900e+01 1.613909999999999911e+02 1.472954999999999927e+03
1.219999999999999973e-01 5.185839999999999339e-01 2.745309999999999917e+01 1.609644999999999868e+02 1.472820000000000164e+03
1.229999999999999982e-01 5.184769999999999657e-01 2.675564999999999927e+01 1.604869999999999948e+02 1.472664999999999964e+03
1.239999999999999991e-01 5.183584999999999443e-01 2.604350000000000165e+01 1.599594999999999914e+02 1.472494999999999891e+03
1.250000000000000000e-01 5.182295000000000096e-01 2.531694999999999851e+01 1.593840000000000146e+02 1.472309999999999945e+03
1.260000000000000009e-01 5.180905000000000094e-01 2.457730000000000103e+01 1.587640000000000100e+02 1.472115000000000009e+03
1.270000000000000018e-01 5.179430000000000422e-01 2.382665000000000077e+01 1.581024999999999920e+02 1.471900000000000091e+03
1.280000000000000027e-01 5.177884999999999849e-01 2.306770000000000209e+01 1.574069999999999823e+02 1.471670000000000073e+03
1.290000000000000036e-01 5.176279999999999770e-01 2.230385000000000062e+01 1.566829999999999927e+02 1.471434999999999945e+03
1.300000000000000044e-01 5.174640000000000351e-01 2.153904999999999959e+01 1.559395000000000095e+02 1.471195000000000164e+03
1.310000000000000053e-01 5.172980000000000356e-01 2.077775000000000105e+01 1.551825000000000045e+02 1.470945000000000164e+03
1.320000000000000062e-01 5.171315000000000772e-01 2.002434999999999832e+01 1.544225000000000136e+02 1.470695000000000164e+03
1.330000000000000071e-01 5.169675000000000242e-01 1.928379999999999939e+01 1.536670000000000016e+02 1.470440000000000055e+03
1.340000000000000080e-01 5.168064999999999465e-01 1.856080000000000041e+01 1.529244999999999948e+02 1.470194999999999936e+03
1.350000000000000089e-01 5.166509999999999714e-01 1.785984999999999800e+01 1.522035000000000196e+02 1.469944999999999936e+03
1.360000000000000098e-01 5.165024999999999755e-01 1.718524999999999991e+01 1.515109999999999957e+02 1.469710000000000036e+03
1.370000000000000107e-01 5.163625000000000576e-01 1.654104999999999848e+01 1.508540000000000134e+02 1.469480000000000018e+03
1.380000000000000115e-01 5.162314999999999543e-01 1.593035000000000068e+01 1.502379999999999995e+02 1.469264999999999873e+03
1.390000000000000124e-01 5.161109999999999864e-01 1.535620000000000118e+01 1.496670000000000016e+02 1.469059999999999945e+03
1.400000000000000133e-01 5.160010000000000430e-01 1.482044999999999924e+01 1.491450000000000102e+02 1.468875000000000000e+03
1.410000000000000142e-01 5.159025000000000416e-01 1.432460000000000022e+01 1.486734999999999900e+02 1.468700000000000045e+03
1.420000000000000151e-01 5.158145000000000646e-01 1.386935000000000073e+01 1.482535000000000025e+02 1.468545000000000073e+03
1.430000000000000160e-01 5.157380000000000297e-01 1.345465000000000089e+01 1.478840000000000146e+02 1.468405000000000200e+03
1.440000000000000169e-01 5.156720000000000192e-01 1.307978500000000111e+01 1.475640000000000214e+02 1.468280000000000200e+03
1.450000000000000178e-01 5.156155000000000044e-01 1.274345500000000087e+01 1.472909999999999968e+02 1.468170000000000073e+03
1.459999999999999909e-01 5.155684999999999851e-01 1.244381999999999877e+01 1.470604999999999905e+02 1.468075000000000045e+03
1.469999999999999918e-01 5.155285000000000561e-01 1.217856000000000094e+01 1.468689999999999998e+02 1.467990000000000009e+03
1.479999999999999927e-01 5.154959999999999543e-01 1.194517499999999899e+01 1.467119999999999891e+02 1.467924999999999955e+03
1.489999999999999936e-01 5.154695000000000249e-01 1.174078499999999892e+01 1.465844999999999914e+02 1.467860000000000127e+03
1.499999999999999944e-01 5.154475000000000584e-01 1.156235999999999997e+01 1.464805000000000064e+02 1.467815000000000055e+03
1.509999999999999953e-01 5.154285000000000672e-01 1.140692999999999913e+01 1.463960000000000150e+02 1.467769999999999982e+03
1.519999999999999962e-01 5.154130000000000100e-01 1.127150999999999925e+01 1.463259999999999934e+02 1.467735000000000127e+03
1.529999999999999971e-01 5.153984999999999816e-01 1.115318999999999861e+01 1.462655000000000030e+02 1.467700000000000045e+03
1.539999999999999980e-01 5.153854999999999409e-01 1.104934000000000083e+01 1.462119999999999891e+02 1.467675000000000182e+03
1.549999999999999989e-01 5.153725000000000112e-01 1.095744499999999988e+01 1.461610000000000014e+02 1.467644999999999982e+03
1.559999999999999998e-01 5.153600000000000403e-01 1.087526000000000082e+01 1.461094999999999970e+02 1.467619999999999891e+03
1.570000000000000007e-01 5.153460000000000818e-01 1.080076500000000017e+01 1.460559999999999832e+02 1.467595000000000027e+03
1.580000000000000016e-01 5.153315000000000534e-01 1.073226499999999994e+01 1.459990000000000236e+02 1.467570000000000164e+03
1.590000000000000024e-01 5.153149999999999675e-01 1.066820500000000038e+01 1.459359999999999786e+02 1.467545000000000073e+03
