# t [s], A [cm^2], U [cm/s], P [cPa], c [cm/s]
1.000000000000000021e-03 1.964494999999999991e-01 3.563468499999999928e-01 9.408995000000000175e+01 1.989349999999999909e+03
2.000000000000000042e-03 1.963894999999999946e-01 1.973991499999999899e+00 9.072299999999999898e+01 1.988894999999999982e+03
3.000000000000000062e-03 1.962295000000000011e-01 3.951704500000000397e+00 8.608015000000000327e+01 1.987755000000000109e+03
4.000000000000000083e-03 1.960124999999999784e-01 6.168649999999999523e+00 8.111154999999999404e+01 1.986235000000000127e+03
5.000000000000000104e-03 1.957834999999999992e-01 8.544264999999999333e+00 7.675690000000000168e+01 1.984634999999999991e+03
6.000000000000000125e-03 1.955649999999999888e-01 1.087252999999999936e+01 7.326079999999998904e+01 1.983139999999999873e+03
7.000000000000000146e-03 1.953630000000000089e-01 1.291600999999999999e+01 7.029784999999999684e+01 1.981775000000000091e+03
8.000000000000000167e-03 1.951789999999999914e-01 1.460325500000000076e+01 6.762664999999999793e+01 1.980555000000000064e+03
9.000000000000001055e-03 1.950195000000000123e-01 1.599160000000000004e+01 6.533344999999999914e+01 1.979509999999999991e+03
1.000000000000000194e-02 1.948864999999999903e-01 1.712040000000000006e+01 6.349429999999999552e+01 1.978650000000000091e+03
1.099999999999999936e-02 1.947789999999999799e-01 1.800934999999999775e+01 6.207195000000000107e+01 1.977965000000000146e+03
1.200000000000000025e-02 1.946950000000000069e-01 1.868495000000000061e+01 6.101505000000000223e+01 1.977440000000000055e+03
1.300000000000000114e-02 1.946315000000000128e-01 1.915950000000000131e+01 6.024004999999999654e+01 1.977045000000000073e+03
1.400000000000000203e-02 1.945824999999999916e-01 1.944044999999999845e+01 5.962109999999999843e+01 1.976750000000000000e+03
1.499999999999999944e-02 1.945439999999999947e-01 1.958899999999999864e+01 5.913254999999999484e+01 1.976525000000000091e+03
1.600000000000000033e-02 1.945204999999999851e-01 1.974804999999999922e+01 5.899089999999999634e+01 1.976394999999999982e+03
1.700000000000000122e-02 1.945255000000000178e-01 2.008849999999999980e+01 5.958464999999999634e+01 1.976440000000000055e+03
1.800000000000000211e-02 1.945680000000000187e-01 2.071045000000000158e+01 6.121479999999999677e+01 1.976719999999999800e+03
1.900000000000000300e-02 1.946515000000000051e-01 2.157714999999999961e+01 6.384709999999999752e+01 1.977264999999999873e+03
2.000000000000000042e-02 1.947670000000000234e-01 2.252114999999999867e+01 6.704605000000000814e+01 1.978014999999999873e+03
2.100000000000000130e-02 1.948920000000000097e-01 2.331139999999999901e+01 7.011574999999999136e+01 1.978835000000000036e+03
2.200000000000000219e-02 1.950020000000000087e-01 2.374324999999999974e+01 7.235699999999999932e+01 1.979579999999999927e+03
2.299999999999999961e-02 1.950764999999999860e-01 2.371045000000000158e+01 7.331680000000000064e+01 1.980095000000000027e+03
2.400000000000000050e-02 1.951050000000000006e-01 2.323389999999999844e+01 7.292914999999999281e+01 1.980315000000000055e+03
2.500000000000000139e-02 1.950905000000000000e-01 2.244100000000000250e+01 7.150194999999999368e+01 1.980250000000000000e+03
2.600000000000000228e-02 1.950450000000000239e-01 2.150844999999999985e+01 6.956929999999999836e+01 1.979974999999999909e+03
2.700000000000000316e-02 1.949865000000000070e-01 2.059665000000000035e+01 6.768160000000000309e+01 1.979599999999999909e+03
2.800000000000000058e-02 1.949299999999999922e-01 1.980100000000000193e+01 6.622275000000000489e+01 1.979230000000000018e+03
2.900000000000000147e-02 1.948854999999999893e-01 1.913474999999999682e+01 6.531634999999999991e+01 1.978924999999999955e+03
3.000000000000000236e-02 1.948539999999999994e-01 1.854390000000000072e+01 6.483834999999999127e+01 1.978714999999999918e+03
3.099999999999999978e-02 1.948314999999999908e-01 1.794230000000000302e+01 6.451099999999999568e+01 1.978559999999999945e+03
3.200000000000000067e-02 1.948070000000000079e-01 1.725234999999999985e+01 6.403409999999999513e+01 1.978404999999999973e+03
3.300000000000000155e-02 1.947744999999999893e-01 1.643929999999999936e+01 6.320629999999999882e+01 1.978200000000000045e+03
3.400000000000000244e-02 1.947305000000000008e-01 1.552834999999999965e+01 6.200414999999999566e+01 1.977914999999999964e+03
3.500000000000000333e-02 1.946764999999999746e-01 1.460224999999999973e+01 6.059649999999999892e+01 1.977565000000000055e+03
3.600000000000000422e-02 1.946209999999999885e-01 1.377904999999999980e+01 5.929479999999999507e+01 1.977200000000000045e+03
3.700000000000000511e-02 1.945755000000000123e-01 1.317844999999999978e+01 5.845629999999999882e+01 1.976894999999999982e+03
3.799999999999999906e-02 1.945524999999999893e-01 1.288685000000000080e+01 5.837369999999999948e+01 1.976735000000000127e+03
3.899999999999999994e-02 1.945600000000000107e-01 1.293340000000000067e+01 5.918559999999999377e+01 1.976759999999999991e+03
4.000000000000000083e-02 1.945999999999999952e-01 1.328079999999999927e+01 6.083330000000000126e+01 1.977009999999999991e+03
4.100000000000000172e-02 1.946694999999999953e-01 1.383324999999999960e+01 6.307099999999999795e+01 1.977440000000000055e+03
4.200000000000000261e-02 1.947564999999999991e-01 1.445674999999999955e+01 6.552044999999999675e+01 1.978000000000000000e+03
4.300000000000000350e-02 1.948469999999999924e-01 1.500450000000000017e+01 6.775024999999999409e+01 1.978590000000000146e+03
4.400000000000000439e-02 1.949265000000000025e-01 1.534210000000000029e+01 6.935784999999999911e+01 1.979110000000000127e+03
4.499999999999999833e-02 1.949795000000000000e-01 1.536660000000000004e+01 7.003560000000000230e+01 1.979469999999999800e+03
4.599999999999999922e-02 1.949960000000000027e-01 1.501709999999999923e+01 6.961025000000000773e+01 1.979590000000000146e+03
4.700000000000000011e-02 1.949699999999999767e-01 1.427694999999999936e+01 6.805205000000000837e+01 1.979440000000000055e+03
4.800000000000000100e-02 1.949005000000000043e-01 1.316849999999999987e+01 6.545754999999999768e+01 1.979000000000000000e+03
4.900000000000000189e-02 1.947909999999999919e-01 1.174320499999999967e+01 6.201475000000000648e+01 1.978299999999999955e+03
5.000000000000000278e-02 1.946479999999999877e-01 1.007013000000000069e+01 5.796079999999999899e+01 1.977375000000000000e+03
5.100000000000000366e-02 1.944799999999999862e-01 8.225704999999999600e+00 5.354375000000000284e+01 1.976284999999999854e+03
5.200000000000000455e-02 1.942955000000000099e-01 6.286315000000000097e+00 4.899374999999999858e+01 1.975085000000000036e+03
5.300000000000000544e-02 1.941045000000000131e-01 4.324029999999999596e+00 4.450854999999999961e+01 1.973829999999999927e+03
5.399999999999999939e-02 1.939130000000000020e-01 2.405545000000000044e+00 4.025010000000000332e+01 1.972579999999999927e+03
5.500000000000000028e-02 1.937294999999999989e-01 5.927100000000000701e-01 3.635020000000000095e+01 1.971369999999999891e+03
5.600000000000000117e-02 1.935594999999999954e-01 -1.056245000000000100e+00 3.291975000000000051e+01 1.970250000000000000e+03
5.700000000000000205e-02 1.934080000000000243e-01 -2.485969000000000317e+00 3.005720000000000169e+01 1.969244999999999891e+03
5.800000000000000294e-02 1.932800000000000074e-01 -3.644324999999999815e+00 2.785379999999999967e+01 1.968400000000000091e+03
5.900000000000000383e-02 1.931795000000000040e-01 -4.484070000000000000e+00 2.639310000000000045e+01 1.967724999999999909e+03
6.000000000000000472e-02 1.931114999999999915e-01 -4.965539999999999843e+00 2.574725000000000108e+01 1.967255000000000109e+03
6.099999999999999867e-02 1.930784999999999862e-01 -5.059834999999999638e+00 2.596864999999999668e+01 1.967019999999999982e+03
6.199999999999999956e-02 1.930830000000000046e-01 -4.751784999999999926e+00 2.708214999999999861e+01 1.967019999999999982e+03
6.300000000000000044e-02 1.931259999999999921e-01 -4.041970000000000063e+00 2.907840000000000202e+01 1.967275000000000091e+03
6.400000000000000133e-02 1.932070000000000176e-01 -2.947402999999999995e+00 3.191024999999999778e+01 1.967775000000000091e+03
6.500000000000000222e-02 1.933234999999999815e-01 -1.500670000000000170e+00 3.549445000000000050e+01 1.968514999999999873e+03
6.600000000000000311e-02 1.934730000000000061e-01 2.522999999999997467e-01 3.971635000000000559e+01 1.969470000000000027e+03
6.700000000000000400e-02 1.936499999999999888e-01 2.255475000000000119e+00 4.443864999999999554e+01 1.970605000000000018e+03
6.800000000000000488e-02 1.938499999999999945e-01 4.446317500000000145e+00 4.951139999999999475e+01 1.971894999999999982e+03
6.900000000000000577e-02 1.940655000000000019e-01 6.759500000000000064e+00 5.478209999999999980e+01 1.973304999999999836e+03
7.000000000000000666e-02 1.942915000000000059e-01 9.130110000000000170e+00 6.010455000000000325e+01 1.974775000000000091e+03
7.100000000000000755e-02 1.945215000000000138e-01 1.149647000000000041e+01 6.534550000000000125e+01 1.976289999999999964e+03
7.200000000000000844e-02 1.947495000000000198e-01 1.380245999999999995e+01 7.039020000000000721e+01 1.977795000000000073e+03
7.300000000000000933e-02 1.949720000000000064e-01 1.599939999999999962e+01 7.514570000000000505e+01 1.979265000000000100e+03
7.399999999999999634e-02 1.951835000000000098e-01 1.804749999999999943e+01 7.954300000000000637e+01 1.980670000000000073e+03
7.499999999999999722e-02 1.953814999999999857e-01 1.991745000000000232e+01 8.353874999999999318e+01 1.981990000000000009e+03
7.599999999999999811e-02 1.955645000000000022e-01 2.159080000000000155e+01 8.711589999999999634e+01 1.983210000000000036e+03
7.699999999999999900e-02 1.957300000000000151e-01 2.306084999999999852e+01 9.028334999999999866e+01 1.984329999999999927e+03
7.799999999999999989e-02 1.958799999999999986e-01 2.433205000000000240e+01 9.307435000000000969e+01 1.985344999999999800e+03
7.900000000000000078e-02 1.960145000000000082e-01 2.541929999999999978e+01 9.554335000000000377e+01 1.986259999999999991e+03
8.000000000000000167e-02 1.961364999999999914e-01 2.634609999999999985e+01 9.776265000000000782e+01 1.987085000000000036e+03
8.100000000000000255e-02 1.962484999999999924e-01 2.714240000000000208e+01 9.981364999999999554e+01 1.987845000000000027e+03
8.200000000000000344e-02 1.963529999999999998e-01 2.784219999999999828e+01 1.017835000000000036e+02 1.988554999999999836e+03
8.300000000000000433e-02 1.964540000000000175e-01 2.848035000000000139e+01 1.037564999999999884e+02 1.989240000000000009e+03
8.400000000000000522e-02 1.965544999999999931e-01 2.909019999999999939e+01 1.058075000000000045e+02 1.989929999999999836e+03
8.500000000000000611e-02 1.966585000000000139e-01 2.970085000000000264e+01 1.079969999999999999e+02 1.990630000000000109e+03
8.600000000000000699e-02 1.967674999999999841e-01 3.033539999999999992e+01 1.103675000000000068e+02 1.991365000000000009e+03
8.700000000000000788e-02 1.968825000000000158e-01 3.100939999999999941e+01 1.129389999999999930e+02 1.992139999999999873e+03
8.800000000000000877e-02 1.970055000000000001e-01 3.173019999999999641e+01 1.157104999999999961e+02 1.992965000000000146e+03
8.899999999999999578e-02 1.971364999999999923e-01 3.249685000000000201e+01 1.186589999999999918e+02 1.993840000000000146e+03
8.999999999999999667e-02 1.972734999999999905e-01 3.330065000000000452e+01 1.217450000000000045e+02 1.994759999999999991e+03
9.099999999999999756e-02 1.974154999999999938e-01 3.412604999999999933e+01 1.249124999999999943e+02 1.995710000000000036e+03
9.199999999999999845e-02 1.975605000000000000e-01 3.495215000000000316e+01 1.280954999999999870e+02 1.996680000000000064e+03
9.299999999999999933e-02 1.977055000000000062e-01 3.575435000000000230e+01 1.312214999999999918e+02 1.997655000000000200e+03
9.400000000000000022e-02 1.978479999999999961e-01 3.650584999999999525e+01 1.342185000000000059e+02 1.998615000000000009e+03
9.500000000000000111e-02 1.979845000000000077e-01 3.717980000000000018e+01 1.370149999999999864e+02 1.999534999999999854e+03
9.600000000000000200e-02 1.981120000000000103e-01 3.775034999999999741e+01 1.395480000000000018e+02 2.000400000000000091e+03
9.700000000000000289e-02 1.982280000000000153e-01 3.819474999999999909e+01 1.417630000000000052e+02 2.001190000000000055e+03
9.800000000000000377e-02 1.983309999999999795e-01 3.849389999999999645e+01 1.436184999999999832e+02 2.001889999999999873e+03
9.900000000000000466e-02 1.984184999999999977e-01 3.863385000000000247e+01 1.450869999999999891e+02 2.002485000000000127e+03
1.000000000000000056e-01 1.984894999999999854e-01 3.860599999999999454e+01 1.461535000000000082e+02 2.002974999999999909e+03
1.010000000000000064e-01 1.985429999999999973e-01 3.840769999999999840e+01 1.468195000000000050e+02 2.003349999999999909e+03
1.020000000000000073e-01 1.985790000000000055e-01 3.804205000000000325e+01 1.470980000000000132e+02 2.003610000000000127e+03
1.030000000000000082e-01 1.985989999999999978e-01 3.751780000000000115e+01 1.470160000000000196e+02 2.003755000000000109e+03
1.040000000000000091e-01 1.986029999999999740e-01 3.684859999999999758e+01 1.466100000000000136e+02 2.003799999999999955e+03
1.050000000000000100e-01 1.985925000000000051e-01 3.605245000000000033e+01 1.459250000000000114e+02 2.003739999999999782e+03
1.059999999999999970e-01 1.985699999999999965e-01 3.515075000000000216e+01 1.450124999999999886e+02 2.003594999999999800e+03
1.069999999999999979e-01 1.985365000000000046e-01 3.416704999999999615e+01 1.439269999999999925e+02 2.003384999999999991e+03
1.079999999999999988e-01 1.984960000000000058e-01 3.312624999999999886e+01 1.427239999999999895e+02 2.003114999999999782e+03
1.089999999999999997e-01 1.984484999999999999e-01 3.205340000000000344e+01 1.414565000000000055e+02 2.002805000000000064e+03
1.100000000000000006e-01 1.983980000000000188e-01 3.097279999999999944e+01 1.401769999999999925e+02 2.002464999999999918e+03
1.110000000000000014e-01 1.983459999999999945e-01 2.990704999999999814e+01 1.389300000000000068e+02 2.002119999999999891e+03
1.120000000000000023e-01 1.982944999999999847e-01 2.887614999999999910e+01 1.377549999999999955e+02 2.001775000000000091e+03
1.130000000000000032e-01 1.982454999999999912e-01 2.789714999999999989e+01 1.366834999999999809e+02 2.001440000000000055e+03
1.140000000000000041e-01 1.981995000000000007e-01 2.698310000000000031e+01 1.357379999999999995e+02 2.001130000000000109e+03
1.150000000000000050e-01 1.981585000000000152e-01 2.614329999999999998e+01 1.349325000000000045e+02 2.000855000000000018e+03
1.160000000000000059e-01 1.981224999999999792e-01 2.538255000000000194e+01 1.342704999999999984e+02 2.000605000000000018e+03
1.170000000000000068e-01 1.980925000000000047e-01 2.470165000000000077e+01 1.337479999999999905e+02 2.000400000000000091e+03
1.180000000000000077e-01 1.980675000000000074e-01 2.409700000000000131e+01 1.333509999999999991e+02 2.000224999999999909e+03
1.190000000000000085e-01 1.980480000000000018e-01 2.356155000000000044e+01 1.330589999999999975e+02 2.000079999999999927e+03
1.200000000000000094e-01 1.980319999999999858e-01 2.308480000000000132e+01 1.328449999999999989e+02 1.999970000000000027e+03
1.209999999999999964e-01 1.980190000000000006e-01 2.265359999999999729e+01 1.326754999999999995e+02 1.999875000000000000e+03
1.219999999999999973e-01 1.980079999999999896e-01 2.225300000000000011e+01 1.325160000000000196e+02 1.999800000000000182e+03
1.229999999999999982e-01 1.979974999999999929e-01 2.186710000000000065e+01 1.323290000000000077e+02 1.999720000000000027e+03
1.239999999999999991e-01 1.979855000000000087e-01 2.147954999999999970e+01 1.320794999999999959e+02 1.999639999999999873e+03
1.250000000000000000e-01 1.979714999999999947e-01 2.107475000000000165e+01 1.317330000000000041e+02 1.999539999999999964e+03
1.260000000000000009e-01 1.979529999999999901e-01 2.063870000000000005e+01 1.312609999999999957e+02 1.999414999999999964e+03
1.270000000000000018e-01 1.979290000000000216e-01 2.015954999999999941e+01 1.306399999999999864e+02 1.999255000000000109e+03
1.280000000000000027e-01 1.978989999999999916e-01 1.962819999999999965e+01 1.298545000000000016e+02 1.999054999999999836e+03
1.290000000000000036e-01 1.978624999999999967e-01 1.903909999999999769e+01 1.288974999999999795e+02 1.998809999999999945e+03
1.300000000000000044e-01 1.978189999999999948e-01 1.839020000000000010e+01 1.277690000000000055e+02 1.998514999999999873e+03
1.310000000000000053e-01 1.977674999999999850e-01 1.768330000000000268e+01 1.264799999999999898e+02 1.998179999999999836e+03
1.320000000000000062e-01 1.977099999999999969e-01 1.692374999999999829e+01 1.250480000000000018e+02 1.997795000000000073e+03
1.330000000000000071e-01 1.976459999999999884e-01 1.612059999999999960e+01 1.234985000000000070e+02 1.997365000000000009e+03
1.340000000000000080e-01 1.975775000000000170e-01 1.528560000000000052e+01 1.218640000000000043e+02 1.996910000000000082e+03
1.350000000000000089e-01 1.975049999999999861e-01 1.443290000000000006e+01 1.201810000000000116e+02 1.996425000000000182e+03
1.360000000000000098e-01 1.974305000000000088e-01 1.357840000000000025e+01 1.184884999999999877e+02 1.995930000000000064e+03
1.370000000000000107e-01 1.973550000000000026e-01 1.273874999999999957e+01 1.168265000000000100e+02 1.995429999999999836e+03
1.380000000000000115e-01 1.972814999999999985e-01 1.193068500000000043e+01 1.152339999999999947e+02 1.994929999999999836e+03
1.390000000000000124e-01 1.972099999999999964e-01 1.117015999999999920e+01 1.137469999999999999e+02 1.994454999999999927e+03
1.400000000000000133e-01 1.971434999999999993e-01 1.047183499999999867e+01 1.123979999999999961e+02 1.994005000000000109e+03
1.410000000000000142e-01 1.970824999999999938e-01 9.848139999999999006e+00 1.112134999999999962e+02 1.993589999999999918e+03
1.420000000000000151e-01 1.970284999999999953e-01 9.308975000000000222e+00 1.102134999999999962e+02 1.993224999999999909e+03
1.430000000000000160e-01 1.969815000000000038e-01 8.861420000000000741e+00 1.094089999999999918e+02 1.992904999999999973e+03
1.440000000000000169e-01 1.969434999999999936e-01 8.509365000000000734e+00 1.088075000000000045e+02 1.992640000000000100e+03
1.450000000000000178e-01 1.969135000000000191e-01 8.253505000000000535e+00 1.084054999999999893e+02 1.992434999999999945e+03
1.459999999999999909e-01 1.968920000000000115e-01 8.091504999999999725e+00 1.081949999999999932e+02 1.992279999999999973e+03
1.469999999999999918e-01 1.968789999999999984e-01 8.018184999999999008e+00 1.081610000000000014e+02 1.992190000000000055e+03
1.479999999999999927e-01 1.968735000000000068e-01 8.025835000000000719e+00 1.082845000000000084e+02 1.992144999999999982e+03
1.489999999999999936e-01 1.968754999999999811e-01 8.104665000000000674e+00 1.085399999999999920e+02 1.992144999999999982e+03
1.499999999999999944e-01 1.968829999999999747e-01 8.243270000000000763e+00 1.089029999999999916e+02 1.992190000000000055e+03
1.509999999999999953e-01 1.968949999999999867e-01 8.429144999999998333e+00 1.093439999999999941e+02 1.992269999999999982e+03
1.519999999999999962e-01 1.969104999999999883e-01 8.649200000000000443e+00 1.098350000000000080e+02 1.992369999999999891e+03
1.529999999999999971e-01 1.969290000000000207e-01 8.890280000000000626e+00 1.103479999999999990e+02 1.992485000000000127e+03
1.539999999999999980e-01 1.969489999999999852e-01 9.139614999999999156e+00 1.108569999999999993e+02 1.992615000000000009e+03
1.549999999999999989e-01 1.969690000000000052e-01 9.385265000000000413e+00 1.113379999999999939e+02 1.992744999999999891e+03
1.559999999999999998e-01 1.969885000000000108e-01 9.616485000000000838e+00 1.117715000000000032e+02 1.992875000000000000e+03
1.570000000000000007e-01 1.970060000000000144e-01 9.824035000000000295e+00 1.121400000000000006e+02 1.992994999999999891e+03
1.580000000000000016e-01 1.970210000000000017e-01 1.000032000000000032e+01 1.124304999999999950e+02 1.993090000000000146e+03
1.590000000000000024e-01 1.970335000000000003e-01 1.013980000000000103e+01 1.126355000000000075e+02 1.993174999999999955e+03
