# t [s], A [cm^2], U [cm/s], P [cPa], c [cm/s]
1.000000000000000021e-03 6.304954999999999865e-01 5.859900000000001219e-03 1.009105000000000132e+02 1.718944999999999936e+03
2.000000000000000042e-03 6.304849999999999621e-01 -3.362834999999999783e-03 1.008829999999999956e+02 1.718940000000000055e+03
3.000000000000000062e-03 6.305259999999999199e-01 7.026480000000000226e-02 1.009685000000000059e+02 1.718960000000000036e+03
4.000000000000000083e-03 6.305730000000000501e-01 1.645183000000000062e-01 1.010976499999999874e+02 1.718994999999999891e+03
5.000000000000000104e-03 6.305620000000000669e-01 1.622919999999999918e-01 1.010815000000000055e+02 1.718994999999999891e+03
6.000000000000000125e-03 6.305110000000000436e-01 8.360600000000001364e-02 1.009064999999999941e+02 1.718954999999999927e+03
7.000000000000000146e-03 6.304680000000000284e-01 1.603999999999999870e-02 1.006854999999999905e+02 1.718904999999999973e+03
8.000000000000000167e-03 6.304130000000000011e-01 -8.409100000000002684e-02 1.003834999999999980e+02 1.718835000000000036e+03
9.000000000000001055e-03 6.303140000000000409e-01 -2.801399999999999446e-01 9.991059999999998809e+01 1.718730000000000018e+03
1.000000000000000194e-02 6.301630000000000287e-01 -5.905550000000000521e-01 9.921065000000000111e+01 1.718574999999999818e+03
1.099999999999999936e-02 6.299434999999999896e-01 -1.039270000000000138e+00 9.821659999999999968e+01 1.718349999999999909e+03
1.200000000000000025e-02 6.296464999999999979e-01 -1.633494999999999919e+00 9.687434999999999263e+01 1.718049999999999955e+03
1.300000000000000114e-02 6.292959999999999665e-01 -2.309970000000000301e+00 9.522714999999999463e+01 1.717664999999999964e+03
1.400000000000000203e-02 6.289430000000000298e-01 -2.944910000000000139e+00 9.342384999999998740e+01 1.717235000000000127e+03
1.499999999999999944e-02 6.286339999999999151e-01 -3.417003500000000304e+00 9.164589999999999748e+01 1.716795000000000073e+03
1.600000000000000033e-02 6.283890000000000864e-01 -3.659994549999999958e+00 9.002385000000001014e+01 1.716365000000000009e+03
1.700000000000000122e-02 6.281970000000000054e-01 -3.674580500000000249e+00 8.859794999999999732e+01 1.715974999999999909e+03
1.800000000000000211e-02 6.280295000000000183e-01 -3.509063500000000335e+00 8.732820000000000960e+01 1.715599999999999909e+03
1.900000000000000300e-02 6.278559999999999697e-01 -3.228864500000000248e+00 8.612985000000000468e+01 1.715244999999999891e+03
2.000000000000000042e-02 6.276524999999999466e-01 -2.889550000000000285e+00 8.491495000000000459e+01 1.714885000000000218e+03
2.100000000000000130e-02 6.274129999999999985e-01 -2.520674500000000151e+00 8.362479999999999336e+01 1.714500000000000000e+03
2.200000000000000219e-02 6.271434999999999649e-01 -2.122774999999999856e+00 8.224490000000000123e+01 1.714099999999999909e+03
2.299999999999999961e-02 6.268595000000000139e-01 -1.676329999999999876e+00 8.080119999999999436e+01 1.713684999999999945e+03
2.400000000000000050e-02 6.265760000000000218e-01 -1.158015000000000017e+00 7.934069999999999823e+01 1.713259999999999991e+03
2.500000000000000139e-02 6.263034999999999020e-01 -5.570650000000001434e-01 7.790549999999998931e+01 1.712839999999999918e+03
2.600000000000000228e-02 6.260410000000000696e-01 1.141899999999997917e-01 7.651239999999999952e+01 1.712425000000000182e+03
2.700000000000000316e-02 6.257779999999999454e-01 8.185449999999998560e-01 7.514230000000000587e+01 1.712014999999999873e+03
2.800000000000000058e-02 6.254954999999999821e-01 1.500110000000000054e+00 7.374235000000000184e+01 1.711599999999999909e+03
2.900000000000000147e-02 6.251735000000000486e-01 2.096079999999999721e+00 7.223930000000000007e+01 1.711159999999999854e+03
3.000000000000000236e-02 6.247964999999999769e-01 2.550645000000000273e+00 7.055889999999999418e+01 1.710690000000000055e+03
3.099999999999999978e-02 6.243564999999999809e-01 2.827435000000000365e+00 6.864740000000000464e+01 1.710170000000000073e+03
3.200000000000000067e-02 6.238580000000000236e-01 2.917250000000000121e+00 6.648805000000000121e+01 1.709589999999999918e+03
3.300000000000000155e-02 6.233144999999999936e-01 2.838905000000000456e+00 6.410849999999999227e+01 1.708965000000000146e+03
3.400000000000000244e-02 6.227495000000000669e-01 2.632844999999999658e+00 6.157724999999999937e+01 1.708300000000000182e+03
3.500000000000000333e-02 6.221875000000000044e-01 2.351119999999999433e+00 5.899060000000000059e+01 1.707619999999999891e+03
3.600000000000000422e-02 6.216539999999999289e-01 2.046115000000000350e+00 5.645584999999999809e+01 1.706945000000000164e+03
3.700000000000000511e-02 6.211670000000000247e-01 1.762394999999999712e+00 5.407489999999999952e+01 1.706305000000000064e+03
3.799999999999999906e-02 6.207405000000000284e-01 1.532015000000000349e+00 5.193249999999999744e+01 1.705714999999999918e+03
3.899999999999999994e-02 6.203815000000000301e-01 1.374554999999999971e+00 5.009090000000000487e+01 1.705190000000000055e+03
4.000000000000000083e-02 6.200935000000000752e-01 1.299649999999999972e+00 4.858944999999999936e+01 1.704750000000000000e+03
4.100000000000000172e-02 6.198764999999999414e-01 1.311199999999999921e+00 4.744859999999999900e+01 1.704400000000000091e+03
4.200000000000000261e-02 6.197295000000000442e-01 1.411634999999999973e+00 4.667595000000000027e+01 1.704144999999999982e+03
4.300000000000000350e-02 6.196535000000000792e-01 1.605129500000000098e+00 4.627259999999999707e+01 1.703980000000000018e+03
4.400000000000000439e-02 6.196485000000000465e-01 1.899010000000000087e+00 4.623765000000000214e+01 1.703920000000000073e+03
4.499999999999999833e-02 6.197159999999999336e-01 2.303390000000000271e+00 4.657079999999999842e+01 1.703954999999999927e+03
4.599999999999999922e-02 6.198574999999999502e-01 2.829200000000000159e+00 4.727195000000000391e+01 1.704090000000000146e+03
4.700000000000000011e-02 6.200734999999999442e-01 3.485538500000000095e+00 4.833920000000000528e+01 1.704320000000000164e+03
4.800000000000000100e-02 6.203625000000000389e-01 4.277016999999999847e+00 4.976539999999999964e+01 1.704640000000000100e+03
4.900000000000000189e-02 6.207210000000000782e-01 5.201891500000000335e+00 5.153560000000000230e+01 1.705065000000000055e+03
5.000000000000000278e-02 6.211420000000000829e-01 6.251300999999999775e+00 5.362494999999999834e+01 1.705565000000000055e+03
5.100000000000000366e-02 6.216170000000000861e-01 7.409650000000000070e+00 5.599859999999999616e+01 1.706150000000000091e+03
5.200000000000000455e-02 6.221365000000000922e-01 8.655999999999998806e+00 5.861280000000000712e+01 1.706804999999999836e+03
5.300000000000000544e-02 6.226890000000000480e-01 9.966150000000000730e+00 6.141749999999999687e+01 1.707514999999999873e+03
5.399999999999999939e-02 6.232634999999999703e-01 1.131468000000000096e+01 6.435994999999999777e+01 1.708269999999999982e+03
5.500000000000000028e-02 6.238489999999999869e-01 1.267733499999999935e+01 6.738824999999999932e+01 1.709059999999999945e+03
5.600000000000000117e-02 6.244374999999999787e-01 1.403240999999999872e+01 7.045470000000000255e+01 1.709869999999999891e+03
5.700000000000000205e-02 6.250225000000000364e-01 1.536202000000000112e+01 7.351869999999999550e+01 1.710684999999999945e+03
5.800000000000000294e-02 6.255990000000000162e-01 1.665254999999999797e+01 7.654800000000000182e+01 1.711500000000000000e+03
5.900000000000000383e-02 6.261634999999999840e-01 1.789444999999999908e+01 7.951964999999999861e+01 1.712309999999999945e+03
6.000000000000000472e-02 6.267150000000000221e-01 1.908180000000000121e+01 8.241949999999999932e+01 1.713105000000000018e+03
6.099999999999999867e-02 6.272529999999999495e-01 2.021150000000000091e+01 8.524090000000001055e+01 1.713884999999999991e+03
6.199999999999999956e-02 6.277779999999999472e-01 2.128269999999999840e+01 8.798349999999999227e+01 1.714654999999999973e+03
6.300000000000000044e-02 6.282920000000000726e-01 2.229560000000000031e+01 9.065104999999999791e+01 1.715400000000000091e+03
6.400000000000000133e-02 6.287960000000000216e-01 2.325095000000000312e+01 9.324960000000000093e+01 1.716130000000000109e+03
6.500000000000000222e-02 6.292900000000000160e-01 2.414959999999999951e+01 9.578624999999999545e+01 1.716845000000000027e+03
6.600000000000000311e-02 6.297755000000000436e-01 2.499150000000000205e+01 9.826590000000000202e+01 1.717549999999999955e+03
6.700000000000000400e-02 6.302529999999999522e-01 2.577599999999999980e+01 1.006928499999999929e+02 1.718235000000000127e+03
6.800000000000000488e-02 6.307214999999999350e-01 2.650144999999999840e+01 1.030666999999999973e+02 1.718909999999999854e+03
6.900000000000000577e-02 6.311790000000000456e-01 2.716525000000000034e+01 1.053843499999999977e+02 1.719569999999999936e+03
7.000000000000000666e-02 6.316249999999999920e-01 2.776415000000000077e+01 1.076400000000000006e+02 1.720219999999999800e+03
7.100000000000000755e-02 6.320565000000000211e-01 2.829444999999999766e+01 1.098249999999999886e+02 1.720845000000000027e+03
7.200000000000000844e-02 6.324719999999999231e-01 2.875260000000000105e+01 1.119279999999999973e+02 1.721450000000000045e+03
7.300000000000000933e-02 6.328679999999999861e-01 2.913539999999999708e+01 1.139380000000000024e+02 1.722034999999999854e+03
7.399999999999999634e-02 6.332424999999999304e-01 2.944035000000000224e+01 1.158425000000000011e+02 1.722590000000000146e+03
7.499999999999999722e-02 6.335950000000000193e-01 2.966574999999999918e+01 1.176320000000000050e+02 1.723115000000000009e+03
7.599999999999999811e-02 6.339219999999999855e-01 2.981105000000000160e+01 1.192960000000000065e+02 1.723605000000000018e+03
7.699999999999999900e-02 6.342239999999998989e-01 2.987655000000000172e+01 1.208275000000000006e+02 1.724065000000000055e+03
7.799999999999999989e-02 6.344990000000000352e-01 2.986355000000000004e+01 1.222205000000000013e+02 1.724485000000000127e+03
7.900000000000000078e-02 6.347464999999999913e-01 2.977369999999999806e+01 1.234715000000000060e+02 1.724869999999999891e+03
8.000000000000000167e-02 6.349670000000000591e-01 2.960945000000000249e+01 1.245780000000000030e+02 1.725220000000000027e+03
8.100000000000000255e-02 6.351594999999999880e-01 2.937369999999999948e+01 1.255405000000000086e+02 1.725519999999999982e+03
8.200000000000000344e-02 6.353249999999999176e-01 2.906969999999999743e+01 1.263594999999999970e+02 1.725785000000000082e+03
8.300000000000000433e-02 6.354630000000000001e-01 2.870125000000000171e+01 1.270375000000000085e+02 1.726009999999999991e+03
8.400000000000000522e-02 6.355750000000000011e-01 2.827289999999999992e+01 1.275780000000000030e+02 1.726200000000000045e+03
8.500000000000000611e-02 6.356614999999999904e-01 2.778965000000000174e+01 1.279874999999999972e+02 1.726345000000000027e+03
8.600000000000000699e-02 6.357245000000000257e-01 2.725735000000000241e+01 1.282715000000000032e+02 1.726460000000000036e+03
8.700000000000000788e-02 6.357660000000000533e-01 2.668285000000000196e+01 1.284410000000000025e+02 1.726545000000000073e+03
8.800000000000000877e-02 6.357869999999999910e-01 2.607325000000000159e+01 1.285054999999999836e+02 1.726595000000000027e+03
8.899999999999999578e-02 6.357915000000000649e-01 2.543645000000000067e+01 1.284770000000000039e+02 1.726615000000000009e+03
8.999999999999999667e-02 6.357805000000000817e-01 2.478054999999999808e+01 1.283684999999999832e+02 1.726610000000000127e+03
9.099999999999999756e-02 6.357580000000000453e-01 2.411349999999999838e+01 1.281945000000000050e+02 1.726585000000000036e+03
9.199999999999999845e-02 6.357260000000000133e-01 2.344279999999999831e+01 1.279669999999999845e+02 1.726545000000000073e+03
9.299999999999999933e-02 6.356859999999999733e-01 2.277524999999999977e+01 1.276989999999999981e+02 1.726484999999999900e+03
9.400000000000000022e-02 6.356414999999999704e-01 2.211650000000000205e+01 1.274025000000000034e+02 1.726420000000000073e+03
9.500000000000000111e-02 6.355930000000000746e-01 2.147104999999999819e+01 1.270860000000000127e+02 1.726340000000000146e+03
9.600000000000000200e-02 6.355414999999999814e-01 2.084215000000000018e+01 1.267564999999999884e+02 1.726259999999999991e+03
9.700000000000000289e-02 6.354885000000000117e-01 2.023134999999999906e+01 1.264205000000000041e+02 1.726170000000000073e+03
9.800000000000000377e-02 6.354324999999999557e-01 1.963925000000000054e+01 1.260790000000000077e+02 1.726075000000000045e+03
9.900000000000000466e-02 6.353750000000000231e-01 1.906499999999999773e+01 1.257319999999999993e+02 1.725980000000000018e+03
1.000000000000000056e-01 6.353145000000000042e-01 1.850694999999999979e+01 1.253789999999999907e+02 1.725889999999999873e+03
1.010000000000000064e-01 6.352504999999999402e-01 1.796259999999999835e+01 1.250165000000000077e+02 1.725785000000000082e+03
1.020000000000000073e-01 6.351819999999999133e-01 1.742889999999999873e+01 1.246400000000000148e+02 1.725679999999999836e+03
1.030000000000000082e-01 6.351084999999999647e-01 1.690254999999999797e+01 1.242439999999999998e+02 1.725569999999999936e+03
1.040000000000000091e-01 6.350279999999999259e-01 1.638004999999999711e+01 1.238245000000000005e+02 1.725450000000000045e+03
1.050000000000000100e-01 6.349404999999999077e-01 1.585800000000000054e+01 1.233764999999999930e+02 1.725329999999999927e+03
1.059999999999999970e-01 6.348454999999999515e-01 1.533340000000000103e+01 1.228944999999999936e+02 1.725200000000000045e+03
1.069999999999999979e-01 6.347420000000000284e-01 1.480349999999999966e+01 1.223760000000000048e+02 1.725054999999999836e+03
1.079999999999999988e-01 6.346300000000000274e-01 1.426624999999999943e+01 1.218195000000000050e+02 1.724910000000000082e+03
1.089999999999999997e-01 6.345089999999999897e-01 1.372036999999999907e+01 1.212235000000000014e+02 1.724744999999999891e+03
1.100000000000000006e-01 6.343810000000000837e-01 1.316520000000000046e+01 1.205895000000000010e+02 1.724570000000000164e+03
1.110000000000000014e-01 6.342449999999999477e-01 1.260110999999999848e+01 1.199184999999999945e+02 1.724389999999999873e+03
1.120000000000000023e-01 6.341025000000000134e-01 1.202935499999999891e+01 1.192169999999999987e+02 1.724199999999999818e+03
1.130000000000000032e-01 6.339559999999999640e-01 1.145211500000000093e+01 1.184894999999999925e+02 1.724005000000000109e+03
1.140000000000000041e-01 6.338060000000000915e-01 1.087235499999999888e+01 1.177439999999999998e+02 1.723805000000000064e+03
1.150000000000000050e-01 6.336550000000000793e-01 1.029378499999999974e+01 1.169894999999999925e+02 1.723599999999999909e+03
1.160000000000000059e-01 6.335055000000000547e-01 9.720834999999999226e+00 1.162359999999999900e+02 1.723389999999999873e+03
1.170000000000000068e-01 6.333585000000000464e-01 9.158155000000000712e+00 1.154939999999999998e+02 1.723184999999999945e+03
1.180000000000000077e-01 6.332174999999999887e-01 8.610804999999999154e+00 1.147750000000000057e+02 1.722990000000000009e+03
1.190000000000000085e-01 6.330839999999999801e-01 8.083790000000000475e+00 1.140889999999999986e+02 1.722795000000000073e+03
1.200000000000000094e-01 6.329599999999999671e-01 7.581884999999999764e+00 1.134465000000000003e+02 1.722615000000000009e+03
1.209999999999999964e-01 6.328469999999999374e-01 7.109519999999999840e+00 1.128569999999999993e+02 1.722445000000000164e+03
1.219999999999999973e-01 6.327469999999999484e-01 6.670410000000000394e+00 1.123285000000000053e+02 1.722289999999999964e+03
1.229999999999999982e-01 6.326609999999999179e-01 6.267579999999999707e+00 1.118675000000000068e+02 1.722154999999999973e+03
1.239999999999999991e-01 6.325884999999999980e-01 5.903140000000000498e+00 1.114770000000000039e+02 1.722029999999999973e+03
1.250000000000000000e-01 6.325315000000000243e-01 5.578224999999999767e+00 1.111610000000000014e+02 1.721929999999999836e+03
1.260000000000000009e-01 6.324890000000000789e-01 5.293014999999999581e+00 1.109174999999999898e+02 1.721855000000000018e+03
1.270000000000000018e-01 6.324594999999999523e-01 5.046734999999999971e+00 1.107464999999999975e+02 1.721789999999999964e+03
1.280000000000000027e-01 6.324429999999999774e-01 4.837754999999999583e+00 1.106430000000000007e+02 1.721744999999999891e+03
1.290000000000000036e-01 6.324385000000000145e-01 4.663719999999999644e+00 1.106014999999999873e+02 1.721719999999999800e+03
1.300000000000000044e-01 6.324444999999999650e-01 4.521665000000000489e+00 1.106159999999999997e+02 1.721704999999999927e+03
1.310000000000000053e-01 6.324585000000000345e-01 4.408220000000000027e+00 1.106784999999999997e+02 1.721710000000000036e+03
1.320000000000000062e-01 6.324795000000000833e-01 4.319754999999999789e+00 1.107810000000000059e+02 1.721730000000000018e+03
1.330000000000000071e-01 6.325065000000000826e-01 4.252505000000000202e+00 1.109155000000000086e+02 1.721750000000000000e+03
1.340000000000000080e-01 6.325374999999999748e-01 4.202759999999999607e+00 1.110724999999999909e+02 1.721779999999999973e+03
1.350000000000000089e-01 6.325699999999999656e-01 4.166924999999999990e+00 1.112460000000000093e+02 1.721824999999999818e+03
1.360000000000000098e-01 6.326050000000000839e-01 4.141650000000000276e+00 1.114284999999999997e+02 1.721865000000000009e+03
1.370000000000000107e-01 6.326395000000000213e-01 4.123850000000000016e+00 1.116144999999999925e+02 1.721909999999999854e+03
1.380000000000000115e-01 6.326734999999999998e-01 4.110794999999999533e+00 1.117974999999999994e+02 1.721954999999999927e+03
1.390000000000000124e-01 6.327059999999999906e-01 4.100094999999999601e+00 1.119735000000000014e+02 1.722000000000000000e+03
1.400000000000000133e-01 6.327369999999999939e-01 4.089769999999999683e+00 1.121394999999999982e+02 1.722045000000000073e+03
1.410000000000000142e-01 6.327650000000000219e-01 4.078195000000000014e+00 1.122939999999999969e+02 1.722085000000000036e+03
1.420000000000000151e-01 6.327905000000000335e-01 4.064154999999999518e+00 1.124344999999999999e+02 1.722125000000000000e+03
1.430000000000000160e-01 6.328134999999999177e-01 4.046789999999999665e+00 1.125594999999999999e+02 1.722160000000000082e+03
1.440000000000000169e-01 6.328335000000000488e-01 4.025615000000000165e+00 1.126705000000000041e+02 1.722190000000000055e+03
1.450000000000000178e-01 6.328510000000000524e-01 4.000449999999999839e+00 1.127669999999999959e+02 1.722220000000000027e+03
1.459999999999999909e-01 6.328664999999999985e-01 3.971435000000000048e+00 1.128509999999999991e+02 1.722240000000000009e+03
1.469999999999999918e-01 6.328804999999999570e-01 3.938909999999999911e+00 1.129230000000000018e+02 1.722264999999999873e+03
1.479999999999999927e-01 6.328925000000000800e-01 3.903430000000000177e+00 1.129849999999999994e+02 1.722284999999999854e+03
1.489999999999999936e-01 6.329029999999999934e-01 3.865639999999999965e+00 1.130384999999999991e+02 1.722305000000000064e+03
1.499999999999999944e-01 6.329130000000000589e-01 3.826249999999999929e+00 1.130860000000000127e+02 1.722320000000000164e+03
1.509999999999999953e-01 6.329219999999999846e-01 3.785934999999999828e+00 1.131280000000000001e+02 1.722329999999999927e+03
1.519999999999999962e-01 6.329310000000000214e-01 3.745315000000000172e+00 1.131670000000000016e+02 1.722345000000000027e+03
1.529999999999999971e-01 6.329394999999999882e-01 3.704879999999999729e+00 1.132030000000000030e+02 1.722355000000000018e+03
1.539999999999999980e-01 6.329474999999999962e-01 3.664954999999999963e+00 1.132369999999999948e+02 1.722369999999999891e+03
1.549999999999999989e-01 6.329549999999999343e-01 3.625704999999999956e+00 1.132684999999999889e+02 1.722380000000000109e+03
1.559999999999999998e-01 6.329620000000000246e-01 3.587119999999999642e+00 1.132969999999999970e+02 1.722384999999999991e+03
1.570000000000000007e-01 6.329690000000000039e-01 3.549020000000000064e+00 1.133225000000000051e+02 1.722394999999999982e+03
1.580000000000000016e-01 6.329744999999999955e-01 3.511115000000000208e+00 1.133435000000000059e+02 1.722400000000000091e+03
1.590000000000000024e-01 6.329784999999999995e-01 3.473015000000000185e+00 1.133589999999999947e+02 1.722404999999999973e+03
