# t [s], A [cm^2], U [cm/s], P [cPa], c [cm/s]
1.000000000000000021e-03 7.046339999999999826e-01 4.282199999999999895e-03 9.120390000000000441e+01 1.613400000000000091e+03
2.000000000000000042e-03 7.046240000000000281e-01 -2.426565500000000056e-03 9.118444999999999823e+01 1.613394999999999982e+03
3.000000000000000062e-03 7.046479999999999411e-01 3.295630000000000087e-02 9.122034999999999627e+01 1.613405000000000200e+03
4.000000000000000083e-03 7.047019999999999396e-01 1.170512999999999970e-01 9.132884999999998854e+01 1.613440000000000055e+03
5.000000000000000104e-03 7.047210000000000418e-01 1.567777999999999949e-01 9.138004999999999711e+01 1.613450000000000045e+03
6.000000000000000125e-03 7.046839999999999771e-01 1.152610500000000038e-01 9.130129999999999768e+01 1.613434999999999945e+03
7.000000000000000146e-03 7.046364999999999990e-01 5.481550000000001699e-02 9.115324999999999989e+01 1.613400000000000091e+03
8.000000000000000167e-03 7.045995000000000452e-01 7.011500000000003840e-03 9.098644999999999072e+01 1.613359999999999900e+03
9.000000000000001055e-03 7.045440000000000591e-01 -7.728950000000001097e-02 9.075290000000001100e+01 1.613299999999999955e+03
1.000000000000000194e-02 7.044490000000001029e-01 -2.343735000000000124e-01 9.039934999999999832e+01 1.613215000000000146e+03
1.099999999999999936e-02 7.043079999999999341e-01 -4.779049999999999132e-01 8.988989999999999725e+01 1.613095000000000027e+03
1.200000000000000025e-02 7.041055000000000508e-01 -8.269850000000000811e-01 8.917725000000000080e+01 1.612920000000000073e+03
1.300000000000000114e-02 7.038340000000000707e-01 -1.287465000000000082e+00 8.822499999999999432e+01 1.612690000000000055e+03
1.400000000000000203e-02 7.035109999999999975e-01 -1.820069999999999855e+00 8.705350000000001387e+01 1.612400000000000091e+03
1.499999999999999944e-02 7.031764999999999821e-01 -2.344344999999999679e+00 8.574754999999998972e+01 1.612070000000000164e+03
1.600000000000000033e-02 7.028704999999999536e-01 -2.774433000000000149e+00 8.441859999999999786e+01 1.611719999999999800e+03
1.700000000000000122e-02 7.026140000000000718e-01 -3.053263499999999908e+00 8.315715000000000146e+01 1.611375000000000000e+03
1.800000000000000211e-02 7.024055000000000160e-01 -3.165281400000000023e+00 8.200569999999999027e+01 1.611045000000000073e+03
1.900000000000000300e-02 7.022280000000000744e-01 -3.129478000000000204e+00 8.095740000000000691e+01 1.610734999999999900e+03
2.000000000000000042e-02 7.020560000000000134e-01 -2.983123499999999595e+00 7.997209999999999752e+01 1.610424999999999955e+03
2.100000000000000130e-02 7.018670000000000186e-01 -2.765079499999999690e+00 7.899739999999999895e+01 1.610119999999999891e+03
2.200000000000000219e-02 7.016489999999999672e-01 -2.503759000000000068e+00 7.798834999999999695e+01 1.609805000000000064e+03
2.299999999999999961e-02 7.014000000000000234e-01 -2.211403000000000230e+00 7.692000000000000171e+01 1.609474999999999909e+03
2.400000000000000050e-02 7.011264999999999858e-01 -1.884679999999999911e+00 7.579175000000000750e+01 1.609125000000000000e+03
2.500000000000000139e-02 7.008410000000000473e-01 -1.510419999999999874e+00 7.462330000000000041e+01 1.608759999999999991e+03
2.600000000000000228e-02 7.005555000000001087e-01 -1.074150000000000160e+00 7.344424999999999670e+01 1.608394999999999982e+03
2.700000000000000316e-02 7.002789999999999848e-01 -5.685599999999999543e-01 7.228209999999999980e+01 1.608035000000000082e+03
2.800000000000000058e-02 7.000120000000000786e-01 7.850000000000356692e-04 7.115155000000000030e+01 1.607674999999999955e+03
2.900000000000000147e-02 6.997484999999999955e-01 6.137200000000002653e-01 7.004859999999999332e+01 1.607315000000000055e+03
3.000000000000000236e-02 6.994765000000000565e-01 1.237860000000000182e+00 6.895029999999999859e+01 1.606964999999999918e+03
3.099999999999999978e-02 6.991819999999999702e-01 1.833994999999999820e+00 6.781974999999999909e+01 1.606605000000000018e+03
3.200000000000000067e-02 6.988514999999999588e-01 2.363160000000000149e+00 6.661464999999999748e+01 1.606230000000000018e+03
3.300000000000000155e-02 6.984759999999999858e-01 2.793800000000000505e+00 6.529744999999999777e+01 1.605829999999999927e+03
3.400000000000000244e-02 6.980524999999999647e-01 3.107484999999999609e+00 6.384530000000000172e+01 1.605400000000000091e+03
3.500000000000000333e-02 6.975864999999999982e-01 3.301775000000000126e+00 6.225645000000000095e+01 1.604940000000000055e+03
3.600000000000000422e-02 6.970914999999999750e-01 3.389584999999999848e+00 6.055259999999999820e+01 1.604449999999999818e+03
3.700000000000000511e-02 6.965840000000000920e-01 3.395539999999999559e+00 5.877554999999999552e+01 1.603945000000000164e+03
3.799999999999999906e-02 6.960830000000000073e-01 3.350095000000000489e+00 5.698100000000000165e+01 1.603429999999999836e+03
3.899999999999999994e-02 6.956074999999999342e-01 3.284120000000000150e+00 5.522955000000000325e+01 1.602924999999999955e+03
4.000000000000000083e-02 6.951700000000000657e-01 3.224184999999999857e+00 5.357934999999999803e+01 1.602445000000000164e+03
4.100000000000000172e-02 6.947820000000000107e-01 3.190390000000000281e+00 5.208020000000000493e+01 1.602000000000000000e+03
4.200000000000000261e-02 6.944490000000000940e-01 3.195945000000000036e+00 5.077069999999999794e+01 1.601599999999999909e+03
4.300000000000000350e-02 6.941760000000000153e-01 3.248550000000000271e+00 4.967810000000000059e+01 1.601259999999999991e+03
4.400000000000000439e-02 6.939625000000000377e-01 3.352623000000000353e+00 4.881994999999999862e+01 1.600980000000000018e+03
4.499999999999999833e-02 6.938104999999999967e-01 3.511716000000000282e+00 4.820734999999999815e+01 1.600769999999999982e+03
4.599999999999999922e-02 6.937210000000000321e-01 3.730469999999999953e+00 4.784765000000000157e+01 1.600630000000000109e+03
4.700000000000000011e-02 6.936960000000000903e-01 4.015704999999999636e+00 4.774729999999999563e+01 1.600559999999999945e+03
4.800000000000000100e-02 6.937385000000000357e-01 4.376554999999999751e+00 4.791329999999999956e+01 1.600565000000000055e+03
4.900000000000000189e-02 6.938509999999999955e-01 4.823605000000000587e+00 4.835325000000000273e+01 1.600650000000000091e+03
5.000000000000000278e-02 6.940370000000000150e-01 5.367474999999999774e+00 4.907439999999999714e+01 1.600820000000000164e+03
5.100000000000000366e-02 6.942980000000000818e-01 6.017100000000000115e+00 5.008199999999999363e+01 1.601059999999999945e+03
5.200000000000000455e-02 6.946345000000000436e-01 6.778195000000000192e+00 5.137740000000000151e+01 1.601389999999999873e+03
5.300000000000000544e-02 6.950439999999999952e-01 7.652260000000000062e+00 5.295624999999999716e+01 1.601800000000000182e+03
5.399999999999999939e-02 6.955225000000000435e-01 8.635790000000000077e+00 5.480764999999999532e+01 1.602279999999999973e+03
5.500000000000000028e-02 6.960640000000000160e-01 9.720900000000000318e+00 5.691360000000000241e+01 1.602845000000000027e+03
5.600000000000000117e-02 6.966605000000000159e-01 1.089549500000000037e+01 5.924979999999999336e+01 1.603474999999999909e+03
5.700000000000000205e-02 6.973034999999999650e-01 1.214468000000000103e+01 6.178650000000000375e+01 1.604164999999999964e+03
5.800000000000000294e-02 6.979835000000000900e-01 1.345187999999999917e+01 6.449080000000000723e+01 1.604909999999999854e+03
5.900000000000000383e-02 6.986915000000000209e-01 1.479996500000000026e+01 6.732820000000000960e+01 1.605700000000000045e+03
6.000000000000000472e-02 6.994199999999999307e-01 1.617257499999999837e+01 7.026474999999999227e+01 1.606519999999999982e+03
6.099999999999999867e-02 7.001600000000000046e-01 1.755483999999999867e+01 7.326869999999999550e+01 1.607369999999999891e+03
6.199999999999999956e-02 7.009064999999999879e-01 1.893380000000000152e+01 7.631189999999999429e+01 1.608244999999999891e+03
6.300000000000000044e-02 7.016549999999999176e-01 2.029885000000000161e+01 7.937049999999999272e+01 1.609125000000000000e+03
6.400000000000000133e-02 7.024010000000000531e-01 2.164134999999999920e+01 8.242534999999999457e+01 1.610009999999999991e+03
6.500000000000000222e-02 7.031429999999999625e-01 2.295454999999999757e+01 8.546174999999999500e+01 1.610900000000000091e+03
6.600000000000000311e-02 7.038780000000000037e-01 2.423344999999999771e+01 8.846915000000001328e+01 1.611784999999999854e+03
6.700000000000000400e-02 7.046054999999999957e-01 2.547379999999999711e+01 9.144010000000000105e+01 1.612659999999999854e+03
6.800000000000000488e-02 7.053244999999999099e-01 2.667245000000000132e+01 9.437054999999999438e+01 1.613534999999999854e+03
6.900000000000000577e-02 7.060355000000000381e-01 2.782630000000000337e+01 9.725659999999999172e+01 1.614394999999999982e+03
7.000000000000000666e-02 7.067364999999999897e-01 2.893260000000000076e+01 1.000962000000000103e+02 1.615250000000000000e+03
7.100000000000000755e-02 7.074264999999999581e-01 2.998829999999999885e+01 1.028876500000000078e+02 1.616090000000000146e+03
7.200000000000000844e-02 7.081064999999999721e-01 3.099025000000000318e+01 1.056277499999999918e+02 1.616914999999999964e+03
7.300000000000000933e-02 7.087734999999999452e-01 3.193489999999999895e+01 1.083131500000000074e+02 1.617730000000000018e+03
7.399999999999999634e-02 7.094264999999999599e-01 3.281850000000000023e+01 1.109394999999999953e+02 1.618525000000000091e+03
7.499999999999999722e-02 7.100634999999999586e-01 3.363729999999999620e+01 1.135005000000000024e+02 1.619305000000000064e+03
7.599999999999999811e-02 7.106824999999999948e-01 3.438745000000000118e+01 1.159894999999999925e+02 1.620070000000000164e+03
7.699999999999999900e-02 7.112815000000000110e-01 3.506555000000000177e+01 1.183990000000000009e+02 1.620809999999999945e+03
7.799999999999999989e-02 7.118590000000000195e-01 3.566870000000000118e+01 1.207224999999999966e+02 1.621529999999999973e+03
7.900000000000000078e-02 7.124125000000000041e-01 3.619454999999999956e+01 1.229514999999999958e+02 1.622224999999999909e+03
8.000000000000000167e-02 7.129410000000000469e-01 3.664175000000000182e+01 1.250805000000000007e+02 1.622889999999999873e+03
8.100000000000000255e-02 7.134439999999999671e-01 3.700979999999999848e+01 1.271030000000000086e+02 1.623519999999999982e+03
8.200000000000000344e-02 7.139195000000000402e-01 3.729895000000000493e+01 1.290165000000000077e+02 1.624130000000000109e+03
8.300000000000000433e-02 7.143675000000000441e-01 3.751035000000000252e+01 1.308160000000000025e+02 1.624700000000000045e+03
8.400000000000000522e-02 7.147879999999999789e-01 3.764580000000000126e+01 1.325004999999999882e+02 1.625240000000000009e+03
8.500000000000000611e-02 7.151804999999999968e-01 3.770725000000000193e+01 1.340695000000000050e+02 1.625744999999999891e+03
8.600000000000000699e-02 7.155450000000000976e-01 3.769740000000000180e+01 1.355215000000000032e+02 1.626215000000000146e+03
8.700000000000000788e-02 7.158819999999999073e-01 3.761870000000000402e+01 1.368584999999999923e+02 1.626650000000000091e+03
8.800000000000000877e-02 7.161915000000000919e-01 3.747414999999999452e+01 1.380800000000000125e+02 1.627049999999999955e+03
8.899999999999999578e-02 7.164734999999999854e-01 3.726659999999999684e+01 1.391885000000000048e+02 1.627424999999999955e+03
8.999999999999999667e-02 7.167280000000000317e-01 3.699925000000000352e+01 1.401854999999999905e+02 1.627755000000000109e+03
9.099999999999999756e-02 7.169559999999999267e-01 3.667565000000000452e+01 1.410730000000000075e+02 1.628059999999999945e+03
9.199999999999999845e-02 7.171589999999999909e-01 3.629964999999999975e+01 1.418550000000000182e+02 1.628329999999999927e+03
9.299999999999999933e-02 7.173365000000000435e-01 3.587555000000000405e+01 1.425344999999999800e+02 1.628569999999999936e+03
9.400000000000000022e-02 7.174910000000001009e-01 3.540829999999999700e+01 1.431175000000000068e+02 1.628775000000000091e+03
9.500000000000000111e-02 7.176230000000000109e-01 3.490330000000000155e+01 1.436094999999999970e+02 1.628950000000000045e+03
9.600000000000000200e-02 7.177359999999999296e-01 3.436615000000000464e+01 1.440175000000000125e+02 1.629105000000000018e+03
9.700000000000000289e-02 7.178299999999999681e-01 3.380294999999999561e+01 1.443485000000000014e+02 1.629230000000000018e+03
9.800000000000000377e-02 7.179089999999999083e-01 3.321975000000000477e+01 1.446125000000000114e+02 1.629335000000000036e+03
9.900000000000000466e-02 7.179735000000000422e-01 3.262254999999999683e+01 1.448165000000000191e+02 1.629424999999999955e+03
1.000000000000000056e-01 7.180265000000000120e-01 3.201689999999999969e+01 1.449705000000000155e+02 1.629490000000000009e+03
1.010000000000000064e-01 7.180690000000000683e-01 3.140780000000000172e+01 1.450805000000000007e+02 1.629539999999999964e+03
1.020000000000000073e-01 7.181039999999999646e-01 3.079960000000000164e+01 1.451555000000000177e+02 1.629579999999999927e+03
1.030000000000000082e-01 7.181309999999999638e-01 3.019575000000000031e+01 1.452005000000000052e+02 1.629605000000000018e+03
1.040000000000000091e-01 7.181520000000000126e-01 2.959880000000000067e+01 1.452210000000000036e+02 1.629625000000000000e+03
1.050000000000000100e-01 7.181675000000000697e-01 2.901060000000000372e+01 1.452205000000000155e+02 1.629634999999999991e+03
1.059999999999999970e-01 7.181775000000000242e-01 2.843200000000000216e+01 1.452015000000000100e+02 1.629640000000000100e+03
1.069999999999999979e-01 7.181815000000000282e-01 2.786310000000000286e+01 1.451645000000000039e+02 1.629630000000000109e+03
1.079999999999999988e-01 7.181800000000000406e-01 2.730344999999999800e+01 1.451100000000000136e+02 1.629619999999999891e+03
1.089999999999999997e-01 7.181724999999999914e-01 2.675200000000000244e+01 1.450364999999999895e+02 1.629605000000000018e+03
1.100000000000000006e-01 7.181589999999999918e-01 2.620739999999999981e+01 1.449435000000000002e+02 1.629575000000000045e+03
1.110000000000000014e-01 7.181379999999999431e-01 2.566789999999999949e+01 1.448274999999999864e+02 1.629549999999999955e+03
1.120000000000000023e-01 7.181094999999999562e-01 2.513175000000000026e+01 1.446879999999999882e+02 1.629509999999999991e+03
1.130000000000000032e-01 7.180729999999999613e-01 2.459694999999999965e+01 1.445219999999999914e+02 1.629465000000000146e+03
1.140000000000000041e-01 7.180269999999999708e-01 2.406184999999999974e+01 1.443269999999999982e+02 1.629404999999999973e+03
1.150000000000000050e-01 7.179735000000000422e-01 2.352455000000000140e+01 1.441020000000000039e+02 1.629340000000000146e+03
1.160000000000000059e-01 7.179105000000000070e-01 2.298369999999999891e+01 1.438455000000000155e+02 1.629269999999999982e+03
1.170000000000000068e-01 7.178385000000000460e-01 2.243805000000000049e+01 1.435579999999999927e+02 1.629184999999999945e+03
1.180000000000000077e-01 7.177580000000000071e-01 2.188680000000000092e+01 1.432379999999999995e+02 1.629099999999999909e+03
1.190000000000000085e-01 7.176694999999999602e-01 2.132939999999999969e+01 1.428880000000000052e+02 1.629000000000000000e+03
1.200000000000000094e-01 7.175730000000000164e-01 2.076610000000000156e+01 1.425090000000000146e+02 1.628889999999999873e+03
1.209999999999999964e-01 7.174700000000000522e-01 2.019719999999999871e+01 1.421034999999999968e+02 1.628775000000000091e+03
1.219999999999999973e-01 7.173614999999999853e-01 1.962375000000000114e+01 1.416765000000000043e+02 1.628644999999999982e+03
1.229999999999999982e-01 7.172479999999999967e-01 1.904729999999999990e+01 1.412309999999999945e+02 1.628514999999999873e+03
1.239999999999999991e-01 7.171319999999999917e-01 1.846969999999999956e+01 1.407719999999999914e+02 1.628384999999999991e+03
1.250000000000000000e-01 7.170144999999999991e-01 1.789329999999999998e+01 1.403059999999999832e+02 1.628250000000000000e+03
1.260000000000000009e-01 7.168970000000000065e-01 1.732069999999999865e+01 1.398375000000000057e+02 1.628115000000000009e+03
1.270000000000000018e-01 7.167820000000000302e-01 1.675474999999999781e+01 1.393745000000000118e+02 1.627974999999999909e+03
1.280000000000000027e-01 7.166694999999999593e-01 1.619839999999999947e+01 1.389230000000000018e+02 1.627840000000000146e+03
1.290000000000000036e-01 7.165635000000000199e-01 1.565470000000000184e+01 1.384884999999999877e+02 1.627710000000000036e+03
1.300000000000000044e-01 7.164630000000000720e-01 1.512650000000000006e+01 1.380780000000000030e+02 1.627585000000000036e+03
1.310000000000000053e-01 7.163709999999999800e-01 1.461655000000000015e+01 1.376959999999999980e+02 1.627470000000000027e+03
1.320000000000000062e-01 7.162880000000000358e-01 1.412730000000000175e+01 1.373480000000000132e+02 1.627360000000000127e+03
1.330000000000000071e-01 7.162150000000000460e-01 1.366070000000000206e+01 1.370380000000000109e+02 1.627264999999999873e+03
1.340000000000000080e-01 7.161530000000000395e-01 1.321844999999999892e+01 1.367680000000000007e+02 1.627175000000000182e+03
1.350000000000000089e-01 7.161010000000000986e-01 1.280160000000000053e+01 1.365409999999999968e+02 1.627099999999999909e+03
1.360000000000000098e-01 7.160604999999999887e-01 1.241070500000000010e+01 1.363569999999999993e+02 1.627035000000000082e+03
1.370000000000000107e-01 7.160305000000000142e-01 1.204588999999999999e+01 1.362160000000000082e+02 1.626985000000000127e+03
1.380000000000000115e-01 7.160104999999999942e-01 1.170682000000000045e+01 1.361159999999999854e+02 1.626945000000000164e+03
1.390000000000000124e-01 7.160005000000000397e-01 1.139259500000000003e+01 1.360559999999999832e+02 1.626914999999999964e+03
1.400000000000000133e-01 7.159984999999999822e-01 1.110206499999999963e+01 1.360320000000000107e+02 1.626900000000000091e+03
1.410000000000000142e-01 7.160044999999999327e-01 1.083379500000000029e+01 1.360409999999999968e+02 1.626894999999999982e+03
1.420000000000000151e-01 7.160169999999999035e-01 1.058609000000000044e+01 1.360780000000000030e+02 1.626894999999999982e+03
1.430000000000000160e-01 7.160349999999999770e-01 1.035727499999999957e+01 1.361394999999999982e+02 1.626904999999999973e+03
1.440000000000000169e-01 7.160575000000000134e-01 1.014542499999999947e+01 1.362214999999999918e+02 1.626924999999999955e+03
1.450000000000000178e-01 7.160834999999999839e-01 9.948800000000000310e+00 1.363190000000000168e+02 1.626940000000000055e+03
1.459999999999999909e-01 7.161124999999999297e-01 9.765629999999999811e+00 1.364284999999999854e+02 1.626970000000000027e+03
1.469999999999999918e-01 7.161425000000000152e-01 9.594319999999999737e+00 1.365459999999999923e+02 1.627000000000000000e+03
1.479999999999999927e-01 7.161739999999999773e-01 9.433405000000000484e+00 1.366684999999999945e+02 1.627029999999999973e+03
1.489999999999999936e-01 7.162055000000000504e-01 9.281390000000000029e+00 1.367934999999999945e+02 1.627065000000000055e+03
1.499999999999999944e-01 7.162370000000000125e-01 9.137115000000001430e+00 1.369180000000000064e+02 1.627095000000000027e+03
1.509999999999999953e-01 7.162679999999999048e-01 8.999490000000001544e+00 1.370400000000000205e+02 1.627130000000000109e+03
1.519999999999999962e-01 7.162975000000000314e-01 8.867470000000000852e+00 1.371585000000000036e+02 1.627164999999999964e+03
1.529999999999999971e-01 7.163265000000000882e-01 8.740199999999999747e+00 1.372715000000000032e+02 1.627194999999999936e+03
1.539999999999999980e-01 7.163540000000000463e-01 8.616910000000000736e+00 1.373785000000000025e+02 1.627230000000000018e+03
1.549999999999999989e-01 7.163794999999999469e-01 8.496954999999999814e+00 1.374789999999999850e+02 1.627255000000000109e+03
1.559999999999999998e-01 7.164034999999999709e-01 8.379744999999999777e+00 1.375720000000000027e+02 1.627285000000000082e+03
1.570000000000000007e-01 7.164254999999999374e-01 8.264825000000000088e+00 1.376569999999999823e+02 1.627309999999999945e+03
1.580000000000000016e-01 7.164455000000000684e-01 8.151785000000000281e+00 1.377334999999999923e+02 1.627335000000000036e+03
1.590000000000000024e-01 7.164635000000000309e-01 8.040329999999999089e+00 1.378029999999999973e+02 1.627355000000000018e+03
