# t [s], A [cm^2], U [cm/s], P [cPa], c [cm/s]
1.000000000000000021e-03 6.597560000000000091e-01 7.329999999999996241e-03 1.055384999999999991e+02 1.793670000000000073e+03
2.000000000000000042e-03 6.597480000000000011e-01 5.816600000000000763e-03 1.055045000000000073e+02 1.793664999999999964e+03
3.000000000000000062e-03 6.598235000000000072e-01 1.566005500000000050e-01 1.056864999999999952e+02 1.793704999999999927e+03
4.000000000000000083e-03 6.598485000000000600e-01 2.345809999999999840e-01 1.057725000000000080e+02 1.793720000000000027e+03
5.000000000000000104e-03 6.597690000000000499e-01 1.212034999999999918e-01 1.055160000000000053e+02 1.793675000000000182e+03
6.000000000000000125e-03 6.596874999999999822e-01 -8.428999999999964299e-03 1.051184999999999974e+02 1.793585000000000036e+03
7.000000000000000146e-03 6.595854999999999357e-01 -1.936350000000000016e-01 1.045745000000000005e+02 1.793465000000000146e+03
8.000000000000000167e-03 6.593995000000000273e-01 -5.663750000000000728e-01 1.036839999999999975e+02 1.793275000000000091e+03
9.000000000000001055e-03 6.591350000000000264e-01 -1.112715000000000121e+00 1.024000000000000057e+02 1.793000000000000000e+03
1.000000000000000194e-02 6.587669999999999915e-01 -1.860640000000000072e+00 1.006252000000000066e+02 1.792615000000000009e+03
1.099999999999999936e-02 6.582730000000001080e-01 -2.829460000000000086e+00 9.825714999999999577e+01 1.792095000000000027e+03
1.200000000000000025e-02 6.577129999999999921e-01 -3.866604999999999848e+00 9.544010000000000105e+01 1.791454999999999927e+03
1.300000000000000114e-02 6.572085000000000843e-01 -4.687366000000000810e+00 9.258234999999999104e+01 1.790789999999999964e+03
1.400000000000000203e-02 6.568475000000000286e-01 -5.061182500000000140e+00 9.010415000000000418e+01 1.790164999999999964e+03
1.499999999999999944e-02 6.566380000000000550e-01 -4.932720000000000660e+00 8.820789999999999509e+01 1.789644999999999982e+03
1.600000000000000033e-02 6.565130000000000132e-01 -4.414844999999999686e+00 8.681749999999999545e+01 1.789230000000000018e+03
1.700000000000000122e-02 6.563820000000000210e-01 -3.706475000000000186e+00 8.566075000000000728e+01 1.788859999999999900e+03
1.800000000000000211e-02 6.561699999999999200e-01 -2.993678500000000131e+00 8.441870000000000118e+01 1.788485000000000127e+03
1.900000000000000300e-02 6.558494999999999742e-01 -2.373565499999999773e+00 8.287160000000000082e+01 1.788049999999999955e+03
2.000000000000000042e-02 6.554439999999999156e-01 -1.830709999999999837e+00 8.098079999999998790e+01 1.787549999999999955e+03
2.100000000000000130e-02 6.550089999999999524e-01 -1.274259999999999948e+00 7.887000000000000455e+01 1.787000000000000000e+03
2.200000000000000219e-02 6.545969999999999844e-01 -6.091600000000001458e-01 7.672890000000001010e+01 1.786434999999999945e+03
2.299999999999999961e-02 6.542315000000000769e-01 2.010299999999998199e-01 7.470104999999999507e+01 1.785880000000000109e+03
2.400000000000000050e-02 6.538964999999999916e-01 1.106109999999999705e+00 7.280934999999999491e+01 1.785355000000000018e+03
2.500000000000000139e-02 6.535465000000000302e-01 1.978474999999999762e+00 7.093815000000000737e+01 1.784835000000000036e+03
2.600000000000000228e-02 6.531190000000000051e-01 2.649364999999999970e+00 6.886780000000000257e+01 1.784275000000000091e+03
2.700000000000000316e-02 6.525600000000000289e-01 2.959179999999999922e+00 6.634744999999999493e+01 1.783630000000000109e+03
2.800000000000000058e-02 6.518395000000000161e-01 2.807764999999999844e+00 6.318295000000000528e+01 1.782855000000000018e+03
2.900000000000000147e-02 6.509674999999999212e-01 2.187789999999999679e+00 5.931244999999999834e+01 1.781930000000000064e+03
3.000000000000000236e-02 6.499904999999999156e-01 1.187899999999999956e+00 5.484000000000000341e+01 1.780869999999999891e+03
3.099999999999999978e-02 6.489800000000000013e-01 -3.555000000000063665e-02 5.001420000000000243e+01 1.779714999999999918e+03
3.200000000000000067e-02 6.480125000000001023e-01 -1.302030000000000243e+00 4.516720000000000113e+01 1.778539999999999964e+03
3.300000000000000155e-02 6.471540000000000070e-01 -2.448144999999999794e+00 4.064215000000000089e+01 1.777414999999999964e+03
3.400000000000000244e-02 6.464495000000000102e-01 -3.353099999999999525e+00 3.673219999999999885e+01 1.776409999999999854e+03
3.500000000000000333e-02 6.459239999999999426e-01 -3.947864999999999291e+00 3.364365000000000094e+01 1.775575000000000045e+03
3.600000000000000422e-02 6.455809999999999604e-01 -4.209807500000000147e+00 3.148449999999999704e+01 1.774950000000000045e+03
3.700000000000000511e-02 6.454109999999999570e-01 -4.149244999999999628e+00 3.027390000000000114e+01 1.774539999999999964e+03
3.799999999999999906e-02 6.453990000000000560e-01 -3.792354999999999698e+00 2.996640000000000015e+01 1.774355000000000018e+03
3.899999999999999994e-02 6.455275000000000318e-01 -3.166325000000000056e+00 3.048199999999999932e+01 1.774375000000000000e+03
4.000000000000000083e-02 6.457824999999999260e-01 -2.290200000000000014e+00 3.173254999999999981e+01 1.774585000000000036e+03
4.100000000000000172e-02 6.461535000000000473e-01 -1.173534999999999773e+00 3.363765000000000072e+01 1.774970000000000027e+03
4.200000000000000261e-02 6.466320000000000956e-01 1.782699999999999285e-01 3.612839999999999918e+01 1.775505000000000109e+03
4.300000000000000350e-02 6.472089999999999232e-01 1.755424999999999791e+00 3.914050000000000296e+01 1.776180000000000064e+03
4.400000000000000439e-02 6.478709999999999747e-01 3.536115000000000119e+00 4.260419999999999874e+01 1.776974999999999909e+03
4.499999999999999833e-02 6.486000000000000654e-01 5.482629999999999448e+00 4.643529999999999802e+01 1.777869999999999891e+03
4.599999999999999922e-02 6.493740000000000068e-01 7.542370000000000019e+00 5.053244999999999720e+01 1.778839999999999918e+03
4.700000000000000011e-02 6.501675000000000093e-01 9.652689999999999770e+00 5.478040000000000020e+01 1.779869999999999891e+03
4.800000000000000100e-02 6.509564999999999380e-01 1.174811000000000050e+01 5.905849999999999511e+01 1.780920000000000073e+03
4.900000000000000189e-02 6.517195000000000071e-01 1.376778999999999975e+01 6.325229999999999819e+01 1.781970000000000027e+03
5.000000000000000278e-02 6.524395000000000611e-01 1.566166000000000125e+01 6.726429999999999154e+01 1.782985000000000127e+03
5.100000000000000366e-02 6.531069999999999931e-01 1.739430000000000121e+01 7.102270000000000039e+01 1.783954999999999927e+03
5.200000000000000455e-02 6.537180000000000213e-01 1.894590000000000174e+01 7.448560000000000514e+01 1.784865000000000009e+03
5.300000000000000544e-02 6.542729999999999935e-01 2.031110000000000326e+01 7.764135000000000275e+01 1.785710000000000036e+03
5.399999999999999939e-02 6.547795000000000698e-01 2.149670000000000059e+01 8.050515000000000043e+01 1.786485000000000127e+03
5.500000000000000028e-02 6.552450000000000774e-01 2.251825000000000188e+01 8.311359999999999104e+01 1.787204999999999927e+03
5.600000000000000117e-02 6.556815000000000282e-01 2.339775000000000205e+01 8.551850000000000307e+01 1.787869999999999891e+03
5.700000000000000205e-02 6.560989999999999878e-01 2.416084999999999994e+01 8.778079999999999927e+01 1.788494999999999891e+03
5.800000000000000294e-02 6.565115000000000256e-01 2.483505000000000251e+01 8.996504999999999086e+01 1.789099999999999909e+03
5.900000000000000383e-02 6.569285000000000263e-01 2.544805000000000206e+01 9.213464999999999350e+01 1.789690000000000055e+03
6.000000000000000472e-02 6.573594999999999855e-01 2.602599999999999980e+01 9.434669999999999845e+01 1.790289999999999964e+03
6.099999999999999867e-02 6.578129999999999811e-01 2.659094999999999942e+01 9.664764999999999873e+01 1.790900000000000091e+03
6.199999999999999956e-02 6.582930000000000170e-01 2.715930000000000177e+01 9.906905000000000427e+01 1.791535000000000082e+03
6.300000000000000044e-02 6.588005000000000111e-01 2.774020000000000152e+01 1.016251500000000050e+02 1.792204999999999927e+03
6.400000000000000133e-02 6.593320000000000292e-01 2.833424999999999727e+01 1.043094999999999999e+02 1.792900000000000091e+03
6.500000000000000222e-02 6.598805000000000920e-01 2.893415000000000248e+01 1.070960000000000036e+02 1.793619999999999891e+03
6.600000000000000311e-02 6.604369999999999408e-01 2.952534999999999954e+01 1.099435000000000002e+02 1.794355000000000018e+03
6.700000000000000400e-02 6.609894999999998966e-01 3.008809999999999718e+01 1.127950000000000017e+02 1.795095000000000027e+03
6.800000000000000488e-02 6.615254999999999885e-01 3.059969999999999857e+01 1.155865000000000009e+02 1.795825000000000045e+03
6.900000000000000577e-02 6.620325000000000237e-01 3.103685000000000116e+01 1.182535000000000025e+02 1.796529999999999973e+03
7.000000000000000666e-02 6.624995000000000189e-01 3.137785000000000224e+01 1.207325000000000017e+02 1.797195000000000164e+03
7.100000000000000755e-02 6.629164999999999086e-01 3.160435000000000016e+01 1.229689999999999941e+02 1.797799999999999955e+03
7.200000000000000844e-02 6.632774999999999643e-01 3.170244999999999891e+01 1.249199999999999875e+02 1.798340000000000146e+03
7.300000000000000933e-02 6.635775000000000423e-01 3.166365000000000052e+01 1.265554999999999950e+02 1.798805000000000064e+03
7.399999999999999634e-02 6.638155000000000028e-01 3.148505000000000109e+01 1.278609999999999900e+02 1.799190000000000055e+03
7.499999999999999722e-02 6.639915000000000678e-01 3.116935000000000144e+01 1.288360000000000127e+02 1.799494999999999891e+03
7.599999999999999811e-02 6.641105000000000480e-01 3.072480000000000189e+01 1.294939999999999998e+02 1.799719999999999800e+03
7.699999999999999900e-02 6.641775000000000873e-01 3.016410000000000124e+01 1.298605000000000018e+02 1.799869999999999891e+03
7.799999999999999989e-02 6.641989999999999839e-01 2.950419999999999732e+01 1.299710000000000036e+02 1.799944999999999936e+03
7.900000000000000078e-02 6.641844999999999555e-01 2.876524999999999821e+01 1.298689999999999998e+02 1.799964999999999918e+03
8.000000000000000167e-02 6.641420000000000101e-01 2.796920000000000073e+01 1.296024999999999920e+02 1.799934999999999945e+03
8.100000000000000255e-02 6.640814999999999912e-01 2.713920000000000243e+01 1.292205000000000155e+02 1.799875000000000000e+03
8.200000000000000344e-02 6.640120000000000466e-01 2.629804999999999993e+01 1.287729999999999961e+02 1.799785000000000082e+03
8.300000000000000433e-02 6.639410000000000034e-01 2.546710000000000207e+01 1.283059999999999832e+02 1.799684999999999945e+03
8.400000000000000522e-02 6.638759999999999106e-01 2.466505000000000081e+01 1.278594999999999970e+02 1.799585000000000036e+03
8.500000000000000611e-02 6.638224999999999820e-01 2.390719999999999956e+01 1.274675000000000011e+02 1.799490000000000009e+03
8.600000000000000699e-02 6.637839999999999296e-01 2.320459999999999923e+01 1.271525000000000034e+02 1.799410000000000082e+03
8.700000000000000788e-02 6.637625000000000330e-01 2.256365000000000265e+01 1.269284999999999997e+02 1.799345000000000027e+03
8.800000000000000877e-02 6.637569999999999304e-01 2.198615000000000208e+01 1.267994999999999948e+02 1.799304999999999836e+03
8.899999999999999578e-02 6.637665000000000370e-01 2.146945000000000192e+01 1.267600000000000051e+02 1.799284999999999854e+03
8.999999999999999667e-02 6.637869999999999049e-01 2.100665000000000049e+01 1.267944999999999993e+02 1.799280000000000200e+03
9.099999999999999756e-02 6.638144999999999740e-01 2.058769999999999811e+01 1.268820000000000050e+02 1.799289999999999964e+03
9.199999999999999845e-02 6.638439999999999896e-01 2.019975000000000165e+01 1.269960000000000093e+02 1.799305000000000064e+03
9.299999999999999933e-02 6.638684999999999725e-01 1.982840000000000202e+01 1.271045000000000016e+02 1.799324999999999818e+03
9.400000000000000022e-02 6.638825000000000420e-01 1.945810000000000173e+01 1.271754999999999995e+02 1.799344999999999800e+03
9.500000000000000111e-02 6.638794999999999558e-01 1.907370000000000232e+01 1.271769999999999925e+02 1.799339999999999918e+03
9.600000000000000200e-02 6.638554999999999318e-01 1.866100000000000136e+01 1.270799999999999983e+02 1.799315000000000055e+03
9.700000000000000289e-02 6.638060000000000072e-01 1.820805000000000007e+01 1.268590000000000089e+02 1.799269999999999982e+03
9.800000000000000377e-02 6.637280000000000957e-01 1.770564999999999856e+01 1.264960000000000093e+02 1.799184999999999945e+03
9.900000000000000466e-02 6.636189999999999589e-01 1.714795000000000158e+01 1.259790000000000134e+02 1.799070000000000164e+03
1.000000000000000056e-01 6.634815000000000573e-01 1.653350000000000009e+01 1.253050000000000068e+02 1.798904999999999973e+03
1.010000000000000064e-01 6.633149999999999880e-01 1.586475000000000080e+01 1.244809999999999945e+02 1.798715000000000146e+03
1.020000000000000073e-01 6.631249999999999645e-01 1.514850000000000030e+01 1.235210000000000008e+02 1.798485000000000127e+03
1.030000000000000082e-01 6.629154999999999909e-01 1.439511499999999877e+01 1.224484999999999957e+02 1.798230000000000018e+03
1.040000000000000091e-01 6.626935000000000464e-01 1.361845500000000087e+01 1.212925000000000040e+02 1.797945000000000164e+03
1.050000000000000100e-01 6.624650000000000816e-01 1.283443499999999915e+01 1.200885000000000105e+02 1.797650000000000091e+03
1.059999999999999970e-01 6.622375000000000345e-01 1.206059499999999929e+01 1.188744999999999976e+02 1.797345000000000027e+03
1.069999999999999979e-01 6.620189999999999131e-01 1.131475000000000009e+01 1.176889999999999930e+02 1.797045000000000073e+03
1.079999999999999988e-01 6.618155000000000010e-01 1.061409000000000091e+01 1.165690000000000026e+02 1.796755000000000109e+03
1.089999999999999997e-01 6.616334999999999855e-01 9.974159999999999471e+00 1.155484999999999900e+02 1.796485000000000127e+03
1.100000000000000006e-01 6.614780000000000104e-01 9.408004999999999285e+00 1.146564999999999941e+02 1.796244999999999891e+03
1.110000000000000014e-01 6.613515000000000921e-01 8.925394999999999968e+00 1.139145000000000039e+02 1.796039999999999964e+03
1.120000000000000023e-01 6.612559999999999549e-01 8.532724999999999227e+00 1.133354999999999961e+02 1.795869999999999891e+03
1.130000000000000032e-01 6.611925000000000718e-01 8.232374999999999332e+00 1.129254999999999995e+02 1.795744999999999891e+03
1.140000000000000041e-01 6.611595000000000111e-01 8.023149999999999338e+00 1.126820000000000022e+02 1.795650000000000091e+03
1.150000000000000050e-01 6.611540000000000195e-01 7.900269999999999904e+00 1.125955000000000013e+02 1.795605000000000018e+03
1.160000000000000059e-01 6.611735000000000806e-01 7.856044999999999945e+00 1.126490000000000009e+02 1.795590000000000146e+03
1.170000000000000068e-01 6.612124999999999808e-01 7.880360000000000475e+00 1.128209999999999980e+02 1.795609999999999900e+03
1.180000000000000077e-01 6.612664999999999793e-01 7.961405000000000065e+00 1.130875000000000057e+02 1.795654999999999973e+03
1.190000000000000085e-01 6.613314999999999610e-01 8.086325000000000429e+00 1.134215000000000089e+02 1.795720000000000027e+03
1.200000000000000094e-01 6.614014999999999755e-01 8.241944999999999411e+00 1.137969999999999970e+02 1.795795000000000073e+03
1.209999999999999964e-01 6.614720000000000599e-01 8.415364999999999540e+00 1.141875000000000000e+02 1.795884999999999991e+03
1.219999999999999973e-01 6.615394999999999470e-01 8.594500000000000028e+00 1.145715000000000003e+02 1.795974999999999909e+03
1.229999999999999982e-01 6.616005000000000358e-01 8.768509999999999138e+00 1.149284999999999997e+02 1.796059999999999945e+03
1.239999999999999991e-01 6.616519999999999069e-01 8.928164999999999907e+00 1.152419999999999902e+02 1.796134999999999991e+03
1.250000000000000000e-01 6.616925000000000168e-01 9.066034999999999400e+00 1.155014999999999930e+02 1.796200000000000045e+03
1.260000000000000009e-01 6.617215000000000735e-01 9.176660000000000039e+00 1.156995000000000005e+02 1.796255000000000109e+03
1.270000000000000018e-01 6.617385000000000073e-01 9.256595000000000795e+00 1.158315000000000055e+02 1.796295000000000073e+03
1.280000000000000027e-01 6.617435000000000400e-01 9.304429999999999978e+00 1.159000000000000057e+02 1.796319999999999936e+03
1.290000000000000036e-01 6.617380000000000484e-01 9.320460000000000633e+00 1.159080000000000013e+02 1.796329999999999927e+03
1.300000000000000044e-01 6.617239999999999789e-01 9.306905000000000427e+00 1.158640000000000043e+02 1.796325000000000045e+03
1.310000000000000053e-01 6.617025000000000823e-01 9.267265000000000086e+00 1.157775000000000034e+02 1.796315000000000055e+03
1.320000000000000062e-01 6.616770000000000707e-01 9.206379999999999342e+00 1.156599999999999966e+02 1.796289999999999964e+03
1.330000000000000071e-01 6.616495000000000015e-01 9.129789999999999850e+00 1.155244999999999891e+02 1.796264999999999873e+03
1.340000000000000080e-01 6.616219999999999324e-01 9.043655000000001110e+00 1.153840000000000003e+02 1.796235000000000127e+03
1.350000000000000089e-01 6.615975000000000605e-01 8.954174999999999329e+00 1.152510000000000048e+02 1.796199999999999818e+03
1.360000000000000098e-01 6.615779999999999994e-01 8.867235000000000866e+00 1.151374999999999886e+02 1.796174999999999955e+03
1.370000000000000107e-01 6.615644999999999998e-01 8.788135000000000474e+00 1.150534999999999997e+02 1.796154999999999973e+03
1.380000000000000115e-01 6.615590000000000082e-01 8.721315000000000595e+00 1.150060000000000002e+02 1.796144999999999982e+03
1.390000000000000124e-01 6.615625000000000533e-01 8.670024999999998983e+00 1.150004999999999882e+02 1.796139999999999873e+03
1.400000000000000133e-01 6.615739999999999954e-01 8.636240000000000805e+00 1.150390000000000015e+02 1.796144999999999982e+03
1.410000000000000142e-01 6.615929999999999866e-01 8.620635000000000048e+00 1.151204999999999927e+02 1.796164999999999964e+03
1.420000000000000151e-01 6.616199999999999859e-01 8.622690000000000410e+00 1.152419999999999902e+02 1.796190000000000055e+03
1.430000000000000160e-01 6.616530000000000467e-01 8.640760000000000218e+00 1.153990000000000009e+02 1.796224999999999909e+03
1.440000000000000169e-01 6.616900000000000004e-01 8.672335000000000349e+00 1.155824999999999960e+02 1.796264999999999873e+03
1.450000000000000178e-01 6.617304999999999993e-01 8.714294999999999902e+00 1.157849999999999966e+02 1.796315000000000055e+03
1.459999999999999909e-01 6.617714999999999570e-01 8.763170000000000570e+00 1.159980000000000047e+02 1.796365000000000009e+03
1.469999999999999918e-01 6.618124999999999147e-01 8.815435000000000798e+00 1.162125000000000057e+02 1.796414999999999964e+03
1.479999999999999927e-01 6.618509999999999671e-01 8.867715000000000458e+00 1.164200000000000017e+02 1.796470000000000027e+03
1.489999999999999936e-01 6.618870000000000031e-01 8.917025000000000645e+00 1.166144999999999925e+02 1.796519999999999982e+03
1.499999999999999944e-01 6.619185000000000763e-01 8.960879999999999512e+00 1.167905000000000086e+02 1.796565000000000055e+03
1.509999999999999953e-01 6.619460000000000344e-01 8.997424999999999784e+00 1.169439999999999884e+02 1.796605000000000018e+03
1.519999999999999962e-01 6.619690000000000296e-01 9.025550000000000850e+00 1.170749999999999886e+02 1.796639999999999873e+03
1.529999999999999971e-01 6.619874999999999510e-01 9.044639999999999347e+00 1.171814999999999998e+02 1.796670000000000073e+03
1.539999999999999980e-01 6.620015000000000205e-01 9.055019999999998959e+00 1.172669999999999959e+02 1.796694999999999936e+03
1.549999999999999989e-01 6.620135000000000325e-01 9.057394999999999641e+00 1.173335000000000008e+02 1.796714999999999918e+03
1.559999999999999998e-01 6.620224999999999582e-01 9.053245000000000431e+00 1.173859999999999957e+02 1.796730000000000018e+03
1.570000000000000007e-01 6.620299999999998963e-01 9.044435000000000002e+00 1.174300000000000068e+02 1.796744999999999891e+03
1.580000000000000016e-01 6.620375000000000565e-01 9.033265000000000100e+00 1.174714999999999918e+02 1.796759999999999991e+03
1.590000000000000024e-01 6.620464999999999822e-01 9.022349999999999426e+00 1.175175000000000125e+02 1.796775000000000091e+03
