# t [s], A [cm^2], U [cm/s], P [cPa], c [cm/s]
1.000000000000000021e-03 6.641635000000000177e-01 6.953000000000000846e-03 1.065149999999999864e+02 1.736360000000000127e+03
2.000000000000000042e-03 6.641544999999999810e-01 3.914550000000000148e-03 1.064819999999999993e+02 1.736349999999999909e+03
3.000000000000000062e-03 6.642299999999999871e-01 1.470520000000000160e-01 1.066484999999999985e+02 1.736384999999999991e+03
4.000000000000000083e-03 6.642615000000000602e-01 2.308810000000000029e-01 1.067439999999999998e+02 1.736409999999999854e+03
5.000000000000000104e-03 6.641869999999999719e-01 1.315069999999999850e-01 1.065264999999999986e+02 1.736365000000000009e+03
6.000000000000000125e-03 6.641025000000000400e-01 9.055000000000035243e-04 1.061539999999999964e+02 1.736289999999999964e+03
7.000000000000000146e-03 6.640064999999999440e-01 -1.653550000000000297e-01 1.056624999999999943e+02 1.736184999999999945e+03
8.000000000000000167e-03 6.638295000000000723e-01 -5.043999999999999595e-01 1.048619999999999948e+02 1.736025000000000091e+03
9.000000000000001055e-03 6.635720000000000507e-01 -1.011744999999999894e+00 1.036970000000000027e+02 1.735784999999999854e+03
1.000000000000000194e-02 6.632214999999999083e-01 -1.697849999999999859e+00 1.020979499999999973e+02 1.735450000000000045e+03
1.099999999999999936e-02 6.627454999999999874e-01 -2.593494999999999884e+00 9.995824999999999250e+01 1.735000000000000000e+03
1.200000000000000025e-02 6.621814999999999785e-01 -3.599559999999999427e+00 9.734290000000000020e+01 1.734434999999999945e+03
1.300000000000000114e-02 6.616360000000000019e-01 -4.472562499999999552e+00 9.456819999999999027e+01 1.733815000000000055e+03
1.400000000000000203e-02 6.612100000000000755e-01 -4.971168500000000101e+00 9.203064999999999429e+01 1.733220000000000027e+03
1.499999999999999944e-02 6.609369999999999967e-01 -4.989264999999999617e+00 8.998884999999999934e+01 1.732694999999999936e+03
1.600000000000000033e-02 6.607745000000000424e-01 -4.582275000000000098e+00 8.846289999999999054e+01 1.732269999999999982e+03
1.700000000000000122e-02 6.606425000000000214e-01 -3.912895000000000234e+00 8.726720000000000255e+01 1.731904999999999973e+03
1.800000000000000211e-02 6.604594999999999771e-01 -3.167075000000000085e+00 8.612055000000000859e+01 1.731559999999999945e+03
1.900000000000000300e-02 6.601775000000000837e-01 -2.476420000000000066e+00 8.477660000000000196e+01 1.731180000000000064e+03
2.000000000000000042e-02 6.597984999999999545e-01 -1.874805000000000055e+00 8.312305000000000632e+01 1.730744999999999891e+03
2.100000000000000130e-02 6.593634999999999913e-01 -1.307645000000000168e+00 8.120640000000000214e+01 1.730259999999999991e+03
2.200000000000000219e-02 6.589270000000000405e-01 -6.848849999999999660e-01 7.917565000000000452e+01 1.729744999999999891e+03
2.299999999999999961e-02 6.585259999999999447e-01 5.581499999999994799e-02 7.718690000000000850e+01 1.729230000000000018e+03
2.400000000000000050e-02 6.581645000000000412e-01 9.077150000000000496e-01 7.531895000000000095e+01 1.728735000000000127e+03
2.500000000000000139e-02 6.578140000000000098e-01 1.786969999999999947e+00 7.353249999999999886e+01 1.728255000000000109e+03
2.600000000000000228e-02 6.574200000000000044e-01 2.553420000000000023e+00 7.167674999999999841e+01 1.727759999999999991e+03
2.700000000000000316e-02 6.569264999999999688e-01 3.049465000000000536e+00 6.953515000000000157e+01 1.727220000000000027e+03
2.800000000000000058e-02 6.562879999999999825e-01 3.145795000000000563e+00 6.689520000000000266e+01 1.726579999999999927e+03
2.900000000000000147e-02 6.554895000000000582e-01 2.781029999999999891e+00 6.362250000000000227e+01 1.725819999999999936e+03
3.000000000000000236e-02 6.545540000000000802e-01 1.982154999999999667e+00 5.971390000000000242e+01 1.724920000000000073e+03
3.099999999999999978e-02 6.535364999999999647e-01 8.565500000000003666e-01 5.531059999999999377e+01 1.723910000000000082e+03
3.200000000000000067e-02 6.525079999999999769e-01 -4.381000000000003780e-01 5.066750000000000398e+01 1.722839999999999918e+03
3.300000000000000155e-02 6.515410000000000368e-01 -1.733474999999999433e+00 4.609629999999999939e+01 1.721764999999999873e+03
3.400000000000000244e-02 6.506970000000000809e-01 -2.883045000000000080e+00 4.190415000000000134e+01 1.720755000000000109e+03
3.500000000000000333e-02 6.500155000000000793e-01 -3.781669999999999643e+00 3.834595000000000198e+01 1.719865000000000009e+03
3.600000000000000422e-02 6.495180000000000398e-01 -4.370565000000000033e+00 3.559675000000000011e+01 1.719139999999999873e+03
3.700000000000000511e-02 6.492069999999999785e-01 -4.631058499999999967e+00 3.374500000000000455e+01 1.718609999999999900e+03
3.799999999999999906e-02 6.490739999999999288e-01 -4.572255000000000180e+00 3.280284999999999940e+01 1.718285000000000082e+03
3.899999999999999994e-02 6.491040000000000143e-01 -4.216509999999999536e+00 3.272775000000000034e+01 1.718159999999999854e+03
4.000000000000000083e-02 6.492804999999999271e-01 -3.587060499999999763e+00 3.344744999999999635e+01 1.718230000000000018e+03
4.100000000000000172e-02 6.495904999999999596e-01 -2.700960000000000250e+00 3.488150000000000261e+01 1.718474999999999909e+03
4.200000000000000261e-02 6.500230000000000175e-01 -1.568480000000000096e+00 3.695445000000000135e+01 1.718884999999999991e+03
4.300000000000000350e-02 6.505680000000000351e-01 -1.978100000000000414e-01 3.959794999999999732e+01 1.719434999999999945e+03
4.400000000000000439e-02 6.512139999999999596e-01 1.397779999999999578e+00 4.274620000000000175e+01 1.720119999999999891e+03
4.499999999999999833e-02 6.519470000000000542e-01 3.193710000000000271e+00 4.632724999999999937e+01 1.720914999999999964e+03
4.599999999999999922e-02 6.527475000000000360e-01 5.151080000000000325e+00 5.025674999999999670e+01 1.721799999999999955e+03
4.700000000000000011e-02 6.535925000000000207e-01 7.217814999999999870e+00 5.443580000000000041e+01 1.722764999999999873e+03
4.800000000000000100e-02 6.544570000000000665e-01 9.332912099999999711e+00 5.875374999999999659e+01 1.723769999999999982e+03
4.900000000000000189e-02 6.553170000000000384e-01 1.143293000000000070e+01 6.309590000000000032e+01 1.724795000000000073e+03
5.000000000000000278e-02 6.561494999999999411e-01 1.345843500000000148e+01 6.735314999999999941e+01 1.725819999999999936e+03
5.100000000000000366e-02 6.569380000000000219e-01 1.535980999999999952e+01 7.143155000000000143e+01 1.726819999999999936e+03
5.200000000000000455e-02 6.576705000000000467e-01 1.710050000000000026e+01 7.525954999999999018e+01 1.727769999999999982e+03
5.300000000000000544e-02 6.583419999999999828e-01 1.865855000000000175e+01 7.879285000000000139e+01 1.728670000000000073e+03
5.399999999999999939e-02 6.589525000000000521e-01 2.002580000000000027e+01 8.201425000000000409e+01 1.729500000000000000e+03
5.500000000000000028e-02 6.595075000000000243e-01 2.120550000000000068e+01 8.493189999999999884e+01 1.730264999999999873e+03
5.600000000000000117e-02 6.600139999999999896e-01 2.221034999999999826e+01 8.757429999999999382e+01 1.730964999999999918e+03
5.700000000000000205e-02 6.604820000000000135e-01 2.305935000000000201e+01 8.998560000000000514e+01 1.731610000000000127e+03
5.800000000000000294e-02 6.609234999999999971e-01 2.377609999999999957e+01 9.221965000000000146e+01 1.732215000000000146e+03
5.900000000000000383e-02 6.613499999999999934e-01 2.438664999999999949e+01 9.433575000000000443e+01 1.732784999999999854e+03
6.000000000000000472e-02 6.617724999999999858e-01 2.491839999999999833e+01 9.639390000000000214e+01 1.733335000000000036e+03
6.099999999999999867e-02 6.622019999999999573e-01 2.539789999999999992e+01 9.845060000000000855e+01 1.733875000000000000e+03
6.199999999999999956e-02 6.626469999999999860e-01 2.584960000000000235e+01 1.005556500000000000e+02 1.734424999999999955e+03
6.300000000000000044e-02 6.631139999999999812e-01 2.629344999999999999e+01 1.027459999999999951e+02 1.734990000000000009e+03
6.400000000000000133e-02 6.636070000000000579e-01 2.674324999999999974e+01 1.050455000000000041e+02 1.735570000000000164e+03
6.500000000000000222e-02 6.641235000000000888e-01 2.720550000000000068e+01 1.074600000000000080e+02 1.736179999999999836e+03
6.600000000000000311e-02 6.646605000000000985e-01 2.767859999999999943e+01 1.099764999999999873e+02 1.736815000000000055e+03
6.700000000000000400e-02 6.652095000000000091e-01 2.815350000000000108e+01 1.125660000000000025e+02 1.737454999999999927e+03
6.800000000000000488e-02 6.657604999999999773e-01 2.861469999999999914e+01 1.151839999999999975e+02 1.738115000000000009e+03
6.900000000000000577e-02 6.663004999999999622e-01 2.904234999999999900e+01 1.177750000000000057e+02 1.738769999999999982e+03
7.000000000000000666e-02 6.668175000000000630e-01 2.941434999999999889e+01 1.202779999999999916e+02 1.739400000000000091e+03
7.100000000000000755e-02 6.672994999999999344e-01 2.970824999999999960e+01 1.226310000000000002e+02 1.740009999999999991e+03
7.200000000000000844e-02 6.677340000000000497e-01 2.990370000000000061e+01 1.247759999999999962e+02 1.740565000000000055e+03
7.300000000000000933e-02 6.681129999999999569e-01 2.998349999999999937e+01 1.266634999999999991e+02 1.741070000000000164e+03
7.399999999999999634e-02 6.684295000000000098e-01 2.993505000000000038e+01 1.282545000000000073e+02 1.741500000000000000e+03
7.499999999999999722e-02 6.686790000000000234e-01 2.975075000000000003e+01 1.295219999999999914e+02 1.741860000000000127e+03
7.599999999999999811e-02 6.688605000000000800e-01 2.942849999999999966e+01 1.304549999999999841e+02 1.742144999999999982e+03
7.699999999999999900e-02 6.689760000000000151e-01 2.897149999999999892e+01 1.310544999999999902e+02 1.742344999999999800e+03
7.799999999999999989e-02 6.690289999999999848e-01 2.838810000000000144e+01 1.313340000000000032e+02 1.742460000000000036e+03
7.900000000000000078e-02 6.690249999999999808e-01 2.769134999999999991e+01 1.313209999999999980e+02 1.742509999999999991e+03
8.000000000000000167e-02 6.689715000000000522e-01 2.689799999999999969e+01 1.310494999999999948e+02 1.742490000000000009e+03
8.100000000000000255e-02 6.688779999999999726e-01 2.602799999999999869e+01 1.305629999999999882e+02 1.742414999999999964e+03
8.200000000000000344e-02 6.687540000000000706e-01 2.510324999999999918e+01 1.299080000000000155e+02 1.742295000000000073e+03
8.300000000000000433e-02 6.686090000000000089e-01 2.414675000000000082e+01 1.291349999999999909e+02 1.742134999999999991e+03
8.400000000000000522e-02 6.684535000000000338e-01 2.318124999999999858e+01 1.282939999999999827e+02 1.741950000000000045e+03
8.500000000000000611e-02 6.682960000000000012e-01 2.222820000000000107e+01 1.274304999999999950e+02 1.741755000000000109e+03
8.600000000000000699e-02 6.681444999999999190e-01 2.130689999999999884e+01 1.265875000000000057e+02 1.741559999999999945e+03
8.700000000000000788e-02 6.680049999999999599e-01 2.043309999999999960e+01 1.257999999999999972e+02 1.741369999999999891e+03
8.800000000000000877e-02 6.678825000000000456e-01 1.961890000000000001e+01 1.250949999999999989e+02 1.741194999999999936e+03
8.899999999999999578e-02 6.677804999999999991e-01 1.887205000000000155e+01 1.244904999999999973e+02 1.741039999999999964e+03
8.999999999999999667e-02 6.676984999999999726e-01 1.819555000000000078e+01 1.239949999999999903e+02 1.740904999999999973e+03
9.099999999999999756e-02 6.676370000000000360e-01 1.758830000000000027e+01 1.236075000000000017e+02 1.740795000000000073e+03
9.199999999999999845e-02 6.675925000000000331e-01 1.704485000000000028e+01 1.233185000000000002e+02 1.740704999999999927e+03
9.299999999999999933e-02 6.675609999999999600e-01 1.655655000000000143e+01 1.231115000000000066e+02 1.740634999999999991e+03
9.400000000000000022e-02 6.675385000000000346e-01 1.611175000000000068e+01 1.229639999999999986e+02 1.740585000000000036e+03
9.500000000000000111e-02 6.675189999999999735e-01 1.569675000000000153e+01 1.228490000000000038e+02 1.740539999999999964e+03
9.600000000000000200e-02 6.674960000000000893e-01 1.529670000000000130e+01 1.227375000000000114e+02 1.740500000000000000e+03
9.700000000000000289e-02 6.674644999999999051e-01 1.489649999999999963e+01 1.225989999999999895e+02 1.740460000000000036e+03
9.800000000000000377e-02 6.674184999999999146e-01 1.448160000000000025e+01 1.224044999999999987e+02 1.740410000000000082e+03
9.900000000000000466e-02 6.673534999999999329e-01 1.403875000000000028e+01 1.221295000000000073e+02 1.740339999999999918e+03
1.000000000000000056e-01 6.672660000000000258e-01 1.355729999999999968e+01 1.217524999999999977e+02 1.740250000000000000e+03
1.010000000000000064e-01 6.671530000000001071e-01 1.302937500000000171e+01 1.212580000000000098e+02 1.740134999999999991e+03
1.020000000000000073e-01 6.670139999999999958e-01 1.245068500000000000e+01 1.206380000000000052e+02 1.739990000000000009e+03
1.030000000000000082e-01 6.668499999999999428e-01 1.182080999999999982e+01 1.198930000000000007e+02 1.739819999999999936e+03
1.040000000000000091e-01 6.666625000000000467e-01 1.114306999999999981e+01 1.190305000000000035e+02 1.739619999999999891e+03
1.050000000000000100e-01 6.664565000000000072e-01 1.042480499999999921e+01 1.180664999999999907e+02 1.739394999999999982e+03
1.059999999999999970e-01 6.662369999999999681e-01 9.676584999999999326e+00 1.170224999999999937e+02 1.739150000000000091e+03
1.069999999999999979e-01 6.660095000000000320e-01 8.911770000000000636e+00 1.159269999999999925e+02 1.738889999999999873e+03
1.079999999999999988e-01 6.657809999999999562e-01 8.145725000000000549e+00 1.148125000000000000e+02 1.738619999999999891e+03
1.089999999999999997e-01 6.655594999999999706e-01 7.394960000000000200e+00 1.137129999999999939e+02 1.738355000000000018e+03
1.100000000000000006e-01 6.653510000000000257e-01 6.676319999999999588e+00 1.126634999999999991e+02 1.738095000000000027e+03
1.110000000000000014e-01 6.651624999999999899e-01 6.005749999999999922e+00 1.116970000000000027e+02 1.737855000000000018e+03
1.120000000000000023e-01 6.649994999999999656e-01 5.397669999999999746e+00 1.108435000000000059e+02 1.737634999999999991e+03
1.130000000000000032e-01 6.648665000000000269e-01 4.864119999999999777e+00 1.101280000000000001e+02 1.737440000000000055e+03
1.140000000000000041e-01 6.647659999999999680e-01 4.414144999999999541e+00 1.095680000000000121e+02 1.737284999999999854e+03
1.150000000000000050e-01 6.647000000000000686e-01 4.053424999999999834e+00 1.091759999999999877e+02 1.737164999999999964e+03
1.160000000000000059e-01 6.646684999999999954e-01 3.784060000000000201e+00 1.089549999999999983e+02 1.737090000000000146e+03
1.170000000000000068e-01 6.646704999999999419e-01 3.604630000000000223e+00 1.089010000000000105e+02 1.737049999999999955e+03
1.180000000000000077e-01 6.647024999999999739e-01 3.510415000000000063e+00 1.090039999999999907e+02 1.737049999999999955e+03
1.190000000000000085e-01 6.647609999999999353e-01 3.493814999999999671e+00 1.092464999999999975e+02 1.737085000000000036e+03
1.200000000000000094e-01 6.648410000000000153e-01 3.544880000000000031e+00 1.096075000000000017e+02 1.737150000000000091e+03
1.209999999999999964e-01 6.649384999999999879e-01 3.651934999999999931e+00 1.100625000000000000e+02 1.737240000000000009e+03
1.219999999999999973e-01 6.650460000000000260e-01 3.802209999999999646e+00 1.105850000000000080e+02 1.737349999999999909e+03
1.229999999999999982e-01 6.651595000000000146e-01 3.982499999999999929e+00 1.111484999999999985e+02 1.737469999999999800e+03
1.239999999999999991e-01 6.652744999999999909e-01 4.179714999999999847e+00 1.117255000000000109e+02 1.737599999999999909e+03
1.250000000000000000e-01 6.653845000000000454e-01 4.381484999999999630e+00 1.122924999999999898e+02 1.737730000000000018e+03
1.260000000000000009e-01 6.654869999999999397e-01 4.576520000000000366e+00 1.128285000000000053e+02 1.737860000000000127e+03
1.270000000000000018e-01 6.655785000000000728e-01 4.755024999999999835e+00 1.133160000000000025e+02 1.737980000000000018e+03
1.280000000000000027e-01 6.656569999999999432e-01 4.908934999999999604e+00 1.137409999999999997e+02 1.738085000000000036e+03
1.290000000000000036e-01 6.657204999999999373e-01 5.032104999999999606e+00 1.140935000000000059e+02 1.738175000000000182e+03
1.300000000000000044e-01 6.657679999999999154e-01 5.120359999999999800e+00 1.143689999999999998e+02 1.738255000000000109e+03
1.310000000000000053e-01 6.658005000000000173e-01 5.171530000000000626e+00 1.145660000000000025e+02 1.738309999999999945e+03
1.320000000000000062e-01 6.658174999999999510e-01 5.185360000000000191e+00 1.146860000000000070e+02 1.738349999999999909e+03
1.330000000000000071e-01 6.658224999999999838e-01 5.163370000000000459e+00 1.147360000000000042e+02 1.738369999999999891e+03
1.340000000000000080e-01 6.658144999999999758e-01 5.108634999999999593e+00 1.147229999999999990e+02 1.738380000000000109e+03
1.350000000000000089e-01 6.657984999999999598e-01 5.025549999999999962e+00 1.146585000000000036e+02 1.738375000000000000e+03
1.360000000000000098e-01 6.657750000000000057e-01 4.919500000000000206e+00 1.145534999999999997e+02 1.738360000000000127e+03
1.370000000000000107e-01 6.657485000000000763e-01 4.796504999999999797e+00 1.144205000000000041e+02 1.738335000000000036e+03
1.380000000000000115e-01 6.657189999999999497e-01 4.662874999999999659e+00 1.142734999999999985e+02 1.738304999999999836e+03
1.390000000000000124e-01 6.656910000000000327e-01 4.524854999999999627e+00 1.141225000000000023e+02 1.738275000000000091e+03
1.400000000000000133e-01 6.656655000000000211e-01 4.388269999999999449e+00 1.139789999999999992e+02 1.738244999999999891e+03
1.410000000000000142e-01 6.656435000000000546e-01 4.258200000000000429e+00 1.138515000000000015e+02 1.738215000000000146e+03
1.420000000000000151e-01 6.656275000000000386e-01 4.138799999999999812e+00 1.137469999999999999e+02 1.738190000000000055e+03
1.430000000000000160e-01 6.656170000000000142e-01 4.033079999999999998e+00 1.136694999999999993e+02 1.738174999999999955e+03
1.440000000000000169e-01 6.656119999999999814e-01 3.942865000000000286e+00 1.136195000000000022e+02 1.738154999999999973e+03
1.450000000000000178e-01 6.656125000000000513e-01 3.868799999999999795e+00 1.135970000000000084e+02 1.738150000000000091e+03
1.459999999999999909e-01 6.656174999999999731e-01 3.810404999999999820e+00 1.135985000000000014e+02 1.738150000000000091e+03
1.469999999999999918e-01 6.656260000000000510e-01 3.766270000000000007e+00 1.136184999999999974e+02 1.738150000000000091e+03
1.479999999999999927e-01 6.656364999999999643e-01 3.734234999999999971e+00 1.136514999999999986e+02 1.738154999999999973e+03
1.489999999999999936e-01 6.656459999999999599e-01 3.711610000000000298e+00 1.136885000000000048e+02 1.738164999999999964e+03
1.499999999999999944e-01 6.656549999999999967e-01 3.695445000000000313e+00 1.137235000000000014e+02 1.738170000000000073e+03
1.509999999999999953e-01 6.656610000000000582e-01 3.682714999999999961e+00 1.137480000000000047e+02 1.738174999999999955e+03
1.519999999999999962e-01 6.656630000000000047e-01 3.670560000000000045e+00 1.137570000000000050e+02 1.738174999999999955e+03
1.529999999999999971e-01 6.656600000000000295e-01 3.656444999999999723e+00 1.137439999999999998e+02 1.738174999999999955e+03
1.539999999999999980e-01 6.656509999999999927e-01 3.638309999999999711e+00 1.137049999999999983e+02 1.738164999999999964e+03
1.549999999999999989e-01 6.656364999999999643e-01 3.614669999999999828e+00 1.136390000000000100e+02 1.738150000000000091e+03
1.559999999999999998e-01 6.656154999999999156e-01 3.584680000000000089e+00 1.135440000000000111e+02 1.738130000000000109e+03
1.570000000000000007e-01 6.655899999999999039e-01 3.548165000000000013e+00 1.134205000000000041e+02 1.738099999999999909e+03
1.580000000000000016e-01 6.655579999999999830e-01 3.505609999999999893e+00 1.132734999999999985e+02 1.738065000000000055e+03
1.590000000000000024e-01 6.655234999999999346e-01 3.458130000000000148e+00 1.131059999999999945e+02 1.738025000000000091e+03
