# t [s], A [cm^2], U [cm/s], P [cPa], c [cm/s]
1.000000000000000021e-03 1.764129999999999865e-01 3.834939500000000279e-01 1.017815500000000100e+02 2.185940000000000055e+03
2.000000000000000042e-03 1.763500000000000068e-01 2.094688000000000105e+00 9.785099999999999909e+01 2.185375000000000000e+03
3.000000000000000062e-03 1.761985000000000079e-01 4.205824500000000299e+00 9.236295000000001210e+01 2.184079999999999927e+03
4.000000000000000083e-03 1.760035000000000072e-01 6.593172999999999284e+00 8.663230000000000075e+01 2.182425000000000182e+03
5.000000000000000104e-03 1.758049999999999891e-01 9.133535000000000181e+00 8.176865000000000805e+01 2.180760000000000218e+03
6.000000000000000125e-03 1.756205000000000127e-01 1.153883499999999884e+01 7.788294999999999391e+01 2.179230000000000018e+03
7.000000000000000146e-03 1.754509999999999958e-01 1.355328499999999892e+01 7.448919999999999675e+01 2.177864999999999782e+03
8.000000000000000167e-03 1.753005000000000257e-01 1.517339999999999911e+01 7.147514999999999930e+01 2.176675000000000182e+03
9.000000000000001055e-03 1.751754999999999840e-01 1.647374999999999901e+01 6.901699999999999591e+01 2.175694999999999709e+03
1.000000000000000194e-02 1.750749999999999806e-01 1.748509999999999920e+01 6.713069999999999027e+01 2.174920000000000073e+03
1.099999999999999936e-02 1.749985000000000013e-01 1.824044999999999916e+01 6.575419999999999732e+01 2.174340000000000146e+03
1.200000000000000025e-02 1.749414999999999998e-01 1.876055000000000206e+01 6.478835000000000832e+01 2.173914999999999964e+03
1.300000000000000114e-02 1.748990000000000267e-01 1.904605000000000103e+01 6.404359999999999786e+01 2.173604999999999563e+03
1.400000000000000203e-02 1.748655000000000070e-01 1.916104999999999947e+01 6.343919999999999959e+01 2.173375000000000000e+03
1.499999999999999944e-02 1.748474999999999890e-01 1.929044999999999987e+01 6.326555000000000462e+01 2.173250000000000000e+03
1.600000000000000033e-02 1.748569999999999847e-01 1.966225000000000023e+01 6.409104999999999563e+01 2.173335000000000036e+03
1.700000000000000122e-02 1.749060000000000059e-01 2.039600000000000080e+01 6.632585000000000264e+01 2.173720000000000255e+03
1.800000000000000211e-02 1.749944999999999973e-01 2.140905000000000058e+01 6.982795000000000130e+01 2.174414999999999964e+03
1.900000000000000300e-02 1.751079999999999859e-01 2.244599999999999795e+01 7.385249999999999204e+01 2.175310000000000400e+03
2.000000000000000042e-02 1.752210000000000156e-01 2.319819999999999993e+01 7.735354999999999848e+01 2.176215000000000146e+03
2.100000000000000130e-02 1.753079999999999916e-01 2.344004999999999939e+01 7.943270000000001119e+01 2.176929999999999836e+03
2.200000000000000219e-02 1.753514999999999935e-01 2.311610000000000298e+01 7.969989999999999952e+01 2.177309999999999945e+03
2.299999999999999961e-02 1.753490000000000049e-01 2.234575000000000244e+01 7.838589999999999236e+01 2.177329999999999927e+03
2.400000000000000050e-02 1.753129999999999966e-01 2.135275000000000034e+01 7.618030000000000257e+01 2.177070000000000164e+03
2.500000000000000139e-02 1.752610000000000001e-01 2.036164999999999736e+01 7.389709999999999468e+01 2.176670000000000073e+03
2.600000000000000228e-02 1.752110000000000056e-01 1.951125000000000043e+01 7.213970000000000482e+01 2.176270000000000437e+03
2.700000000000000316e-02 1.751734999999999820e-01 1.881909999999999883e+01 7.110880000000000223e+01 2.175965000000000146e+03
2.800000000000000058e-02 1.751480000000000259e-01 1.820145000000000124e+01 7.060544999999999050e+01 2.175755000000000109e+03
2.900000000000000147e-02 1.751284999999999925e-01 1.753020000000000067e+01 7.019089999999999918e+01 2.175595000000000255e+03
3.000000000000000236e-02 1.751035000000000230e-01 1.669984999999999786e+01 6.941675000000000750e+01 2.175400000000000091e+03
3.099999999999999978e-02 1.750649999999999984e-01 1.568094999999999928e+01 6.803565000000000396e+01 2.175110000000000127e+03
3.200000000000000067e-02 1.750120000000000009e-01 1.454250000000000043e+01 6.612094999999999345e+01 2.174699999999999818e+03
3.300000000000000155e-02 1.749505000000000088e-01 1.343560000000000088e+01 6.405734999999999957e+01 2.174215000000000146e+03
3.400000000000000244e-02 1.748939999999999939e-01 1.254545000000000066e+01 6.240979999999999706e+01 2.173760000000000218e+03
3.500000000000000333e-02 1.748574999999999990e-01 1.202970000000000006e+01 6.172334999999999638e+01 2.173454999999999927e+03
3.600000000000000422e-02 1.748529999999999807e-01 1.196734999999999971e+01 6.233225000000000193e+01 2.173399999999999636e+03
3.700000000000000511e-02 1.748854999999999993e-01 1.233380000000000010e+01 6.424519999999999698e+01 2.173630000000000109e+03
3.799999999999999906e-02 1.749514999999999820e-01 1.300809999999999889e+01 6.713859999999999673e+01 2.174130000000000109e+03
3.899999999999999994e-02 1.750390000000000001e-01 1.380470000000000041e+01 7.044464999999999577e+01 2.174804999999999836e+03
4.000000000000000083e-02 1.751309999999999811e-01 1.451679999999999993e+01 7.349500000000000455e+01 2.175529999999999745e+03
4.100000000000000172e-02 1.752104999999999912e-01 1.495850000000000080e+01 7.567164999999999964e+01 2.176164999999999964e+03
4.200000000000000261e-02 1.752604999999999857e-01 1.499530000000000030e+01 7.652545000000000641e+01 2.176574999999999818e+03
4.300000000000000350e-02 1.752704999999999957e-01 1.455920000000000059e+01 7.583975000000000932e+01 2.176675000000000182e+03
4.400000000000000439e-02 1.752365000000000173e-01 1.364794999999999980e+01 7.363409999999998945e+01 2.176425000000000182e+03
4.499999999999999833e-02 1.751594999999999958e-01 1.231185499999999955e+01 7.011825000000000330e+01 2.175840000000000146e+03
4.599999999999999922e-02 1.750450000000000061e-01 1.063467999999999947e+01 6.561885000000000900e+01 2.174949999999999818e+03
4.700000000000000011e-02 1.749025000000000163e-01 8.714270000000000849e+00 6.050150000000000006e+01 2.173835000000000036e+03
4.800000000000000100e-02 1.747424999999999951e-01 6.648175000000000168e+00 5.510914999999999964e+01 2.172569999999999709e+03
4.900000000000000189e-02 1.745720000000000049e-01 4.525620999999999228e+00 4.972735000000000127e+01 2.171230000000000018e+03
5.000000000000000278e-02 1.744014999999999871e-01 2.425800000000000178e+00 4.457635000000000502e+01 2.169880000000000109e+03
5.100000000000000366e-02 1.742374999999999896e-01 4.202999999999998959e-01 3.982310000000000372e+01 2.168569999999999709e+03
5.200000000000000455e-02 1.740835000000000021e-01 -1.423285000000000133e+00 3.560204999999999842e+01 2.167345000000000255e+03
5.300000000000000544e-02 1.739469999999999905e-01 -3.038667999999999925e+00 3.203515000000000157e+01 2.166250000000000000e+03
5.399999999999999939e-02 1.738314999999999999e-01 -4.360640000000000072e+00 2.924344999999999928e+01 2.165319999999999709e+03
5.500000000000000028e-02 1.737410000000000065e-01 -5.327624999999999389e+00 2.734714999999999918e+01 2.164585000000000036e+03
5.600000000000000117e-02 1.736805000000000154e-01 -5.886364999999999625e+00 2.645655000000000001e+01 2.164079999999999927e+03
5.700000000000000205e-02 1.736524999999999874e-01 -5.997534999999999172e+00 2.665630000000000166e+01 2.163835000000000036e+03
5.800000000000000294e-02 1.736604999999999954e-01 -5.640695000000000014e+00 2.798920000000000030e+01 2.163864999999999782e+03
5.900000000000000383e-02 1.737049999999999983e-01 -4.817450000000000010e+00 3.044440000000000168e+01 2.164184999999999945e+03
6.000000000000000472e-02 1.737850000000000228e-01 -3.552000499999999672e+00 3.395279999999999632e+01 2.164789999999999964e+03
6.099999999999999867e-02 1.738985000000000114e-01 -1.889275000000000038e+00 3.839085000000000036e+01 2.165659999999999854e+03
6.199999999999999956e-02 1.740415000000000156e-01 1.090050000000000185e-01 4.359149999999999636e+01 2.166764999999999873e+03
6.300000000000000044e-02 1.742084999999999884e-01 2.369264999999999954e+00 4.935904999999999632e+01 2.168069999999999709e+03
6.400000000000000133e-02 1.743939999999999935e-01 4.811205915000000388e+00 5.548494999999999777e+01 2.169525000000000091e+03
6.500000000000000222e-02 1.745909999999999962e-01 7.352669999999999817e+00 6.176254999999999740e+01 2.171079999999999927e+03
6.600000000000000311e-02 1.747934999999999905e-01 9.913819999999999411e+00 6.799894999999999357e+01 2.172685000000000400e+03
6.700000000000000400e-02 1.749954999999999983e-01 1.242095000000000127e+01 7.402419999999999334e+01 2.174295000000000073e+03
6.800000000000000488e-02 1.751915000000000000e-01 1.480954999999999977e+01 7.969900000000001228e+01 2.175869999999999891e+03
6.900000000000000577e-02 1.753779999999999784e-01 1.702754999999999797e+01 8.492009999999999081e+01 2.177364999999999782e+03
7.000000000000000666e-02 1.755510000000000126e-01 1.903755000000000308e+01 8.962479999999999336e+01 2.178765000000000327e+03
7.100000000000000755e-02 1.757090000000000041e-01 2.081830000000000069e+01 9.379309999999999548e+01 2.180039999999999964e+03
7.200000000000000844e-02 1.758505000000000207e-01 2.236529999999999774e+01 9.744749999999999091e+01 2.181194999999999709e+03
7.300000000000000933e-02 1.759775000000000089e-01 2.368975000000000009e+01 1.006475999999999971e+02 2.182234999999999673e+03
7.399999999999999634e-02 1.760915000000000119e-01 2.481624999999999659e+01 1.034857999999999976e+02 2.183170000000000073e+03
7.499999999999999722e-02 1.761944999999999761e-01 2.577955000000000041e+01 1.060734999999999957e+02 2.184019999999999982e+03
7.599999999999999811e-02 1.762905000000000166e-01 2.662035000000000196e+01 1.085305000000000035e+02 2.184809999999999945e+03
7.699999999999999900e-02 1.763830000000000120e-01 2.738074999999999903e+01 1.109729999999999990e+02 2.185565000000000055e+03
7.799999999999999989e-02 1.764755000000000074e-01 2.810045000000000215e+01 1.135024999999999977e+02 2.186320000000000164e+03
7.900000000000000078e-02 1.765694999999999903e-01 2.881295000000000073e+01 1.161945000000000050e+02 2.187090000000000146e+03
8.000000000000000167e-02 1.766690000000000205e-01 2.954314999999999714e+01 1.190960000000000036e+02 2.187900000000000091e+03
8.100000000000000255e-02 1.767745000000000011e-01 3.030574999999999974e+01 1.222224999999999966e+02 2.188755000000000109e+03
8.200000000000000344e-02 1.768859999999999877e-01 3.110464999999999947e+01 1.255570000000000164e+02 2.189659999999999854e+03
8.300000000000000433e-02 1.770029999999999937e-01 3.193349999999999866e+01 1.290545000000000186e+02 2.190605000000000018e+03
8.400000000000000522e-02 1.771245000000000180e-01 3.277700000000000102e+01 1.326479999999999961e+02 2.191590000000000146e+03
8.500000000000000611e-02 1.772475000000000023e-01 3.361245000000000260e+01 1.362535000000000025e+02 2.192585000000000036e+03
8.600000000000000699e-02 1.773699999999999999e-01 3.441205000000000069e+01 1.397779999999999916e+02 2.193585000000000036e+03
8.700000000000000788e-02 1.774890000000000079e-01 3.514544999999999675e+01 1.431285000000000025e+02 2.194550000000000182e+03
8.800000000000000877e-02 1.776020000000000099e-01 3.578150000000000119e+01 1.462124999999999773e+02 2.195474999999999909e+03
8.899999999999999578e-02 1.777060000000000028e-01 3.629104999999999848e+01 1.489504999999999768e+02 2.196324999999999818e+03
8.999999999999999667e-02 1.777984999999999982e-01 3.664844999999999686e+01 1.512749999999999773e+02 2.197079999999999927e+03
9.099999999999999756e-02 1.778770000000000073e-01 3.683330000000000126e+01 1.531370000000000005e+02 2.197730000000000018e+03
9.199999999999999845e-02 1.779405000000000014e-01 3.683169999999999789e+01 1.545049999999999955e+02 2.198260000000000218e+03
9.299999999999999933e-02 1.779890000000000083e-01 3.663689999999999714e+01 1.553704999999999927e+02 2.198664999999999964e+03
9.400000000000000022e-02 1.780200000000000116e-01 3.624989999999999668e+01 1.557429999999999950e+02 2.198935000000000400e+03
9.500000000000000111e-02 1.780359999999999998e-01 3.567889999999999873e+01 1.556519999999999868e+02 2.199079999999999927e+03
9.600000000000000200e-02 1.780364999999999864e-01 3.493914999999999793e+01 1.551424999999999841e+02 2.199099999999999909e+03
9.700000000000000289e-02 1.780240000000000156e-01 3.405170000000000385e+01 1.542719999999999914e+02 2.199010000000000218e+03
9.800000000000000377e-02 1.779995000000000049e-01 3.304205000000000325e+01 1.531084999999999923e+02 2.198820000000000164e+03
9.900000000000000466e-02 1.779649999999999843e-01 3.193915000000000148e+01 1.517255000000000109e+02 2.198555000000000291e+03
1.000000000000000056e-01 1.779239999999999988e-01 3.077345000000000041e+01 1.501979999999999791e+02 2.198225000000000364e+03
1.010000000000000064e-01 1.778779999999999806e-01 2.957574999999999932e+01 1.485980000000000132e+02 2.197859999999999673e+03
1.020000000000000073e-01 1.778290000000000148e-01 2.837549999999999883e+01 1.469945000000000164e+02 2.197460000000000036e+03
1.030000000000000082e-01 1.777789999999999926e-01 2.719980000000000331e+01 1.454459999999999980e+02 2.197059999999999945e+03
1.040000000000000091e-01 1.777305000000000135e-01 2.607240000000000180e+01 1.440040000000000191e+02 2.196670000000000073e+03
1.050000000000000100e-01 1.776850000000000096e-01 2.501225000000000165e+01 1.427049999999999841e+02 2.196295000000000073e+03
1.059999999999999970e-01 1.776435000000000097e-01 2.403365000000000151e+01 1.415765000000000100e+02 2.195960000000000036e+03
1.069999999999999979e-01 1.776075000000000015e-01 2.314504999999999768e+01 1.406295000000000073e+02 2.195654999999999745e+03
1.079999999999999988e-01 1.775760000000000116e-01 2.234924999999999784e+01 1.398619999999999948e+02 2.195394999999999982e+03
1.089999999999999997e-01 1.775499999999999856e-01 2.164334999999999809e+01 1.392599999999999909e+02 2.195175000000000182e+03
1.100000000000000006e-01 1.775289999999999924e-01 2.101924999999999955e+01 1.387965000000000089e+02 2.194994999999999891e+03
1.110000000000000014e-01 1.775114999999999887e-01 2.046405000000000030e+01 1.384339999999999975e+02 2.194855000000000018e+03
1.120000000000000023e-01 1.774975000000000025e-01 1.996135000000000304e+01 1.381270000000000095e+02 2.194724999999999909e+03
1.130000000000000032e-01 1.774840000000000029e-01 1.949190000000000111e+01 1.378265000000000100e+02 2.194614999999999782e+03
1.140000000000000041e-01 1.774709999999999899e-01 1.903525000000000134e+01 1.374809999999999945e+02 2.194505000000000109e+03
1.150000000000000050e-01 1.774560000000000026e-01 1.857090000000000174e+01 1.370400000000000205e+02 2.194380000000000109e+03
1.160000000000000059e-01 1.774374999999999980e-01 1.807975000000000065e+01 1.364575000000000102e+02 2.194230000000000018e+03
1.170000000000000068e-01 1.774149999999999894e-01 1.754524999999999935e+01 1.356979999999999791e+02 2.194045000000000073e+03
1.180000000000000077e-01 1.773865000000000025e-01 1.695439999999999969e+01 1.347339999999999804e+02 2.193819999999999709e+03
1.190000000000000085e-01 1.773520000000000096e-01 1.629885000000000161e+01 1.335520000000000209e+02 2.193534999999999854e+03
1.200000000000000094e-01 1.773099999999999954e-01 1.557525000000000048e+01 1.321504999999999939e+02 2.193199999999999818e+03
1.209999999999999964e-01 1.772620000000000029e-01 1.478559999999999874e+01 1.305439999999999827e+02 2.192815000000000055e+03
1.219999999999999973e-01 1.772070000000000034e-01 1.393704999999999927e+01 1.287579999999999814e+02 2.192369999999999891e+03
1.229999999999999982e-01 1.771464999999999845e-01 1.304155000000000086e+01 1.268305000000000007e+02 2.191889999999999873e+03
1.239999999999999991e-01 1.770820000000000172e-01 1.211512499999999903e+01 1.248080000000000069e+02 2.191369999999999891e+03
1.250000000000000000e-01 1.770150000000000057e-01 1.117681499999999950e+01 1.227454999999999927e+02 2.190824999999999818e+03
1.260000000000000009e-01 1.769465000000000066e-01 1.024745500000000042e+01 1.206975000000000051e+02 2.190274999999999636e+03
1.270000000000000018e-01 1.768790000000000084e-01 9.348660000000000636e+00 1.187220000000000084e+02 2.189730000000000018e+03
1.280000000000000027e-01 1.768139999999999989e-01 8.501409999999999911e+00 1.168719999999999999e+02 2.189194999999999709e+03
1.290000000000000036e-01 1.767525000000000068e-01 7.724909999999999499e+00 1.151939999999999884e+02 2.188699999999999818e+03
1.300000000000000044e-01 1.766969999999999930e-01 7.035739999999999661e+00 1.137279999999999944e+02 2.188244999999999891e+03
1.310000000000000053e-01 1.766479999999999995e-01 6.446934999999999860e+00 1.125020000000000095e+02 2.187849999999999909e+03
1.320000000000000062e-01 1.766064999999999996e-01 5.967499999999999361e+00 1.115339999999999918e+02 2.187505000000000109e+03
1.330000000000000071e-01 1.765734999999999943e-01 5.602165000000000283e+00 1.108310000000000031e+02 2.187230000000000018e+03
1.340000000000000080e-01 1.765484999999999971e-01 5.351309999999999789e+00 1.103890000000000100e+02 2.187019999999999982e+03
1.350000000000000089e-01 1.765319999999999945e-01 5.211195000000000022e+00 1.101930000000000121e+02 2.186880000000000109e+03
1.360000000000000098e-01 1.765240000000000142e-01 5.174360000000000070e+00 1.102219999999999942e+02 2.186804999999999836e+03
1.370000000000000107e-01 1.765220000000000122e-01 5.230150000000000077e+00 1.104445000000000050e+02 2.186784999999999854e+03
1.380000000000000115e-01 1.765269999999999895e-01 5.365380000000000038e+00 1.108284999999999911e+02 2.186815000000000055e+03
1.390000000000000124e-01 1.765369999999999995e-01 5.565039999999999765e+00 1.113344999999999914e+02 2.186889999999999873e+03
1.400000000000000133e-01 1.765515000000000001e-01 5.813030000000000364e+00 1.119244999999999948e+02 2.186994999999999891e+03
1.410000000000000142e-01 1.765689999999999760e-01 6.092875000000000263e+00 1.125610000000000070e+02 2.187130000000000109e+03
1.420000000000000151e-01 1.765875000000000083e-01 6.388410000000000366e+00 1.132060000000000031e+02 2.187279999999999745e+03
1.430000000000000160e-01 1.766064999999999996e-01 6.684390000000000498e+00 1.138280000000000030e+02 2.187430000000000291e+03
1.440000000000000169e-01 1.766250000000000042e-01 6.967060000000000031e+00 1.143975000000000080e+02 2.187579999999999927e+03
1.450000000000000178e-01 1.766424999999999801e-01 7.224579999999999558e+00 1.148909999999999911e+02 2.187715000000000146e+03
1.459999999999999909e-01 1.766574999999999951e-01 7.447435000000000471e+00 1.152905000000000086e+02 2.187840000000000146e+03
1.469999999999999918e-01 1.766694999999999793e-01 7.628635000000000055e+00 1.155859999999999985e+02 2.187940000000000055e+03
1.479999999999999927e-01 1.766790000000000027e-01 7.763880000000000337e+00 1.157709999999999866e+02 2.188019999999999982e+03
1.489999999999999936e-01 1.766845000000000221e-01 7.851539999999999964e+00 1.158470000000000084e+02 2.188064999999999600e+03
1.499999999999999944e-01 1.766874999999999973e-01 7.892540000000000333e+00 1.158209999999999980e+02 2.188090000000000146e+03
1.509999999999999953e-01 1.766869999999999830e-01 7.890084999999999127e+00 1.157040000000000077e+02 2.188090000000000146e+03
1.519999999999999962e-01 1.766834999999999933e-01 7.849325000000000330e+00 1.155120000000000005e+02 2.188065000000000055e+03
1.529999999999999971e-01 1.766774999999999873e-01 7.776885000000000048e+00 1.152634999999999934e+02 2.188024999999999636e+03
1.539999999999999980e-01 1.766705000000000081e-01 7.680334999999999468e+00 1.149770000000000039e+02 2.187965000000000146e+03
1.549999999999999989e-01 1.766619999999999857e-01 7.567719999999999558e+00 1.146734999999999900e+02 2.187905000000000200e+03
1.559999999999999998e-01 1.766524999999999901e-01 7.446995000000000253e+00 1.143710000000000093e+02 2.187829999999999927e+03
1.570000000000000007e-01 1.766435000000000088e-01 7.325574999999999726e+00 1.140850000000000080e+02 2.187755000000000109e+03
1.580000000000000016e-01 1.766349999999999865e-01 7.209960000000000591e+00 1.138305000000000007e+02 2.187689999999999600e+03
1.590000000000000024e-01 1.766269999999999785e-01 7.105430000000000135e+00 1.136159999999999997e+02 2.187630000000000109e+03
