# t [s], A [cm^2], U [cm/s], P [cPa], c [cm/s]
1.000000000000000021e-03 6.182870000000000310e-01 4.375150000000001260e-03 1.025055000000000121e+02 1.631045000000000073e+03
2.000000000000000042e-03 6.182799999999999407e-01 2.381809999999999830e-03 1.024819999999999993e+02 1.631039999999999964e+03
3.000000000000000062e-03 6.183380000000000543e-01 1.092569999999999930e-01 1.025989999999999895e+02 1.631069999999999936e+03
4.000000000000000083e-03 6.183799999999999297e-01 1.956390499999999810e-01 1.027100000000000080e+02 1.631099999999999909e+03
5.000000000000000104e-03 6.183480000000000087e-01 1.548468500000000081e-01 1.026299999999999955e+02 1.631085000000000036e+03
6.000000000000000125e-03 6.182870000000000310e-01 5.450000000000004841e-02 1.023965000000000032e+02 1.631035000000000082e+03
7.000000000000000146e-03 6.182274999999999299e-01 -5.100999999999999979e-02 1.020865000000000009e+02 1.630960000000000036e+03
8.000000000000000167e-03 6.181269999999999820e-01 -2.435450000000000115e-01 1.016094999999999970e+02 1.630860000000000127e+03
9.000000000000001055e-03 6.179624999999999702e-01 -5.686499999999998778e-01 1.008771500000000003e+02 1.630690000000000055e+03
1.000000000000000194e-02 6.177274999999999849e-01 -1.031674999999999898e+00 9.983940000000001191e+01 1.630460000000000036e+03
1.099999999999999936e-02 6.174034999999999940e-01 -1.652800000000000047e+00 9.842685000000000173e+01 1.630130000000000109e+03
1.200000000000000025e-02 6.169879999999999809e-01 -2.417670000000000208e+00 9.660819999999999652e+01 1.629700000000000045e+03
1.300000000000000114e-02 6.165209999999999857e-01 -3.224425000000000097e+00 9.447639999999999816e+01 1.629184999999999945e+03
1.400000000000000203e-02 6.160695000000000476e-01 -3.913379999999999637e+00 9.224009999999999820e+01 1.628625000000000000e+03
1.499999999999999944e-02 6.156895000000000007e-01 -4.345161500000000565e+00 9.012715000000000032e+01 1.628069999999999936e+03
1.600000000000000033e-02 6.154005000000000170e-01 -4.456992999999999761e+00 8.829030000000000200e+01 1.627559999999999945e+03
1.700000000000000122e-02 6.151839999999999531e-01 -4.271129000000000175e+00 8.676589999999998781e+01 1.627099999999999909e+03
1.800000000000000211e-02 6.150014999999999787e-01 -3.868537499999999962e+00 8.548550000000000182e+01 1.626695000000000164e+03
1.900000000000000300e-02 6.148095000000000088e-01 -3.349358500000000127e+00 8.432129999999999370e+01 1.626309999999999945e+03
2.000000000000000042e-02 6.145770000000000399e-01 -2.796037199999999778e+00 8.314164999999999850e+01 1.625929999999999836e+03
2.100000000000000130e-02 6.142950000000000355e-01 -2.250209499999999974e+00 8.185859999999999559e+01 1.625525000000000091e+03
2.200000000000000219e-02 6.139725000000000321e-01 -1.709645000000000081e+00 8.044899999999999807e+01 1.625095000000000027e+03
2.299999999999999961e-02 6.136319999999999553e-01 -1.144475000000000131e+00 7.894724999999999682e+01 1.624650000000000091e+03
2.400000000000000050e-02 6.132940000000000058e-01 -5.230300000000001059e-01 7.741360000000000241e+01 1.624190000000000055e+03
2.500000000000000139e-02 6.129685000000000272e-01 1.647850000000001813e-01 7.589824999999999022e+01 1.623730000000000018e+03
2.600000000000000228e-02 6.126514999999999045e-01 8.953349999999997699e-01 7.441294999999999504e+01 1.623280000000000200e+03
2.700000000000000316e-02 6.123244999999999383e-01 1.612330000000000263e+00 7.292095000000000482e+01 1.622825000000000045e+03
2.800000000000000058e-02 6.119615000000000471e-01 2.238649999999999807e+00 7.134369999999999834e+01 1.622349999999999909e+03
2.900000000000000147e-02 6.115355000000000096e-01 2.694560000000000066e+00 6.958180000000000121e+01 1.621835000000000036e+03
3.000000000000000236e-02 6.110275000000000567e-01 2.917200000000000237e+00 6.754390000000000782e+01 1.621264999999999873e+03
3.099999999999999978e-02 6.104330000000000034e-01 2.876430000000000042e+00 6.517480000000000473e+01 1.620619999999999891e+03
3.200000000000000067e-02 6.097620000000000262e-01 2.582665000000000433e+00 6.247629999999999484e+01 1.619894999999999982e+03
3.300000000000000155e-02 6.090409999999999435e-01 2.084704999999999586e+00 5.951359999999999673e+01 1.619115000000000009e+03
3.400000000000000244e-02 6.083065000000000833e-01 1.459060000000000024e+00 5.640704999999999814e+01 1.618289999999999964e+03
3.500000000000000333e-02 6.075979999999999714e-01 7.943199999999999150e-01 5.331244999999999834e+01 1.617460000000000036e+03
3.600000000000000422e-02 6.069525000000000059e-01 1.762550000000002726e-01 5.039705000000000013e+01 1.616664999999999964e+03
3.700000000000000511e-02 6.064005000000000090e-01 -3.232850000000002666e-01 4.781674999999999898e+01 1.615934999999999945e+03
3.799999999999999906e-02 6.059630000000000294e-01 -6.521349999999999092e-01 4.569969999999999999e+01 1.615315000000000055e+03
3.899999999999999994e-02 6.056529999999999969e-01 -7.783200000000001229e-01 4.413769999999999527e+01 1.614824999999999818e+03
4.000000000000000083e-02 6.054749999999999854e-01 -6.868750000000001243e-01 4.318439999999999657e+01 1.614480000000000018e+03
4.100000000000000172e-02 6.054285000000000361e-01 -3.745804999999999274e-01 4.286019999999999897e+01 1.614304999999999836e+03
4.200000000000000261e-02 6.055105000000000626e-01 1.555695000000000272e-01 4.315975000000000250e+01 1.614284999999999854e+03
4.300000000000000350e-02 6.057144999999999335e-01 8.986449999999999161e-01 4.406134999999999735e+01 1.614434999999999945e+03
4.400000000000000439e-02 6.060354999999999492e-01 1.850029999999999841e+00 4.553419999999999845e+01 1.614735000000000127e+03
4.499999999999999833e-02 6.064670000000000893e-01 3.005374999999999908e+00 4.754300000000000637e+01 1.615190000000000055e+03
4.599999999999999922e-02 6.070035000000000291e-01 4.358859999999999957e+00 5.004970000000000141e+01 1.615784999999999854e+03
4.700000000000000011e-02 6.076354999999999951e-01 5.900640000000000107e+00 5.301229999999999620e+01 1.616505000000000109e+03
4.800000000000000100e-02 6.083540000000000614e-01 7.614639999999999631e+00 5.638325000000000387e+01 1.617349999999999909e+03
4.900000000000000189e-02 6.091465000000000352e-01 9.477400349999999918e+00 6.010745000000000005e+01 1.618295000000000073e+03
5.000000000000000278e-02 6.099980000000000402e-01 1.145824499999999979e+01 6.412174999999999159e+01 1.619329999999999927e+03
5.100000000000000366e-02 6.108925000000000605e-01 1.352092500000000008e+01 6.835624999999998863e+01 1.620444999999999936e+03
5.200000000000000455e-02 6.118135000000000101e-01 1.562590499999999949e+01 7.273689999999999145e+01 1.621610000000000127e+03
5.300000000000000544e-02 6.127445000000000253e-01 1.773342000000000240e+01 7.718954999999999700e+01 1.622799999999999955e+03
5.399999999999999939e-02 6.136714999999999254e-01 1.980620000000000047e+01 8.164395000000000380e+01 1.624019999999999982e+03
5.500000000000000028e-02 6.145815000000000028e-01 2.181179999999999808e+01 8.603874999999999318e+01 1.625230000000000018e+03
5.600000000000000117e-02 6.154669999999999863e-01 2.372419999999999973e+01 9.032264999999999588e+01 1.626425000000000182e+03
5.700000000000000205e-02 6.163205000000000489e-01 2.552420000000000044e+01 9.445889999999999986e+01 1.627599999999999909e+03
5.800000000000000294e-02 6.171389999999999931e-01 2.720004999999999740e+01 9.842384999999998740e+01 1.628735000000000127e+03
5.900000000000000383e-02 6.179224999999999302e-01 2.874615000000000009e+01 1.022083000000000084e+02 1.629835000000000036e+03
6.000000000000000472e-02 6.186724999999999586e-01 3.016264999999999930e+01 1.058147000000000020e+02 1.630889999999999873e+03
6.099999999999999867e-02 6.193925000000000125e-01 3.145405000000000229e+01 1.092549999999999955e+02 1.631905000000000200e+03
6.199999999999999956e-02 6.200875000000000137e-01 3.262805000000000177e+01 1.125484999999999900e+02 1.632880000000000109e+03
6.300000000000000044e-02 6.207620000000000360e-01 3.369450000000000500e+01 1.157195000000000107e+02 1.633824999999999818e+03
6.400000000000000133e-02 6.214215000000000710e-01 3.466424999999999557e+01 1.187930000000000064e+02 1.634740000000000009e+03
6.500000000000000222e-02 6.220704999999999707e-01 3.554809999999999803e+01 1.217939999999999969e+02 1.635639999999999873e+03
6.600000000000000311e-02 6.227125000000000021e-01 3.635609999999999786e+01 1.247444999999999879e+02 1.636519999999999982e+03
6.700000000000000400e-02 6.233509999999999884e-01 3.709659999999999513e+01 1.276620000000000061e+02 1.637384999999999991e+03
6.800000000000000488e-02 6.239864999999999995e-01 3.777540000000000475e+01 1.305554999999999950e+02 1.638244999999999891e+03
6.900000000000000577e-02 6.246190000000000353e-01 3.839574999999999960e+01 1.334284999999999854e+02 1.639099999999999909e+03
7.000000000000000666e-02 6.252469999999999972e-01 3.895810000000000173e+01 1.362760000000000105e+02 1.639940000000000055e+03
7.100000000000000755e-02 6.258664999999999923e-01 3.946000000000000085e+01 1.390860000000000127e+02 1.640769999999999982e+03
7.200000000000000844e-02 6.264724999999999877e-01 3.989674999999999727e+01 1.418394999999999868e+02 1.641590000000000146e+03
7.300000000000000933e-02 6.270605000000000206e-01 4.026194999999999879e+01 1.445124999999999886e+02 1.642390000000000100e+03
7.399999999999999634e-02 6.276230000000000420e-01 4.054819999999999425e+01 1.470785000000000196e+02 1.643154999999999973e+03
7.499999999999999722e-02 6.281559999999999366e-01 4.074779999999999802e+01 1.495084999999999980e+02 1.643889999999999873e+03
7.599999999999999811e-02 6.286519999999999886e-01 4.085344999999999516e+01 1.517754999999999939e+02 1.644579999999999927e+03
7.699999999999999900e-02 6.291065000000000129e-01 4.085904999999999632e+01 1.538539999999999850e+02 1.645224999999999909e+03
7.799999999999999989e-02 6.295155000000000056e-01 4.075995000000000346e+01 1.557214999999999918e+02 1.645809999999999945e+03
7.900000000000000078e-02 6.298749999999999627e-01 4.055360000000000298e+01 1.573629999999999995e+02 1.646335000000000036e+03
8.000000000000000167e-02 6.301849999999999952e-01 4.023955000000000126e+01 1.587659999999999911e+02 1.646789999999999964e+03
8.100000000000000255e-02 6.304425000000000168e-01 3.981959999999999411e+01 1.599265000000000043e+02 1.647179999999999836e+03
8.200000000000000344e-02 6.306495000000000850e-01 3.929805000000000348e+01 1.608449999999999989e+02 1.647505000000000109e+03
8.300000000000000433e-02 6.308074999999999655e-01 3.868144999999999811e+01 1.615294999999999845e+02 1.647765000000000100e+03
8.400000000000000522e-02 6.309195000000000775e-01 3.797830000000000439e+01 1.619920000000000186e+02 1.647960000000000036e+03
8.500000000000000611e-02 6.309890000000000221e-01 3.719910000000000139e+01 1.622495000000000118e+02 1.648090000000000146e+03
8.600000000000000699e-02 6.310204999999999842e-01 3.635600000000000165e+01 1.623249999999999886e+02 1.648164999999999964e+03
8.700000000000000788e-02 6.310199999999999143e-01 3.546209999999999951e+01 1.622420000000000186e+02 1.648194999999999936e+03
8.800000000000000877e-02 6.309925000000000672e-01 3.453144999999999953e+01 1.620275000000000034e+02 1.648180000000000064e+03
8.899999999999999578e-02 6.309445000000000192e-01 3.357815000000000083e+01 1.617104999999999961e+02 1.648130000000000109e+03
8.999999999999999667e-02 6.308810000000000251e-01 3.261615000000000464e+01 1.613195000000000050e+02 1.648050000000000182e+03
9.099999999999999756e-02 6.308074999999999655e-01 3.165854999999999819e+01 1.608799999999999955e+02 1.647954999999999927e+03
9.199999999999999845e-02 6.307300000000000129e-01 3.071699999999999875e+01 1.604180000000000064e+02 1.647845000000000027e+03
9.299999999999999933e-02 6.306514999999999205e-01 2.980134999999999934e+01 1.599560000000000173e+02 1.647724999999999909e+03
9.400000000000000022e-02 6.305764999999999842e-01 2.891945000000000121e+01 1.595104999999999791e+02 1.647610000000000127e+03
9.500000000000000111e-02 6.305065000000000808e-01 2.807650000000000290e+01 1.590954999999999870e+02 1.647494999999999891e+03
9.600000000000000200e-02 6.304435000000000455e-01 2.727515000000000001e+01 1.587194999999999823e+02 1.647389999999999873e+03
9.700000000000000289e-02 6.303879999999999484e-01 2.651555000000000106e+01 1.583859999999999957e+02 1.647284999999999854e+03
9.800000000000000377e-02 6.303385000000000238e-01 2.579540000000000077e+01 1.580935000000000059e+02 1.647194999999999936e+03
9.900000000000000466e-02 6.302939999999999099e-01 2.511025000000000063e+01 1.578369999999999891e+02 1.647115000000000009e+03
1.000000000000000056e-01 6.302520000000000344e-01 2.445394999999999897e+01 1.576064999999999827e+02 1.647039999999999964e+03
1.010000000000000064e-01 6.302110000000000767e-01 2.381895000000000095e+01 1.573905000000000030e+02 1.646970000000000027e+03
1.020000000000000073e-01 6.301669999999999217e-01 2.319695000000000107e+01 1.571740000000000066e+02 1.646900000000000091e+03
1.030000000000000082e-01 6.301179999999999559e-01 2.257945000000000135e+01 1.569440000000000168e+02 1.646824999999999818e+03
1.040000000000000091e-01 6.300600000000000644e-01 2.195789999999999864e+01 1.566845000000000141e+02 1.646744999999999891e+03
1.050000000000000100e-01 6.299909999999999677e-01 2.132439999999999714e+01 1.563820000000000050e+02 1.646660000000000082e+03
1.059999999999999970e-01 6.299090000000000522e-01 2.067220000000000013e+01 1.560254999999999939e+02 1.646559999999999945e+03
1.069999999999999979e-01 6.298120000000000385e-01 1.999585000000000079e+01 1.556050000000000182e+02 1.646445000000000164e+03
1.079999999999999988e-01 6.296990000000000087e-01 1.929139999999999944e+01 1.551150000000000091e+02 1.646309999999999945e+03
1.089999999999999997e-01 6.295710000000001028e-01 1.855689999999999884e+01 1.545525000000000091e+02 1.646160000000000082e+03
1.100000000000000006e-01 6.294269999999999587e-01 1.779204999999999970e+01 1.539184999999999945e+02 1.645985000000000127e+03
1.110000000000000014e-01 6.292694999999999261e-01 1.699859999999999971e+01 1.532164999999999964e+02 1.645795000000000073e+03
1.120000000000000023e-01 6.290999999999999925e-01 1.618005000000000138e+01 1.524549999999999841e+02 1.645589999999999918e+03
1.130000000000000032e-01 6.289215000000000222e-01 1.534165000000000134e+01 1.516449999999999818e+02 1.645375000000000000e+03
1.140000000000000041e-01 6.287365000000000315e-01 1.449001000000000161e+01 1.507989999999999782e+02 1.645139999999999873e+03
1.150000000000000050e-01 6.285490000000000244e-01 1.363286499999999890e+01 1.499334999999999809e+02 1.644904999999999973e+03
1.160000000000000059e-01 6.283624999999999350e-01 1.277880000000000038e+01 1.490640000000000214e+02 1.644664999999999964e+03
1.170000000000000068e-01 6.281805000000000305e-01 1.193679500000000004e+01 1.482090000000000032e+02 1.644424999999999955e+03
1.180000000000000077e-01 6.280059999999999532e-01 1.111589500000000008e+01 1.473845000000000027e+02 1.644194999999999936e+03
1.190000000000000085e-01 6.278440000000000687e-01 1.032494999999999941e+01 1.466075000000000159e+02 1.643970000000000027e+03
1.200000000000000094e-01 6.276960000000000317e-01 9.571854999999999336e+00 1.458915000000000077e+02 1.643759999999999991e+03
1.209999999999999964e-01 6.275649999999999284e-01 8.863744999999999763e+00 1.452500000000000000e+02 1.643565000000000055e+03
1.219999999999999973e-01 6.274530000000000385e-01 8.206269999999999953e+00 1.446929999999999836e+02 1.643400000000000091e+03
1.229999999999999982e-01 6.273604999999999876e-01 7.603749999999999787e+00 1.442259999999999991e+02 1.643255000000000109e+03
1.239999999999999991e-01 6.272880000000000678e-01 7.058720000000000105e+00 1.438534999999999968e+02 1.643130000000000109e+03
1.250000000000000000e-01 6.272360000000000158e-01 6.572139999999999205e+00 1.435749999999999886e+02 1.643030000000000200e+03
1.260000000000000009e-01 6.272024999999999961e-01 6.143279999999999852e+00 1.433865000000000123e+02 1.642960000000000036e+03
1.270000000000000018e-01 6.271869999999999390e-01 5.769885000000000375e+00 1.432835000000000036e+02 1.642909999999999854e+03
1.280000000000000027e-01 6.271864999999999801e-01 5.448310000000000208e+00 1.432560000000000002e+02 1.642880000000000109e+03
1.290000000000000036e-01 6.271984999999999921e-01 5.173795000000000144e+00 1.432934999999999945e+02 1.642869999999999891e+03
1.300000000000000044e-01 6.272215000000000984e-01 4.940670000000000783e+00 1.433834999999999980e+02 1.642875000000000000e+03
1.310000000000000053e-01 6.272504999999999331e-01 4.742655000000000065e+00 1.435130000000000052e+02 1.642894999999999982e+03
1.320000000000000062e-01 6.272849999999999815e-01 4.573159999999999670e+00 1.436675000000000182e+02 1.642925000000000182e+03
1.330000000000000071e-01 6.273199999999999887e-01 4.425520000000000564e+00 1.438344999999999914e+02 1.642960000000000036e+03
1.340000000000000080e-01 6.273549999999999960e-01 4.293255000000000265e+00 1.440015000000000214e+02 1.642994999999999891e+03
1.350000000000000089e-01 6.273859999999999992e-01 4.170275000000000176e+00 1.441560000000000059e+02 1.643030000000000200e+03
1.360000000000000098e-01 6.274124999999999286e-01 4.051070000000000171e+00 1.442884999999999991e+02 1.643065000000000055e+03
1.370000000000000107e-01 6.274314999999999198e-01 3.930829999999999824e+00 1.443899999999999864e+02 1.643090000000000146e+03
1.380000000000000115e-01 6.274425000000000141e-01 3.805565000000000087e+00 1.444555000000000007e+02 1.643110000000000127e+03
1.390000000000000124e-01 6.274444999999999606e-01 3.672130000000000116e+00 1.444795000000000016e+02 1.643115000000000009e+03
1.400000000000000133e-01 6.274374999999999813e-01 3.528285000000000338e+00 1.444599999999999795e+02 1.643110000000000127e+03
1.410000000000000142e-01 6.274214999999999653e-01 3.372675000000000090e+00 1.443954999999999984e+02 1.643099999999999909e+03
1.420000000000000151e-01 6.273965000000000236e-01 3.204780000000000406e+00 1.442874999999999943e+02 1.643074999999999818e+03
1.430000000000000160e-01 6.273630000000000040e-01 3.024885000000000268e+00 1.441380000000000052e+02 1.643039999999999964e+03
1.440000000000000169e-01 6.273214999999999764e-01 2.833975000000000133e+00 1.439515000000000100e+02 1.642994999999999891e+03
1.450000000000000178e-01 6.272744999999999571e-01 2.633630000000000138e+00 1.437309999999999945e+02 1.642934999999999945e+03
1.459999999999999909e-01 6.272214999999999874e-01 2.425914999999999822e+00 1.434834999999999923e+02 1.642875000000000000e+03
1.469999999999999918e-01 6.271645000000000136e-01 2.213255000000000194e+00 1.432125000000000057e+02 1.642805000000000064e+03
1.479999999999999927e-01 6.271044999999999536e-01 1.998272000000000048e+00 1.429254999999999995e+02 1.642724999999999909e+03
1.489999999999999936e-01 6.270430000000000170e-01 1.783672000000000146e+00 1.426279999999999859e+02 1.642650000000000091e+03
1.499999999999999944e-01 6.269804999999999406e-01 1.572090999999999905e+00 1.423245000000000005e+02 1.642565000000000055e+03
1.509999999999999953e-01 6.269179999999999753e-01 1.365975500000000009e+00 1.420194999999999936e+02 1.642485000000000127e+03
1.519999999999999962e-01 6.268569999999999975e-01 1.167484500000000036e+00 1.417180000000000177e+02 1.642394999999999982e+03
1.529999999999999971e-01 6.267964999999999787e-01 9.783902850000000262e-01 1.414219999999999970e+02 1.642315000000000055e+03
1.539999999999999980e-01 6.267385000000000872e-01 8.000460000000000349e-01 1.411334999999999980e+02 1.642235000000000127e+03
1.549999999999999989e-01 6.266825000000000312e-01 6.333415000000000017e-01 1.408539999999999850e+02 1.642150000000000091e+03
1.559999999999999998e-01 6.266275000000000039e-01 4.787224999999999953e-01 1.405835000000000150e+02 1.642074999999999818e+03
1.570000000000000007e-01 6.265745000000000342e-01 3.362195000000000045e-01 1.403204999999999814e+02 1.642000000000000000e+03
1.580000000000000016e-01 6.265220000000000233e-01 2.055170000000000052e-01 1.400639999999999930e+02 1.641925000000000182e+03
1.590000000000000024e-01 6.264710000000000001e-01 8.600549999999995698e-02 1.398120000000000118e+02 1.641849999999999909e+03
