# t [s], A [cm^2], U [cm/s], P [cPa], c [cm/s]
1.000000000000000021e-03 8.164709999999999468e-01 5.811600000000000099e-03 1.055560000000000116e+02 1.602525000000000091e+03
2.000000000000000042e-03 8.164560000000000706e-01 -4.114264999999999763e-03 1.055300000000000011e+02 1.602519999999999982e+03
3.000000000000000062e-03 8.165009999999999213e-01 5.222584999999999728e-02 1.055904999999999916e+02 1.602534999999999854e+03
4.000000000000000083e-03 8.165704999999999769e-01 1.485704999999999942e-01 1.057139999999999986e+02 1.602559999999999945e+03
5.000000000000000104e-03 8.165729999999999933e-01 1.696300000000000030e-01 1.057309999999999945e+02 1.602570000000000164e+03
6.000000000000000125e-03 8.165040000000000076e-01 9.758900000000000907e-02 1.055850000000000080e+02 1.602539999999999964e+03
7.000000000000000146e-03 8.164375000000000382e-01 2.685450000000000337e-02 1.053815000000000026e+02 1.602494999999999891e+03
8.000000000000000167e-03 8.163724999999999454e-01 -5.018200000000000438e-02 1.051350000000000051e+02 1.602440000000000055e+03
9.000000000000001055e-03 8.162579999999999281e-01 -2.079450000000000465e-01 1.047595000000000027e+02 1.602355000000000018e+03
1.000000000000000194e-02 8.160804999999999865e-01 -4.665450000000000985e-01 1.042059999999999889e+02 1.602240000000000009e+03
1.099999999999999936e-02 8.158324999999999605e-01 -8.340199999999998726e-01 1.034360000000000070e+02 1.602065000000000055e+03
1.200000000000000025e-02 8.154900000000000482e-01 -1.332054999999999989e+00 1.023889000000000067e+02 1.601840000000000146e+03
1.300000000000000114e-02 8.150515000000000398e-01 -1.947374999999999856e+00 1.010398500000000013e+02 1.601534999999999854e+03
1.400000000000000203e-02 8.145634999999999959e-01 -2.597469999999999946e+00 9.945765000000000100e+01 1.601174999999999955e+03
1.499999999999999944e-02 8.140944999999999432e-01 -3.159450000000000092e+00 9.778864999999998986e+01 1.600779999999999973e+03
1.600000000000000033e-02 8.136980000000000324e-01 -3.528373499999999829e+00 9.618385000000000673e+01 1.600384999999999991e+03
1.700000000000000122e-02 8.133885000000000698e-01 -3.655962550000000366e+00 9.473894999999998845e+01 1.600009999999999991e+03
1.800000000000000211e-02 8.131459999999999244e-01 -3.554720500000000172e+00 9.347114999999999441e+01 1.599664999999999964e+03
1.900000000000000300e-02 8.129279999999999839e-01 -3.278489499999999612e+00 9.233064999999999145e+01 1.599340000000000146e+03
2.000000000000000042e-02 8.126900000000000235e-01 -2.895064499999999708e+00 9.123290000000000077e+01 1.599019999999999982e+03
2.100000000000000130e-02 8.124024999999999164e-01 -2.461755500000000207e+00 9.009414999999999907e+01 1.598684999999999945e+03
2.200000000000000219e-02 8.120540000000000536e-01 -2.009889999999999954e+00 8.885999999999999943e+01 1.598335000000000036e+03
2.299999999999999961e-02 8.116554999999999742e-01 -1.541000000000000147e+00 8.751949999999999363e+01 1.597960000000000036e+03
2.400000000000000050e-02 8.112304999999999655e-01 -1.034529999999999950e+00 8.610255000000000791e+01 1.597565000000000055e+03
2.500000000000000139e-02 8.108060000000000267e-01 -4.631899999999999906e-01 8.466259999999999764e+01 1.597159999999999854e+03
2.600000000000000228e-02 8.104014999999999969e-01 1.904099999999999682e-01 8.325309999999998922e+01 1.596759999999999991e+03
2.700000000000000316e-02 8.100220000000000198e-01 9.218399999999997707e-01 8.190585000000000093e+01 1.596375000000000000e+03
2.800000000000000058e-02 8.096574999999999189e-01 1.700710000000000166e+00 8.061885000000000900e+01 1.595994999999999891e+03
2.900000000000000147e-02 8.092835000000000445e-01 2.474404999999999966e+00 7.935434999999999661e+01 1.595630000000000109e+03
3.000000000000000236e-02 8.088720000000000354e-01 3.177715000000000067e+00 7.804744999999999777e+01 1.595255000000000109e+03
3.099999999999999978e-02 8.083945000000000158e-01 3.745940000000000047e+00 7.662199999999999989e+01 1.594860000000000127e+03
3.200000000000000067e-02 8.078319999999999945e-01 4.128429999999999822e+00 7.501040000000000418e+01 1.594425000000000182e+03
3.300000000000000155e-02 8.071814999999999962e-01 4.299444999999999517e+00 7.317255000000000109e+01 1.593950000000000045e+03
3.400000000000000244e-02 8.064545000000000741e-01 4.263319999999999332e+00 7.110859999999999559e+01 1.593414999999999964e+03
3.500000000000000333e-02 8.056784999999999641e-01 4.052300000000000679e+00 6.886185000000000400e+01 1.592855000000000018e+03
3.600000000000000422e-02 8.048899999999999944e-01 3.718555000000000277e+00 6.651215000000000543e+01 1.592259999999999991e+03
3.700000000000000511e-02 8.041279999999999539e-01 3.322590000000000376e+00 6.416174999999999784e+01 1.591659999999999854e+03
3.799999999999999906e-02 8.034265000000000434e-01 2.922644999999999715e+00 6.191840000000000543e+01 1.591085000000000036e+03
3.899999999999999994e-02 8.028124999999999289e-01 2.566670000000000229e+00 5.988129999999999598e+01 1.590549999999999955e+03
4.000000000000000083e-02 8.023035000000000583e-01 2.288854999999999418e+00 5.813084999999999525e+01 1.590079999999999927e+03
4.100000000000000172e-02 8.019095000000000528e-01 2.109399999999999942e+00 5.672360000000000468e+01 1.589684999999999945e+03
4.200000000000000261e-02 8.016309999999999825e-01 2.037295000000000300e+00 5.569280000000000541e+01 1.589380000000000109e+03
4.300000000000000350e-02 8.014669999999999295e-01 2.074406499999999820e+00 5.505169999999999675e+01 1.589164999999999964e+03
4.400000000000000439e-02 8.014135000000000009e-01 2.219869999999999788e+00 5.479964999999999975e+01 1.589055000000000064e+03
4.499999999999999833e-02 8.014665000000000816e-01 2.473729999999999762e+00 5.492844999999999800e+01 1.589034999999999854e+03
4.599999999999999922e-02 8.016240000000000032e-01 2.839059999999999917e+00 5.542740000000000578e+01 1.589115000000000009e+03
4.700000000000000011e-02 8.018849999999999589e-01 3.322290500000000257e+00 5.628695000000000448e+01 1.589289999999999964e+03
4.800000000000000100e-02 8.022504999999999775e-01 3.931885999999999992e+00 5.749930000000000518e+01 1.589550000000000182e+03
4.900000000000000189e-02 8.027199999999999891e-01 4.675880850000000422e+00 5.905734999999999957e+01 1.589909999999999854e+03
5.000000000000000278e-02 8.032909999999999773e-01 5.559182250000000103e+00 6.095174999999999699e+01 1.590355000000000018e+03
5.100000000000000366e-02 8.039594999999999381e-01 6.581202999999999470e+00 6.316790000000000305e+01 1.590880000000000109e+03
5.200000000000000455e-02 8.047170000000000156e-01 7.734641500000000391e+00 6.568389999999999418e+01 1.591490000000000009e+03
5.300000000000000544e-02 8.055520000000000458e-01 9.005060000000000286e+00 6.846890000000000498e+01 1.592170000000000073e+03
5.399999999999999939e-02 8.064504999999999590e-01 1.037198000000000064e+01 7.148364999999999725e+01 1.592920000000000073e+03
5.500000000000000028e-02 8.073960000000000026e-01 1.181044499999999964e+01 7.468200000000000216e+01 1.593715000000000146e+03
5.600000000000000117e-02 8.083739999999999259e-01 1.329322499999999962e+01 7.801349999999999341e+01 1.594555000000000064e+03
5.700000000000000205e-02 8.093669999999999476e-01 1.479286499999999904e+01 8.142655000000000598e+01 1.595424999999999955e+03
5.800000000000000294e-02 8.103614999999999569e-01 1.628369000000000000e+01 8.487184999999999491e+01 1.596309999999999945e+03
5.900000000000000383e-02 8.113455000000000528e-01 1.774345999999999890e+01 8.830480000000000018e+01 1.597199999999999818e+03
6.000000000000000472e-02 8.123110000000000053e-01 1.915399999999999991e+01 9.168809999999999150e+01 1.598095000000000027e+03
6.099999999999999867e-02 8.132494999999999585e-01 2.050165000000000148e+01 9.499299999999999500e+01 1.598970000000000027e+03
6.199999999999999956e-02 8.141594999999999249e-01 2.177704999999999913e+01 9.819810000000001082e+01 1.599824999999999818e+03
6.300000000000000044e-02 8.150379999999999292e-01 2.297475000000000023e+01 1.012921499999999924e+02 1.600659999999999854e+03
6.400000000000000133e-02 8.158849999999999714e-01 2.409219999999999828e+01 1.042698000000000036e+02 1.601470000000000027e+03
6.500000000000000222e-02 8.167029999999999568e-01 2.512940000000000040e+01 1.071313499999999976e+02 1.602255000000000109e+03
6.600000000000000311e-02 8.174935000000000951e-01 2.608780000000000143e+01 1.098824999999999932e+02 1.603009999999999991e+03
6.700000000000000400e-02 8.182589999999999586e-01 2.697005000000000052e+01 1.125314999999999941e+02 1.603740000000000009e+03
6.800000000000000488e-02 8.190020000000000078e-01 2.777880000000000038e+01 1.150870000000000033e+02 1.604449999999999818e+03
6.900000000000000577e-02 8.197250000000000369e-01 2.851709999999999923e+01 1.175579999999999927e+02 1.605139999999999873e+03
7.000000000000000666e-02 8.204290000000000749e-01 2.918699999999999761e+01 1.199525000000000006e+02 1.605799999999999955e+03
7.100000000000000755e-02 8.211150000000000393e-01 2.979019999999999868e+01 1.222754999999999939e+02 1.606449999999999818e+03
7.200000000000000844e-02 8.217829999999999302e-01 3.032714999999999961e+01 1.245300000000000011e+02 1.607075000000000045e+03
7.300000000000000933e-02 8.224320000000000519e-01 3.079745000000000132e+01 1.267150000000000034e+02 1.607684999999999945e+03
7.399999999999999634e-02 8.230589999999999851e-01 3.119969999999999999e+01 1.288254999999999768e+02 1.608280000000000200e+03
7.499999999999999722e-02 8.236624999999999641e-01 3.153184999999999860e+01 1.308559999999999945e+02 1.608849999999999909e+03
7.599999999999999811e-02 8.242389999999999439e-01 3.179160000000000252e+01 1.327959999999999923e+02 1.609394999999999982e+03
7.699999999999999900e-02 8.247849999999999904e-01 3.197640000000000171e+01 1.346365000000000123e+02 1.609920000000000073e+03
7.799999999999999989e-02 8.252969999999999473e-01 3.208420000000000272e+01 1.363650000000000091e+02 1.610409999999999854e+03
7.900000000000000078e-02 8.257719999999999505e-01 3.211360000000000525e+01 1.379719999999999800e+02 1.610875000000000000e+03
8.000000000000000167e-02 8.262084999999999013e-01 3.206385000000000218e+01 1.394465000000000146e+02 1.611304999999999836e+03
8.100000000000000255e-02 8.266029999999999767e-01 3.193529999999999802e+01 1.407810000000000059e+02 1.611699999999999818e+03
8.200000000000000344e-02 8.269549999999999956e-01 3.172910000000000252e+01 1.419699999999999989e+02 1.612050000000000182e+03
8.300000000000000433e-02 8.272639999999999993e-01 3.144735000000000014e+01 1.430085000000000264e+02 1.612365000000000009e+03
8.400000000000000522e-02 8.275285000000000002e-01 3.109295000000000186e+01 1.438949999999999818e+02 1.612640000000000100e+03
8.500000000000000611e-02 8.277495000000000269e-01 3.066955000000000098e+01 1.446299999999999955e+02 1.612869999999999891e+03
8.600000000000000699e-02 8.279279999999999973e-01 3.018149999999999977e+01 1.452150000000000034e+02 1.613065000000000055e+03
8.700000000000000788e-02 8.280650000000000510e-01 2.963380000000000081e+01 1.456550000000000011e+02 1.613220000000000027e+03
8.800000000000000877e-02 8.281624999999999126e-01 2.903220000000000312e+01 1.459559999999999889e+02 1.613335000000000036e+03
8.899999999999999578e-02 8.282224999999999726e-01 2.838284999999999769e+01 1.461254999999999882e+02 1.613410000000000082e+03
8.999999999999999667e-02 8.282479999999999842e-01 2.769294999999999973e+01 1.461734999999999900e+02 1.613454999999999927e+03
9.099999999999999756e-02 8.282430000000000625e-01 2.696989999999999910e+01 1.461109999999999900e+02 1.613470000000000027e+03
9.199999999999999845e-02 8.282100000000000017e-01 2.622184999999999988e+01 1.459510000000000218e+02 1.613454999999999927e+03
9.299999999999999933e-02 8.281540000000000568e-01 2.545714999999999861e+01 1.457075000000000102e+02 1.613409999999999854e+03
9.400000000000000022e-02 8.280790000000000095e-01 2.468434999999999846e+01 1.453949999999999818e+02 1.613345000000000027e+03
9.500000000000000111e-02 8.279889999999999750e-01 2.391179999999999950e+01 1.450280000000000200e+02 1.613264999999999873e+03
9.600000000000000200e-02 8.278894999999999449e-01 2.314744999999999919e+01 1.446215000000000259e+02 1.613174999999999955e+03
9.700000000000000289e-02 8.277830000000000465e-01 2.239829999999999899e+01 1.441904999999999859e+02 1.613069999999999936e+03
9.800000000000000377e-02 8.276725000000000332e-01 2.167040000000000077e+01 1.437479999999999905e+02 1.612954999999999927e+03
9.900000000000000466e-02 8.275630000000000486e-01 2.096860000000000213e+01 1.433040000000000020e+02 1.612845000000000027e+03
1.000000000000000056e-01 8.274550000000000516e-01 2.029599999999999937e+01 1.428689999999999998e+02 1.612730000000000018e+03
1.010000000000000064e-01 8.273509999999999476e-01 1.965435000000000088e+01 1.424495000000000005e+02 1.612615000000000009e+03
1.020000000000000073e-01 8.272504999999999997e-01 1.904375000000000284e+01 1.420490000000000066e+02 1.612505000000000109e+03
1.030000000000000082e-01 8.271539999999999448e-01 1.846284999999999954e+01 1.416694999999999993e+02 1.612400000000000091e+03
1.040000000000000091e-01 8.270610000000000461e-01 1.790895000000000081e+01 1.413109999999999786e+02 1.612300000000000182e+03
1.050000000000000100e-01 8.269705000000000528e-01 1.737819999999999965e+01 1.409699999999999989e+02 1.612200000000000045e+03
1.059999999999999970e-01 8.268809999999999771e-01 1.686609999999999943e+01 1.406415000000000077e+02 1.612105000000000018e+03
1.069999999999999979e-01 8.267900000000000249e-01 1.636744999999999806e+01 1.403209999999999980e+02 1.612009999999999991e+03
1.079999999999999988e-01 8.266970000000000152e-01 1.587679999999999936e+01 1.400020000000000095e+02 1.611914999999999964e+03
1.089999999999999997e-01 8.265989999999999727e-01 1.538865000000000016e+01 1.396769999999999925e+02 1.611829999999999927e+03
1.100000000000000006e-01 8.264955000000000496e-01 1.489789999999999992e+01 1.393405000000000200e+02 1.611730000000000018e+03
1.110000000000000014e-01 8.263840000000000074e-01 1.439964999999999939e+01 1.389859999999999900e+02 1.611630000000000109e+03
1.120000000000000023e-01 8.262644999999999573e-01 1.388980000000000103e+01 1.386094999999999970e+02 1.611535000000000082e+03
1.130000000000000032e-01 8.261354999999999116e-01 1.336511999999999922e+01 1.382069999999999936e+02 1.611420000000000073e+03
1.140000000000000041e-01 8.259965000000000224e-01 1.282321999999999917e+01 1.377764999999999986e+02 1.611309999999999945e+03
1.150000000000000050e-01 8.258494999999999031e-01 1.226288500000000070e+01 1.373174999999999955e+02 1.611184999999999945e+03
1.160000000000000059e-01 8.256944999999999979e-01 1.168400499999999909e+01 1.368319999999999936e+02 1.611059999999999945e+03
1.170000000000000068e-01 8.255330000000000723e-01 1.108754000000000062e+01 1.363240000000000123e+02 1.610929999999999836e+03
1.180000000000000077e-01 8.253669999999999618e-01 1.047564000000000028e+01 1.357975000000000136e+02 1.610789999999999964e+03
1.190000000000000085e-01 8.251990000000000158e-01 9.851424999999998988e+00 1.352595000000000027e+02 1.610650000000000091e+03
1.200000000000000094e-01 8.250310000000000699e-01 9.218965000000000742e+00 1.347185000000000059e+02 1.610509999999999991e+03
1.209999999999999964e-01 8.248675000000000868e-01 8.583104999999999762e+00 1.341829999999999927e+02 1.610369999999999891e+03
1.219999999999999973e-01 8.247100000000000541e-01 7.949094999999999800e+00 1.336634999999999991e+02 1.610224999999999909e+03
1.229999999999999982e-01 8.245624999999999760e-01 7.322649999999999437e+00 1.331694999999999993e+02 1.610095000000000027e+03
1.239999999999999991e-01 8.244275000000000908e-01 6.709600000000000009e+00 1.327119999999999891e+02 1.609970000000000027e+03
1.250000000000000000e-01 8.243080000000000407e-01 6.115585000000000271e+00 1.322994999999999948e+02 1.609860000000000127e+03
1.260000000000000009e-01 8.242069999999999119e-01 5.545930000000000248e+00 1.319420000000000073e+02 1.609759999999999991e+03
1.270000000000000018e-01 8.241255000000000663e-01 5.005415000000000170e+00 1.316460000000000150e+02 1.609674999999999955e+03
1.280000000000000027e-01 8.240655000000000063e-01 4.498089999999999478e+00 1.314174999999999898e+02 1.609605000000000018e+03
1.290000000000000036e-01 8.240279999999999827e-01 4.027129999999999654e+00 1.312609999999999957e+02 1.609554999999999836e+03
1.300000000000000044e-01 8.240129999999999955e-01 3.594729999999999759e+00 1.311779999999999973e+02 1.609525000000000091e+03
1.310000000000000053e-01 8.240195000000000158e-01 3.202054999999999652e+00 1.311690000000000111e+02 1.609509999999999991e+03
1.320000000000000062e-01 8.240480000000000027e-01 2.849230000000000373e+00 1.312309999999999945e+02 1.609514999999999873e+03
1.330000000000000071e-01 8.240959999999999397e-01 2.535400000000000098e+00 1.313614999999999782e+02 1.609535000000000082e+03
1.340000000000000080e-01 8.241610000000000325e-01 2.258795000000000108e+00 1.315529999999999973e+02 1.609574999999999818e+03
1.350000000000000089e-01 8.242420000000000302e-01 2.016865000000000130e+00 1.317989999999999782e+02 1.609630000000000109e+03
1.360000000000000098e-01 8.243354999999999988e-01 1.806420000000000137e+00 1.320905000000000200e+02 1.609694999999999936e+03
1.370000000000000107e-01 8.244380000000000042e-01 1.623827499999999979e+00 1.324194999999999993e+02 1.609769999999999982e+03
1.380000000000000115e-01 8.245480000000000587e-01 1.465149000000000035e+00 1.327744999999999891e+02 1.609860000000000127e+03
1.390000000000000124e-01 8.246615000000000473e-01 1.326316999999999968e+00 1.331475000000000080e+02 1.609949999999999818e+03
1.400000000000000133e-01 8.247765000000000235e-01 1.203279749999999870e+00 1.335279999999999916e+02 1.610045000000000073e+03
1.410000000000000142e-01 8.248900000000000121e-01 1.092118350000000015e+00 1.339070000000000107e+02 1.610139999999999873e+03
1.420000000000000151e-01 8.249999999999999556e-01 9.891595000000000804e-01 1.342760000000000105e+02 1.610235000000000127e+03
1.430000000000000160e-01 8.251045000000000185e-01 8.910349999999999104e-01 1.346285000000000025e+02 1.610329999999999927e+03
1.440000000000000169e-01 8.252014999999999212e-01 7.947349999999999692e-01 1.349585000000000150e+02 1.610420000000000073e+03
1.450000000000000178e-01 8.252900000000000791e-01 6.976299999999999724e-01 1.352595000000000027e+02 1.610500000000000000e+03
1.459999999999999909e-01 8.253690000000000193e-01 5.975034999999999652e-01 1.355275000000000034e+02 1.610570000000000164e+03
1.469999999999999918e-01 8.254375000000000462e-01 4.925430000000000086e-01 1.357599999999999909e+02 1.610639999999999873e+03
1.479999999999999927e-01 8.254945000000000199e-01 3.813229999999999675e-01 1.359549999999999841e+02 1.610694999999999936e+03
1.489999999999999936e-01 8.255405000000000104e-01 2.628074999999999717e-01 1.361100000000000136e+02 1.610740000000000009e+03
1.499999999999999944e-01 8.255749999999999478e-01 1.363305000000000211e-01 1.362249999999999943e+02 1.610779999999999973e+03
1.509999999999999953e-01 8.255974999999999842e-01 1.575499999999993572e-03 1.363000000000000114e+02 1.610799999999999955e+03
1.519999999999999962e-01 8.256094999999999962e-01 -1.414512300000000111e-01 1.363355000000000246e+02 1.610819999999999936e+03
1.529999999999999971e-01 8.256105000000000249e-01 -2.924459999999999837e-01 1.363335000000000150e+02 1.610824999999999818e+03
1.539999999999999980e-01 8.256010000000000293e-01 -4.508444999999999814e-01 1.362939999999999827e+02 1.610824999999999818e+03
1.549999999999999989e-01 8.255820000000000380e-01 -6.158580000000000165e-01 1.362210000000000036e+02 1.610809999999999945e+03
1.559999999999999998e-01 8.255540000000000100e-01 -7.865174999999999805e-01 1.361150000000000091e+02 1.610784999999999854e+03
1.570000000000000007e-01 8.255170000000000563e-01 -9.617199999999999083e-01 1.359789999999999850e+02 1.610759999999999991e+03
1.580000000000000016e-01 8.254730000000000123e-01 -1.140271000000000035e+00 1.358149999999999977e+02 1.610719999999999800e+03
1.590000000000000024e-01 8.254209999999999603e-01 -1.320943999999999896e+00 1.356260000000000048e+02 1.610674999999999955e+03
