# t [s], A [cm^2], U [cm/s], P [cPa], c [cm/s]
1.000000000000000021e-03 7.490570000000000839e-01 7.606299999999996397e-03 1.030324999999999989e+02 1.774239999999999782e+03
2.000000000000000042e-03 7.490425000000000555e-01 -5.932754999999999626e-03 1.029950000000000045e+02 1.774235000000000127e+03
3.000000000000000062e-03 7.490995000000000292e-01 8.677380000000001203e-02 1.031064999999999969e+02 1.774255000000000109e+03
4.000000000000000083e-03 7.491544999999999455e-01 1.910898000000000041e-01 1.032450000000000045e+02 1.774284999999999854e+03
5.000000000000000104e-03 7.491185000000000205e-01 1.629892999999999759e-01 1.031689999999999969e+02 1.774275000000000091e+03
6.000000000000000125e-03 7.490399999999999281e-01 6.170800000000004060e-02 1.029134999999999991e+02 1.774219999999999800e+03
7.000000000000000146e-03 7.489820000000000366e-01 -1.477650000000002573e-02 1.026280000000000001e+02 1.774150000000000091e+03
8.000000000000000167e-03 7.488850000000000229e-01 -1.684920000000000306e-01 1.022040000000000077e+02 1.774054999999999836e+03
9.000000000000001055e-03 7.487224999999999575e-01 -4.529250000000000220e-01 1.015425000000000040e+02 1.773910000000000082e+03
1.000000000000000194e-02 7.484899999999999887e-01 -8.724849999999999550e-01 1.005998000000000019e+02 1.773704999999999927e+03
1.099999999999999936e-02 7.481590000000000185e-01 -1.463929999999999954e+00 9.927930000000000632e+01 1.773404999999999973e+03
1.200000000000000025e-02 7.477264999999999606e-01 -2.216439999999999966e+00 9.753755000000001019e+01 1.773014999999999873e+03
1.300000000000000114e-02 7.472539999999999738e-01 -3.001265000000000072e+00 9.550710000000000832e+01 1.772539999999999964e+03
1.400000000000000203e-02 7.468310000000000226e-01 -3.631460999999999828e+00 9.344774999999999920e+01 1.772045000000000073e+03
1.499999999999999944e-02 7.465135000000000520e-01 -3.971446499999999880e+00 9.159395000000000664e+01 1.771575000000000045e+03
1.600000000000000033e-02 7.462975000000000581e-01 -3.992338000000000164e+00 9.004545000000000243e+01 1.771150000000000091e+03
1.700000000000000122e-02 7.461355000000000626e-01 -3.757985000000000131e+00 8.875249999999999773e+01 1.770775000000000091e+03
1.800000000000000211e-02 7.459649999999999892e-01 -3.375250000000000306e+00 8.757120000000000459e+01 1.770424999999999955e+03
1.900000000000000300e-02 7.457399999999999585e-01 -2.941679500000000225e+00 8.634210000000000207e+01 1.770059999999999945e+03
2.000000000000000042e-02 7.454419999999999380e-01 -2.510149499999999811e+00 8.495730000000000359e+01 1.769670000000000073e+03
2.100000000000000130e-02 7.450840000000000796e-01 -2.078969999999999985e+00 8.339499999999999602e+01 1.769235000000000127e+03
2.200000000000000219e-02 7.447010000000000574e-01 -1.606654999999999944e+00 8.171359999999999957e+01 1.768775000000000091e+03
2.299999999999999961e-02 7.443279999999999896e-01 -1.042044999999999888e+00 8.001330000000000098e+01 1.768299999999999955e+03
2.400000000000000050e-02 7.439875000000000238e-01 -3.554250000000003240e-01 7.838564999999999827e+01 1.767840000000000146e+03
2.500000000000000139e-02 7.436804999999999666e-01 4.415650000000002073e-01 7.687199999999999989e+01 1.767400000000000091e+03
2.600000000000000228e-02 7.433859999999999912e-01 1.292314999999999880e+00 7.544389999999999930e+01 1.766980000000000018e+03
2.700000000000000316e-02 7.430660000000000043e-01 2.106444999999999901e+00 7.400780000000000314e+01 1.766565000000000055e+03
2.800000000000000058e-02 7.426809999999999246e-01 2.781344999999999956e+00 7.243129999999999313e+01 1.766119999999999891e+03
2.900000000000000147e-02 7.421984999999999832e-01 3.228314999999999824e+00 7.058189999999999031e+01 1.765625000000000000e+03
3.000000000000000236e-02 7.416065000000000573e-01 3.396479999999999499e+00 6.836990000000000123e+01 1.765050000000000182e+03
3.099999999999999978e-02 7.409179999999999655e-01 3.286290000000000155e+00 6.578014999999999191e+01 1.764400000000000091e+03
3.200000000000000067e-02 7.401670000000000194e-01 2.947949999999999626e+00 6.288179999999999836e+01 1.763670000000000073e+03
3.300000000000000155e-02 7.394009999999999749e-01 2.464810000000000390e+00 5.981329999999999814e+01 1.762900000000000091e+03
3.400000000000000244e-02 7.386690000000000200e-01 1.931305000000000049e+00 5.675019999999999953e+01 1.762125000000000000e+03
3.500000000000000333e-02 7.380124999999999602e-01 1.431899999999999729e+00 5.386970000000000169e+01 1.761384999999999991e+03
3.600000000000000422e-02 7.374579999999999469e-01 1.029080000000000439e+00 5.132290000000000418e+01 1.760710000000000036e+03
3.700000000000000511e-02 7.370210000000000372e-01 7.592050000000001297e-01 4.921809999999999974e+01 1.760134999999999991e+03
3.799999999999999906e-02 7.367029999999999967e-01 6.360250000000000625e-01 4.761749999999999972e+01 1.759674999999999955e+03
3.899999999999999994e-02 7.365010000000000723e-01 6.581449999999999800e-01 4.654314999999999714e+01 1.759340000000000146e+03
4.000000000000000083e-02 7.364074999999999926e-01 8.179844999999998922e-01 4.598870000000000147e+01 1.759134999999999991e+03
4.100000000000000172e-02 7.364155000000000006e-01 1.109714499999999937e+00 4.593370000000000175e+01 1.759059999999999945e+03
4.200000000000000261e-02 7.365220000000000100e-01 1.534234499999999946e+00 4.635625000000000284e+01 1.759109999999999900e+03
4.300000000000000350e-02 7.367274999999999796e-01 2.100176499999999891e+00 4.724009999999999820e+01 1.759285000000000082e+03
4.400000000000000439e-02 7.370330000000000492e-01 2.821174000000000071e+00 4.857625000000000171e+01 1.759574999999999818e+03
4.499999999999999833e-02 7.374399999999999844e-01 3.710749500000000367e+00 5.035914999999999964e+01 1.759980000000000018e+03
4.599999999999999922e-02 7.379485000000000072e-01 4.776675500000000518e+00 5.257989999999999498e+01 1.760500000000000000e+03
4.700000000000000011e-02 7.385515000000000274e-01 6.016868000000000549e+00 5.521914999999999907e+01 1.761130000000000109e+03
4.800000000000000100e-02 7.392389999999999795e-01 7.417287500000000477e+00 5.824254999999999427e+01 1.761865000000000009e+03
4.900000000000000189e-02 7.399970000000000159e-01 8.952700000000000102e+00 6.159935000000000116e+01 1.762690000000000055e+03
5.000000000000000278e-02 7.408069999999999933e-01 1.058916499999999949e+01 6.522464999999999691e+01 1.763589999999999918e+03
5.100000000000000366e-02 7.416510000000000602e-01 1.228814999999999991e+01 6.904370000000000118e+01 1.764549999999999955e+03
5.200000000000000455e-02 7.425100000000000033e-01 1.401041500000000006e+01 7.297910000000000252e+01 1.765550000000000182e+03
5.300000000000000544e-02 7.433684999999999876e-01 1.572011000000000003e+01 7.695664999999999623e+01 1.766575000000000045e+03
5.399999999999999939e-02 7.442145000000000010e-01 1.738708499999999901e+01 8.091194999999999027e+01 1.767605000000000018e+03
5.500000000000000028e-02 7.450390000000000068e-01 1.898859999999999815e+01 8.479349999999999454e+01 1.768625000000000000e+03
5.600000000000000117e-02 7.458370000000000832e-01 2.050955000000000084e+01 8.856595000000000084e+01 1.769625000000000000e+03
5.700000000000000205e-02 7.466064999999999507e-01 2.194154999999999944e+01 9.220824999999999250e+01 1.770610000000000127e+03
5.800000000000000294e-02 7.473490000000000411e-01 2.328154999999999930e+01 9.571289999999999054e+01 1.771554999999999836e+03
5.900000000000000383e-02 7.480659999999998977e-01 2.453075000000000117e+01 9.908405000000000484e+01 1.772474999999999909e+03
6.000000000000000472e-02 7.487614999999999688e-01 2.569275000000000020e+01 1.023320999999999970e+02 1.773360000000000127e+03
6.099999999999999867e-02 7.494395000000000362e-01 2.677254999999999896e+01 1.054739000000000004e+02 1.774224999999999909e+03
6.199999999999999956e-02 7.501029999999999642e-01 2.777515000000000001e+01 1.085264999999999986e+02 1.775065000000000055e+03
6.300000000000000044e-02 7.507550000000000612e-01 2.870510000000000161e+01 1.115060000000000002e+02 1.775884999999999991e+03
6.400000000000000133e-02 7.513980000000000103e-01 2.956544999999999845e+01 1.144244999999999948e+02 1.776690000000000055e+03
6.500000000000000222e-02 7.520310000000000050e-01 3.035730000000000217e+01 1.172889999999999873e+02 1.777474999999999909e+03
6.600000000000000311e-02 7.526535000000000863e-01 3.107970000000000255e+01 1.200995000000000061e+02 1.778255000000000109e+03
6.700000000000000400e-02 7.532635000000000858e-01 3.172990000000000066e+01 1.228504999999999967e+02 1.779015000000000100e+03
6.800000000000000488e-02 7.538569999999999993e-01 3.230319999999999681e+01 1.255294999999999987e+02 1.779755000000000109e+03
6.900000000000000577e-02 7.544290000000000163e-01 3.279420000000000357e+01 1.281189999999999998e+02 1.780470000000000027e+03
7.000000000000000666e-02 7.549755000000000216e-01 3.319709999999999894e+01 1.305999999999999943e+02 1.781164999999999964e+03
7.100000000000000755e-02 7.554914999999999825e-01 3.350670000000000215e+01 1.329495000000000005e+02 1.781825000000000045e+03
7.200000000000000844e-02 7.559730000000000061e-01 3.371890000000000498e+01 1.351490000000000009e+02 1.782449999999999818e+03
7.300000000000000933e-02 7.564159999999999773e-01 3.383109999999999928e+01 1.371800000000000068e+02 1.783025000000000091e+03
7.399999999999999634e-02 7.568189999999999085e-01 3.384234999999999616e+01 1.390269999999999868e+02 1.783559999999999945e+03
7.499999999999999722e-02 7.571795000000000053e-01 3.375319999999999965e+01 1.406804999999999950e+02 1.784045000000000073e+03
7.599999999999999811e-02 7.574954999999999883e-01 3.356575000000000131e+01 1.421324999999999932e+02 1.784474999999999909e+03
7.699999999999999900e-02 7.577684999999999560e-01 3.328340000000000032e+01 1.433810000000000002e+02 1.784849999999999909e+03
7.799999999999999989e-02 7.579979999999999496e-01 3.291075000000000017e+01 1.444259999999999877e+02 1.785170000000000073e+03
7.900000000000000078e-02 7.581854999999999567e-01 3.245340000000000202e+01 1.452724999999999795e+02 1.785440000000000055e+03
8.000000000000000167e-02 7.583314999999999362e-01 3.191809999999999903e+01 1.459270000000000209e+02 1.785654999999999973e+03
8.100000000000000255e-02 7.584400000000000031e-01 3.131289999999999907e+01 1.464014999999999986e+02 1.785819999999999936e+03
8.200000000000000344e-02 7.585135000000000627e-01 3.064695000000000036e+01 1.467079999999999984e+02 1.785945000000000164e+03
8.300000000000000433e-02 7.585554999999999382e-01 2.993050000000000210e+01 1.468645000000000209e+02 1.786019999999999982e+03
8.400000000000000522e-02 7.585699999999999665e-01 2.917480000000000118e+01 1.468884999999999934e+02 1.786054999999999836e+03
8.500000000000000611e-02 7.585625000000000284e-01 2.839175000000000182e+01 1.468015000000000043e+02 1.786059999999999945e+03
8.600000000000000699e-02 7.585375000000000867e-01 2.759340000000000259e+01 1.466250000000000000e+02 1.786039999999999964e+03
8.700000000000000788e-02 7.584995000000001042e-01 2.679149999999999920e+01 1.463815000000000168e+02 1.786000000000000000e+03
8.800000000000000877e-02 7.584524999999999739e-01 2.599685000000000201e+01 1.460919999999999845e+02 1.785934999999999945e+03
8.899999999999999578e-02 7.584009999999999918e-01 2.521880000000000166e+01 1.457750000000000057e+02 1.785860000000000127e+03
8.999999999999999667e-02 7.583480000000000221e-01 2.446475000000000222e+01 1.454485000000000241e+02 1.785785000000000082e+03
9.099999999999999756e-02 7.582960000000000811e-01 2.373995000000000033e+01 1.451235000000000070e+02 1.785704999999999927e+03
9.199999999999999845e-02 7.582450000000000578e-01 2.304715000000000202e+01 1.448089999999999975e+02 1.785619999999999891e+03
9.299999999999999933e-02 7.581955000000000222e-01 2.238689999999999714e+01 1.445095000000000027e+02 1.785539999999999964e+03
9.400000000000000022e-02 7.581480000000000441e-01 2.175754999999999839e+01 1.442239999999999895e+02 1.785454999999999927e+03
9.500000000000000111e-02 7.581004999999999550e-01 2.115569999999999951e+01 1.439499999999999886e+02 1.785380000000000109e+03
9.600000000000000200e-02 7.580515000000001002e-01 2.057645000000000124e+01 1.436809999999999832e+02 1.785304999999999836e+03
9.700000000000000289e-02 7.579979999999999496e-01 2.001404999999999745e+01 1.434080000000000155e+02 1.785230000000000018e+03
9.800000000000000377e-02 7.579394999999999882e-01 1.946204999999999785e+01 1.431204999999999927e+02 1.785144999999999982e+03
9.900000000000000466e-02 7.578719999999999901e-01 1.891379999999999839e+01 1.428089999999999975e+02 1.785059999999999945e+03
1.000000000000000056e-01 7.577955000000000663e-01 1.836299999999999955e+01 1.424635000000000105e+02 1.784964999999999918e+03
1.010000000000000064e-01 7.577065000000000605e-01 1.780385000000000062e+01 1.420745000000000005e+02 1.784860000000000127e+03
1.020000000000000073e-01 7.576045000000000140e-01 1.723130000000000095e+01 1.416349999999999909e+02 1.784744999999999891e+03
1.030000000000000082e-01 7.574890000000000789e-01 1.664165000000000205e+01 1.411390000000000100e+02 1.784615000000000009e+03
1.040000000000000091e-01 7.573600000000000332e-01 1.603245000000000076e+01 1.405860000000000127e+02 1.784470000000000027e+03
1.050000000000000100e-01 7.572170000000000289e-01 1.540289999999999893e+01 1.399755000000000109e+02 1.784315000000000055e+03
1.059999999999999970e-01 7.570635000000000003e-01 1.475370000000000026e+01 1.393115000000000236e+02 1.784139999999999873e+03
1.069999999999999979e-01 7.568995000000000584e-01 1.408744000000000085e+01 1.386014999999999873e+02 1.783960000000000036e+03
1.079999999999999988e-01 7.567289999999999850e-01 1.340804999999999936e+01 1.378549999999999898e+02 1.783764999999999873e+03
1.089999999999999997e-01 7.565545000000000186e-01 1.272095500000000001e+01 1.370840000000000032e+02 1.783565000000000055e+03
1.100000000000000006e-01 7.563794999999999824e-01 1.203264500000000048e+01 1.363040000000000020e+02 1.783360000000000127e+03
1.110000000000000014e-01 7.562079999999999913e-01 1.135050500000000007e+01 1.355300000000000011e+02 1.783154999999999973e+03
1.120000000000000023e-01 7.560435000000000905e-01 1.068219999999999992e+01 1.347795000000000130e+02 1.782954999999999927e+03
1.130000000000000032e-01 7.558899999999999508e-01 1.003546500000000030e+01 1.340679999999999836e+02 1.782764999999999873e+03
1.140000000000000041e-01 7.557500000000000329e-01 9.417790000000000106e+00 1.334114999999999895e+02 1.782585000000000036e+03
1.150000000000000050e-01 7.556270000000000486e-01 8.835865000000000080e+00 1.328224999999999909e+02 1.782420000000000073e+03
1.160000000000000059e-01 7.555229999999999446e-01 8.295400000000000773e+00 1.323139999999999930e+02 1.782275000000000091e+03
1.170000000000000068e-01 7.554395000000000415e-01 7.800785000000000302e+00 1.318934999999999889e+02 1.782150000000000091e+03
1.180000000000000077e-01 7.553769999999999651e-01 7.354964999999999975e+00 1.315670000000000073e+02 1.782049999999999955e+03
1.190000000000000085e-01 7.553360000000000074e-01 6.959400000000000475e+00 1.313354999999999961e+02 1.781974999999999909e+03
1.200000000000000094e-01 7.553155000000000285e-01 6.613934999999999675e+00 1.311980000000000075e+02 1.781925000000000182e+03
1.209999999999999964e-01 7.553134999999999710e-01 6.316995000000000360e+00 1.311490000000000009e+02 1.781894999999999982e+03
1.219999999999999973e-01 7.553289999999999171e-01 6.065694999999999837e+00 1.311820000000000164e+02 1.781889999999999873e+03
1.229999999999999982e-01 7.553590000000000027e-01 5.856114999999999959e+00 1.312875000000000227e+02 1.781904999999999973e+03
1.239999999999999991e-01 7.554004999999999193e-01 5.683545000000000513e+00 1.314530000000000030e+02 1.781934999999999945e+03
1.250000000000000000e-01 7.554520000000000124e-01 5.542799999999999727e+00 1.316670000000000016e+02 1.781974999999999909e+03
1.260000000000000009e-01 7.555089999999999861e-01 5.428444999999999965e+00 1.319159999999999968e+02 1.782035000000000082e+03
1.270000000000000018e-01 7.555704999999999227e-01 5.335115000000000052e+00 1.321890000000000214e+02 1.782095000000000027e+03
1.280000000000000027e-01 7.556335000000000690e-01 5.257640000000000313e+00 1.324739999999999895e+02 1.782164999999999964e+03
1.290000000000000036e-01 7.556959999999999233e-01 5.191254999999999953e+00 1.327595000000000027e+02 1.782235000000000127e+03
1.300000000000000044e-01 7.557555000000000245e-01 5.131660000000000110e+00 1.330384999999999991e+02 1.782304999999999836e+03
1.310000000000000053e-01 7.558114999999999695e-01 5.075090000000000323e+00 1.333019999999999925e+02 1.782369999999999891e+03
1.320000000000000062e-01 7.558629999999999516e-01 5.018335000000000434e+00 1.335455000000000041e+02 1.782434999999999945e+03
1.330000000000000071e-01 7.559084999999999832e-01 4.958745000000000402e+00 1.337634999999999934e+02 1.782494999999999891e+03
1.340000000000000080e-01 7.559479999999999533e-01 4.894209999999999283e+00 1.339534999999999911e+02 1.782545000000000073e+03
1.350000000000000089e-01 7.559804999999999442e-01 4.823175000000000878e+00 1.341134999999999877e+02 1.782595000000000027e+03
1.360000000000000098e-01 7.560069999999999846e-01 4.744569999999999510e+00 1.342434999999999832e+02 1.782630000000000109e+03
1.370000000000000107e-01 7.560274999999999634e-01 4.657824999999999882e+00 1.343419999999999845e+02 1.782659999999999854e+03
1.380000000000000115e-01 7.560415000000000330e-01 4.562805000000000000e+00 1.344120000000000061e+02 1.782684999999999945e+03
1.390000000000000124e-01 7.560499999999999998e-01 4.459789999999999921e+00 1.344540000000000077e+02 1.782695000000000164e+03
1.400000000000000133e-01 7.560525000000000162e-01 4.349410000000000664e+00 1.344705000000000155e+02 1.782704999999999927e+03
1.410000000000000142e-01 7.560514999999999874e-01 4.232554999999999623e+00 1.344639999999999986e+02 1.782710000000000036e+03
1.420000000000000151e-01 7.560455000000000370e-01 4.110324999999999562e+00 1.344364999999999952e+02 1.782710000000000036e+03
1.430000000000000160e-01 7.560370000000000701e-01 3.983910000000000284e+00 1.343919999999999959e+02 1.782695000000000164e+03
1.440000000000000169e-01 7.560249999999999471e-01 3.854525000000000201e+00 1.343315000000000055e+02 1.782684999999999945e+03
1.450000000000000178e-01 7.560100000000000708e-01 3.723314999999999930e+00 1.342579999999999814e+02 1.782670000000000073e+03
1.459999999999999909e-01 7.559934999999999850e-01 3.591300000000000381e+00 1.341725000000000136e+02 1.782650000000000091e+03
1.469999999999999918e-01 7.559744999999999937e-01 3.459309999999999885e+00 1.340769999999999982e+02 1.782630000000000109e+03
1.479999999999999927e-01 7.559540000000000148e-01 3.327964999999999840e+00 1.339719999999999800e+02 1.782605000000000018e+03
1.489999999999999936e-01 7.559314999999999785e-01 3.197680000000000078e+00 1.338580000000000041e+02 1.782569999999999936e+03
1.499999999999999944e-01 7.559059999999999668e-01 3.068674999999999820e+00 1.337334999999999923e+02 1.782539999999999964e+03
1.509999999999999953e-01 7.558789999999999676e-01 2.941044999999999909e+00 1.335994999999999777e+02 1.782505000000000109e+03
1.519999999999999962e-01 7.558484999999999232e-01 2.814775000000000027e+00 1.334530000000000030e+02 1.782470000000000027e+03
1.529999999999999971e-01 7.558154999999999735e-01 2.689860000000000362e+00 1.332950000000000159e+02 1.782430000000000064e+03
1.539999999999999980e-01 7.557789999999999786e-01 2.566354999999999720e+00 1.331239999999999952e+02 1.782385000000000218e+03
1.549999999999999989e-01 7.557395000000000085e-01 2.444424999999999848e+00 1.329389999999999930e+02 1.782335000000000036e+03
1.559999999999999998e-01 7.556974999999999110e-01 2.324440000000000062e+00 1.327404999999999973e+02 1.782284999999999854e+03
1.570000000000000007e-01 7.556519999999999904e-01 2.206984999999999975e+00 1.325294999999999845e+02 1.782230000000000018e+03
1.580000000000000016e-01 7.556050000000000821e-01 2.092880000000000074e+00 1.323064999999999998e+02 1.782175000000000182e+03
1.590000000000000024e-01 7.555549999999999766e-01 1.983174999999999910e+00 1.320740000000000123e+02 1.782110000000000127e+03
