# t [s], A [cm^2], U [cm/s], P [cPa], c [cm/s]
1.000000000000000021e-03 1.648569999999999758e-01 2.198960000000000081e-01 8.999414999999999054e+01 2.121025000000000091e+03
2.000000000000000042e-03 1.648180000000000200e-01 1.550934999999999953e+00 8.707335000000000491e+01 2.120670000000000073e+03
3.000000000000000062e-03 1.647099999999999953e-01 3.238727499999999981e+00 8.290119999999998868e+01 2.119724999999999909e+03
4.000000000000000083e-03 1.645610000000000128e-01 5.160484499999999919e+00 7.823064999999999714e+01 2.118439999999999600e+03
5.000000000000000104e-03 1.643999999999999906e-01 7.254050000000000331e+00 7.394669999999999277e+01 2.117070000000000164e+03
6.000000000000000125e-03 1.642454999999999887e-01 9.357904999999998807e+00 7.040744999999999720e+01 2.115774999999999636e+03
7.000000000000000146e-03 1.641015000000000112e-01 1.124645999999999901e+01 6.739265000000000327e+01 2.114579999999999927e+03
8.000000000000000167e-03 1.639690000000000036e-01 1.282066499999999820e+01 6.465014999999999645e+01 2.113505000000000109e+03
9.000000000000001055e-03 1.638519999999999976e-01 1.411953000000000102e+01 6.224080000000000013e+01 2.112569999999999709e+03
1.000000000000000194e-02 1.637540000000000107e-01 1.518270000000000053e+01 6.026489999999999725e+01 2.111800000000000182e+03
1.099999999999999936e-02 1.636739999999999862e-01 1.602850000000000108e+01 5.871354999999999791e+01 2.111170000000000073e+03
1.200000000000000025e-02 1.636110000000000064e-01 1.667484999999999928e+01 5.753589999999999804e+01 2.110690000000000055e+03
1.300000000000000114e-02 1.635619999999999852e-01 1.712484999999999857e+01 5.663174999999999670e+01 2.110324999999999818e+03
1.400000000000000203e-02 1.635220000000000007e-01 1.738034999999999997e+01 5.586055000000000348e+01 2.110029999999999745e+03
1.499999999999999944e-02 1.634895000000000098e-01 1.749869999999999948e+01 5.519164999999999566e+01 2.109789999999999964e+03
1.600000000000000033e-02 1.634680000000000022e-01 1.761699999999999733e+01 5.484004999999999797e+01 2.109640000000000327e+03
1.700000000000000122e-02 1.634665000000000146e-01 1.789909999999999712e+01 5.519395000000000095e+01 2.109635000000000218e+03
1.800000000000000211e-02 1.634929999999999994e-01 1.844369999999999976e+01 5.656099999999999994e+01 2.109845000000000255e+03
1.900000000000000300e-02 1.635500000000000009e-01 1.922400000000000020e+01 5.893104999999999905e+01 2.110295000000000073e+03
2.000000000000000042e-02 1.636294999999999833e-01 2.009495000000000076e+01 6.191365000000000407e+01 2.110925000000000182e+03
2.100000000000000130e-02 1.637170000000000014e-01 2.085575000000000045e+01 6.487205000000000155e+01 2.111630000000000109e+03
2.200000000000000219e-02 1.637959999999999972e-01 2.133050000000000068e+01 6.716479999999999961e+01 2.112275000000000091e+03
2.299999999999999961e-02 1.638519999999999976e-01 2.142940000000000111e+01 6.837264999999999304e+01 2.112750000000000000e+03
2.400000000000000050e-02 1.638789999999999969e-01 2.117024999999999935e+01 6.842079999999999984e+01 2.112994999999999891e+03
2.500000000000000139e-02 1.638784999999999825e-01 2.065704999999999814e+01 6.756010000000000559e+01 2.113019999999999982e+03
2.600000000000000228e-02 1.638590000000000046e-01 2.002929999999999922e+01 6.623160000000000025e+01 2.112880000000000109e+03
2.700000000000000316e-02 1.638310000000000044e-01 1.940700000000000003e+01 6.488185000000000002e+01 2.112659999999999854e+03
2.800000000000000058e-02 1.638025000000000175e-01 1.885195000000000221e+01 6.380615000000000236e+01 2.112434999999999945e+03
2.900000000000000147e-02 1.637794999999999945e-01 1.835719999999999885e+01 6.307359999999999900e+01 2.112239999999999782e+03
3.000000000000000236e-02 1.637600000000000167e-01 1.786335000000000051e+01 6.254515000000000668e+01 2.112085000000000036e+03
3.099999999999999978e-02 1.637399999999999967e-01 1.729245000000000232e+01 6.196540000000000248e+01 2.111929999999999836e+03
3.200000000000000067e-02 1.637144999999999850e-01 1.658504999999999896e+01 6.108559999999999945e+01 2.111725000000000364e+03
3.300000000000000155e-02 1.636779999999999902e-01 1.573010000000000019e+01 5.977625000000000455e+01 2.111439999999999600e+03
3.400000000000000244e-02 1.636305000000000121e-01 1.477710000000000079e+01 5.809329999999999927e+01 2.111074999999999818e+03
3.500000000000000333e-02 1.635765000000000136e-01 1.382779999999999987e+01 5.627769999999999584e+01 2.110644999999999982e+03
3.600000000000000422e-02 1.635250000000000037e-01 1.300880000000000081e+01 5.468930000000000291e+01 2.110229999999999563e+03
3.700000000000000511e-02 1.634849999999999914e-01 1.243625000000000114e+01 5.369890000000000185e+01 2.109894999999999982e+03
3.799999999999999906e-02 1.634654999999999858e-01 1.218339999999999890e+01 5.357689999999999486e+01 2.109724999999999909e+03
3.899999999999999994e-02 1.634714999999999918e-01 1.226160000000000139e+01 5.441450000000000387e+01 2.109755000000000109e+03
4.000000000000000083e-02 1.635035000000000238e-01 1.261864999999999881e+01 5.609819999999999851e+01 2.109984999999999673e+03
4.100000000000000172e-02 1.635564999999999936e-01 1.315225000000000044e+01 5.833915000000000362e+01 2.110390000000000327e+03
4.200000000000000261e-02 1.636205000000000020e-01 1.373339999999999961e+01 6.074174999999999613e+01 2.110894999999999982e+03
4.300000000000000350e-02 1.636859999999999982e-01 1.423174999999999990e+01 6.288840000000000430e+01 2.111414999999999964e+03
4.400000000000000439e-02 1.637409999999999977e-01 1.453749999999999964e+01 6.441859999999999786e+01 2.111864999999999782e+03
4.499999999999999833e-02 1.637770000000000059e-01 1.457594999999999885e+01 6.508424999999999727e+01 2.112164999999999964e+03
4.599999999999999922e-02 1.637885000000000035e-01 1.431224999999999881e+01 6.477529999999998722e+01 2.112269999999999982e+03
4.700000000000000011e-02 1.637720000000000009e-01 1.374889999999999901e+01 6.351370000000000005e+01 2.112154999999999745e+03
4.800000000000000100e-02 1.637284999999999990e-01 1.291649999999999920e+01 6.142430000000000234e+01 2.111819999999999709e+03
4.900000000000000189e-02 1.636619999999999742e-01 1.186258499999999927e+01 5.869320000000000448e+01 2.111300000000000182e+03
5.000000000000000278e-02 1.635770000000000002e-01 1.064099500000000020e+01 5.552559999999999718e+01 2.110630000000000109e+03
5.100000000000000366e-02 1.634789999999999854e-01 9.304130000000000678e+00 5.211265000000000214e+01 2.109849999999999909e+03
5.200000000000000455e-02 1.633725000000000038e-01 7.898905000000000953e+00 4.861284999999999457e+01 2.109005000000000109e+03
5.300000000000000544e-02 1.632625000000000048e-01 6.466409999999999769e+00 4.514794999999999447e+01 2.108119999999999891e+03
5.399999999999999939e-02 1.631525000000000059e-01 5.044089999999999741e+00 4.180980000000000274e+01 2.107234999999999673e+03
5.500000000000000028e-02 1.630449999999999955e-01 3.668576499999999907e+00 3.867309999999999803e+01 2.106369999999999891e+03
5.600000000000000117e-02 1.629430000000000045e-01 2.378216500000000178e+00 3.580870000000000175e+01 2.105550000000000182e+03
5.700000000000000205e-02 1.628499999999999948e-01 1.214274999999999993e+00 3.329319999999999879e+01 2.104795000000000073e+03
5.800000000000000294e-02 1.627679999999999960e-01 2.203800000000000203e-01 3.121240000000000236e+01 2.104130000000000109e+03
5.900000000000000383e-02 1.627004999999999979e-01 -5.596499999999999808e-01 2.965865000000000151e+01 2.103579999999999927e+03
6.000000000000000472e-02 1.626509999999999900e-01 -1.085128499999999940e+00 2.872299999999999898e+01 2.103164999999999964e+03
6.099999999999999867e-02 1.626210000000000155e-01 -1.322175499999999948e+00 2.848460000000000036e+01 2.102904999999999745e+03
6.199999999999999956e-02 1.626140000000000085e-01 -1.247040000000000148e+00 2.900050000000000239e+01 2.102835000000000036e+03
6.300000000000000044e-02 1.626314999999999844e-01 -8.484637999999999902e-01 3.029710000000000036e+01 2.102945000000000164e+03
6.400000000000000133e-02 1.626734999999999987e-01 -1.287800000000000056e-01 3.236594999999999800e+01 2.103260000000000218e+03
6.500000000000000222e-02 1.627399999999999958e-01 8.962800000000000766e-01 3.516315000000000168e+01 2.103775000000000091e+03
6.600000000000000311e-02 1.628295000000000159e-01 2.198926999999999854e+00 3.861294999999999789e+01 2.104470000000000255e+03
6.700000000000000400e-02 1.629400000000000015e-01 3.741414000000000240e+00 4.261400000000000432e+01 2.105335000000000036e+03
6.800000000000000488e-02 1.630679999999999907e-01 5.478634999999999700e+00 4.704720000000000368e+01 2.106349999999999909e+03
6.900000000000000577e-02 1.632095000000000073e-01 7.360949999999999882e+00 5.178399999999999892e+01 2.107470000000000255e+03
7.000000000000000666e-02 1.633614999999999928e-01 9.337015000000000953e+00 5.669490000000000407e+01 2.108684999999999945e+03
7.100000000000000755e-02 1.635194999999999843e-01 1.135663500000000070e+01 6.165704999999999814e+01 2.109949999999999818e+03
7.200000000000000844e-02 1.636794999999999778e-01 1.337330499999999844e+01 6.656135000000000446e+01 2.111239999999999782e+03
7.300000000000000933e-02 1.638390000000000124e-01 1.534669999999999845e+01 7.131804999999999950e+01 2.112529999999999745e+03
7.399999999999999634e-02 1.639950000000000019e-01 1.724429999999999907e+01 7.586140000000000327e+01 2.113795000000000073e+03
7.499999999999999722e-02 1.641444999999999987e-01 1.904299999999999926e+01 8.015190000000001191e+01 2.115014999999999873e+03
7.599999999999999811e-02 1.642885000000000040e-01 2.072915000000000063e+01 8.417664999999999509e+01 2.116184999999999945e+03
7.699999999999999900e-02 1.644245000000000012e-01 2.229840000000000089e+01 8.794729999999999848e+01 2.117300000000000182e+03
7.799999999999999989e-02 1.645535000000000192e-01 2.375459999999999994e+01 9.149584999999999013e+01 2.118355000000000018e+03
7.900000000000000078e-02 1.646765000000000034e-01 2.510790000000000077e+01 9.486865000000000236e+01 2.119369999999999891e+03
8.000000000000000167e-02 1.647945000000000104e-01 2.637259999999999849e+01 9.811924999999999386e+01 2.120340000000000146e+03
8.100000000000000255e-02 1.649094999999999867e-01 2.756520000000000081e+01 1.013030499999999989e+02 2.121284999999999854e+03
8.200000000000000344e-02 1.650224999999999886e-01 2.870199999999999818e+01 1.044684000000000026e+02 2.122215000000000146e+03
8.300000000000000433e-02 1.651344999999999896e-01 2.979749999999999943e+01 1.076560000000000059e+02 2.123139999999999873e+03
8.400000000000000522e-02 1.652474999999999916e-01 3.086325000000000074e+01 1.108909999999999911e+02 2.124069999999999709e+03
8.500000000000000611e-02 1.653614999999999946e-01 3.190695000000000192e+01 1.141860000000000070e+02 2.125010000000000218e+03
8.600000000000000699e-02 1.654774999999999996e-01 3.293205000000000382e+01 1.175384999999999991e+02 2.125954999999999927e+03
8.700000000000000788e-02 1.655940000000000190e-01 3.393795000000000073e+01 1.209335000000000093e+02 2.126914999999999964e+03
8.800000000000000877e-02 1.657115000000000116e-01 3.492014999999999958e+01 1.243460000000000036e+02 2.127885000000000218e+03
8.899999999999999578e-02 1.658290000000000042e-01 3.587095000000000056e+01 1.277400000000000091e+02 2.128849999999999909e+03
8.999999999999999667e-02 1.659455000000000235e-01 3.678005000000000280e+01 1.310784999999999911e+02 2.129815000000000055e+03
9.099999999999999756e-02 1.660599999999999854e-01 3.763514999999999588e+01 1.343164999999999907e+02 2.130755000000000109e+03
9.199999999999999845e-02 1.661704999999999988e-01 3.842274999999999352e+01 1.374114999999999895e+02 2.131664999999999964e+03
9.299999999999999933e-02 1.662770000000000081e-01 3.912914999999999566e+01 1.403204999999999814e+02 2.132539999999999964e+03
9.400000000000000022e-02 1.663759999999999961e-01 3.974080000000000013e+01 1.430049999999999955e+02 2.133364999999999782e+03
9.500000000000000111e-02 1.664684999999999915e-01 4.024510000000000076e+01 1.454300000000000068e+02 2.134135000000000218e+03
9.600000000000000200e-02 1.665519999999999778e-01 4.063160000000000593e+01 1.475654999999999859e+02 2.134829999999999927e+03
9.700000000000000289e-02 1.666254999999999820e-01 4.089204999999999757e+01 1.493910000000000196e+02 2.135445000000000164e+03
9.800000000000000377e-02 1.666894999999999905e-01 4.102139999999999986e+01 1.508944999999999936e+02 2.135980000000000018e+03
9.900000000000000466e-02 1.667430000000000023e-01 4.101794999999999902e+01 1.520704999999999814e+02 2.136435000000000400e+03
1.000000000000000056e-01 1.667855000000000032e-01 4.088374999999999915e+01 1.529265000000000043e+02 2.136795000000000073e+03
1.010000000000000064e-01 1.668180000000000218e-01 4.062454999999999927e+01 1.534780000000000086e+02 2.137074999999999818e+03
1.020000000000000073e-01 1.668405000000000027e-01 4.024969999999999715e+01 1.537484999999999786e+02 2.137270000000000437e+03
1.030000000000000082e-01 1.668534999999999879e-01 3.977139999999999986e+01 1.537694999999999936e+02 2.137390000000000327e+03
1.040000000000000091e-01 1.668589999999999796e-01 3.920444999999999425e+01 1.535790000000000077e+02 2.137439999999999600e+03
1.050000000000000100e-01 1.668570000000000053e-01 3.856539999999999679e+01 1.532164999999999964e+02 2.137430000000000291e+03
1.059999999999999970e-01 1.668494999999999839e-01 3.787170000000000414e+01 1.527245000000000061e+02 2.137375000000000000e+03
1.069999999999999979e-01 1.668370000000000131e-01 3.714079999999999870e+01 1.521435000000000173e+02 2.137279999999999745e+03
1.079999999999999988e-01 1.668219999999999981e-01 3.638979999999999393e+01 1.515140000000000100e+02 2.137159999999999854e+03
1.089999999999999997e-01 1.668045000000000222e-01 3.563445000000000107e+01 1.508695000000000164e+02 2.137019999999999982e+03
1.100000000000000006e-01 1.667865000000000042e-01 3.488844999999999885e+01 1.502400000000000091e+02 2.136875000000000000e+03
1.110000000000000014e-01 1.667679999999999996e-01 3.416344999999999743e+01 1.496479999999999961e+02 2.136725000000000364e+03
1.120000000000000023e-01 1.667504999999999959e-01 3.346829999999999927e+01 1.491115000000000066e+02 2.136579999999999927e+03
1.130000000000000032e-01 1.667339999999999933e-01 3.280910000000000082e+01 1.486384999999999934e+02 2.136445000000000164e+03
1.140000000000000041e-01 1.667195000000000205e-01 3.218869999999999720e+01 1.482314999999999827e+02 2.136324999999999818e+03
1.150000000000000050e-01 1.667064999999999797e-01 3.160709999999999908e+01 1.478854999999999791e+02 2.136210000000000036e+03
1.160000000000000059e-01 1.666954999999999965e-01 3.106165000000000020e+01 1.475899999999999750e+02 2.136114999999999782e+03
1.170000000000000068e-01 1.666849999999999998e-01 3.054684999999999917e+01 1.473285000000000196e+02 2.136030000000000200e+03
1.180000000000000077e-01 1.666755000000000042e-01 3.005535000000000068e+01 1.470784999999999911e+02 2.135944999999999709e+03
1.190000000000000085e-01 1.666659999999999808e-01 2.957804999999999751e+01 1.468170000000000073e+02 2.135864999999999782e+03
1.200000000000000094e-01 1.666564999999999852e-01 2.910484999999999900e+01 1.465169999999999959e+02 2.135784999999999854e+03
1.209999999999999964e-01 1.666449999999999876e-01 2.862525000000000119e+01 1.461535000000000082e+02 2.135684999999999945e+03
1.219999999999999973e-01 1.666310000000000013e-01 2.812914999999999921e+01 1.457009999999999934e+02 2.135574999999999818e+03
1.229999999999999982e-01 1.666144999999999987e-01 2.760725000000000051e+01 1.451390000000000100e+02 2.135435000000000400e+03
1.239999999999999991e-01 1.665940000000000198e-01 2.705180000000000007e+01 1.444499999999999886e+02 2.135269999999999982e+03
1.250000000000000000e-01 1.665699999999999958e-01 2.645704999999999885e+01 1.436234999999999786e+02 2.135069999999999709e+03
1.260000000000000009e-01 1.665415000000000090e-01 2.581960000000000122e+01 1.426535000000000082e+02 2.134840000000000146e+03
1.270000000000000018e-01 1.665079999999999893e-01 2.513860000000000028e+01 1.415425000000000182e+02 2.134569999999999709e+03
1.280000000000000027e-01 1.664704999999999935e-01 2.441600000000000037e+01 1.402989999999999782e+02 2.134265000000000327e+03
1.290000000000000036e-01 1.664289999999999936e-01 2.365644999999999953e+01 1.389384999999999764e+02 2.133920000000000073e+03
1.300000000000000044e-01 1.663835000000000175e-01 2.286700000000000088e+01 1.374825000000000159e+02 2.133550000000000182e+03
1.310000000000000053e-01 1.663350000000000106e-01 2.205695000000000050e+01 1.359574999999999818e+02 2.133154999999999745e+03
1.320000000000000062e-01 1.662845000000000018e-01 2.123730000000000118e+01 1.343924999999999841e+02 2.132744999999999891e+03
1.330000000000000071e-01 1.662335000000000063e-01 2.042004999999999981e+01 1.328215000000000146e+02 2.132319999999999709e+03
1.340000000000000080e-01 1.661814999999999820e-01 1.961789999999999878e+01 1.312769999999999868e+02 2.131894999999999982e+03
1.350000000000000089e-01 1.661305000000000143e-01 1.884340000000000259e+01 1.297899999999999920e+02 2.131475000000000364e+03
1.360000000000000098e-01 1.660810000000000064e-01 1.810839999999999961e+01 1.283905000000000030e+02 2.131069999999999709e+03
1.370000000000000107e-01 1.660349999999999882e-01 1.742350000000000065e+01 1.271034999999999968e+02 2.130690000000000055e+03
1.380000000000000115e-01 1.659920000000000007e-01 1.679765000000000086e+01 1.259500000000000171e+02 2.130335000000000036e+03
1.390000000000000124e-01 1.659530000000000172e-01 1.623770000000000024e+01 1.249449999999999932e+02 2.130010000000000218e+03
1.400000000000000133e-01 1.659189999999999832e-01 1.574835000000000207e+01 1.240974999999999966e+02 2.129724999999999909e+03
1.410000000000000142e-01 1.658899999999999819e-01 1.533189999999999920e+01 1.234110000000000014e+02 2.129484999999999673e+03
1.420000000000000151e-01 1.658660000000000134e-01 1.498845000000000027e+01 1.228824999999999932e+02 2.129280000000000200e+03
1.430000000000000160e-01 1.658469999999999944e-01 1.471594999999999942e+01 1.225054999999999978e+02 2.129114999999999782e+03
1.440000000000000169e-01 1.658324999999999938e-01 1.451055000000000028e+01 1.222680000000000007e+02 2.128994999999999891e+03
1.450000000000000178e-01 1.658229999999999982e-01 1.436679999999999957e+01 1.221550000000000011e+02 2.128904999999999745e+03
1.459999999999999909e-01 1.658175000000000066e-01 1.427805000000000035e+01 1.221504999999999939e+02 2.128855000000000018e+03
1.469999999999999918e-01 1.658149999999999902e-01 1.423675000000000068e+01 1.222359999999999900e+02 2.128829999999999927e+03
1.479999999999999927e-01 1.658155000000000046e-01 1.423484999999999978e+01 1.223919999999999959e+02 2.128829999999999927e+03
1.489999999999999936e-01 1.658184999999999798e-01 1.426409999999999911e+01 1.225995000000000061e+02 2.128855000000000018e+03
1.499999999999999944e-01 1.658239999999999992e-01 1.431625000000000014e+01 1.228414999999999964e+02 2.128890000000000327e+03
1.509999999999999953e-01 1.658299999999999774e-01 1.438344999999999985e+01 1.231015000000000015e+02 2.128940000000000055e+03
1.519999999999999962e-01 1.658370000000000122e-01 1.445850000000000080e+01 1.233644999999999925e+02 2.128994999999999891e+03
1.529999999999999971e-01 1.658445000000000058e-01 1.453485000000000049e+01 1.236175000000000068e+02 2.129055000000000291e+03
1.539999999999999980e-01 1.658519999999999994e-01 1.460689999999999955e+01 1.238505000000000109e+02 2.129109999999999673e+03
1.549999999999999989e-01 1.658585000000000198e-01 1.467009999999999970e+01 1.240559999999999974e+02 2.129164999999999964e+03
1.559999999999999998e-01 1.658644999999999980e-01 1.472104999999999997e+01 1.242274999999999920e+02 2.129210000000000036e+03
1.570000000000000007e-01 1.658700000000000174e-01 1.475744999999999862e+01 1.243635000000000019e+02 2.129255000000000109e+03
1.580000000000000016e-01 1.658740000000000214e-01 1.477805000000000035e+01 1.244635000000000105e+02 2.129295000000000073e+03
1.590000000000000024e-01 1.658769999999999967e-01 1.478284999999999982e+01 1.245289999999999964e+02 2.129319999999999709e+03
