# t [s], A [cm^2], U [cm/s], P [cPa], c [cm/s]
1.000000000000000021e-03 1.594140000000000001e-01 3.767169999999999686e-01 9.424155000000000371e+01 1.891835000000000036e+03
2.000000000000000042e-03 1.593704999999999983e-01 2.017847999999999864e+00 9.096320000000000050e+01 1.891394999999999982e+03
3.000000000000000062e-03 1.592429999999999957e-01 4.005823999999999607e+00 8.655369999999999209e+01 1.890164999999999964e+03
4.000000000000000083e-03 1.590659999999999852e-01 6.216452999999999562e+00 8.181515000000000271e+01 1.888480000000000018e+03
5.000000000000000104e-03 1.588729999999999865e-01 8.581845000000001278e+00 7.759739999999999327e+01 1.886659999999999854e+03
6.000000000000000125e-03 1.586855000000000071e-01 1.093235500000000116e+01 7.417504999999999882e+01 1.884905000000000200e+03
7.000000000000000146e-03 1.585099999999999842e-01 1.305574000000000012e+01 7.130785000000000196e+01 1.883289999999999964e+03
8.000000000000000167e-03 1.583470000000000155e-01 1.485672499999999907e+01 6.873114999999999952e+01 1.881824999999999818e+03
9.000000000000001055e-03 1.582020000000000093e-01 1.637024999999999864e+01 6.645929999999999893e+01 1.880534999999999854e+03
1.000000000000000194e-02 1.580774999999999819e-01 1.763879999999999981e+01 6.457415000000000305e+01 1.879440000000000055e+03
1.099999999999999936e-02 1.579734999999999889e-01 1.867914999999999992e+01 6.306094999999999828e+01 1.878535000000000082e+03
1.200000000000000025e-02 1.578884999999999872e-01 1.951095000000000113e+01 6.187270000000000181e+01 1.877804999999999836e+03
1.300000000000000114e-02 1.578209999999999891e-01 2.015119999999999933e+01 6.095690000000000452e+01 1.877230000000000018e+03
1.400000000000000203e-02 1.577669999999999906e-01 2.060474999999999923e+01 6.022315000000000396e+01 1.876779999999999973e+03
1.499999999999999944e-02 1.577230000000000021e-01 2.089605000000000246e+01 5.959694999999999965e+01 1.876420000000000073e+03
1.600000000000000033e-02 1.576885000000000092e-01 2.110974999999999824e+01 5.914580000000000126e+01 1.876150000000000091e+03
1.700000000000000122e-02 1.576694999999999902e-01 2.138364999999999938e+01 5.912115000000000009e+01 1.876005000000000109e+03
1.800000000000000211e-02 1.576744999999999952e-01 2.184655000000000058e+01 5.983375000000000199e+01 1.876065000000000055e+03
1.900000000000000300e-02 1.577099999999999891e-01 2.254715000000000202e+01 6.144810000000000372e+01 1.876380000000000109e+03
2.000000000000000042e-02 1.577755000000000130e-01 2.342164999999999964e+01 6.383850000000000335e+01 1.876954999999999927e+03
2.100000000000000130e-02 1.578625000000000167e-01 2.431425000000000125e+01 6.659005000000000507e+01 1.877724999999999909e+03
2.200000000000000219e-02 1.579559999999999853e-01 2.503549999999999898e+01 6.913304999999999723e+01 1.878550000000000182e+03
2.299999999999999961e-02 1.580374999999999974e-01 2.542844999999999800e+01 7.093645000000000778e+01 1.879295000000000073e+03
2.400000000000000050e-02 1.580940000000000123e-01 2.541825000000000045e+01 7.167699999999999250e+01 1.879825000000000045e+03
2.500000000000000139e-02 1.581184999999999952e-01 2.502805000000000035e+01 7.132620000000000005e+01 1.880069999999999936e+03
2.600000000000000228e-02 1.581120000000000025e-01 2.436124999999999829e+01 7.012950000000000728e+01 1.880045000000000073e+03
2.700000000000000316e-02 1.580814999999999859e-01 2.355979999999999919e+01 6.849895000000000778e+01 1.879795000000000073e+03
2.800000000000000058e-02 1.580394999999999994e-01 2.275600000000000023e+01 6.686475000000000080e+01 1.879440000000000055e+03
2.900000000000000147e-02 1.579964999999999842e-01 2.203625000000000256e+01 6.554505000000000337e+01 1.879069999999999936e+03
3.000000000000000236e-02 1.579610000000000181e-01 2.142579999999999885e+01 6.467274999999999352e+01 1.878750000000000000e+03
3.099999999999999978e-02 1.579349999999999921e-01 2.089555000000000007e+01 6.419360000000000355e+01 1.878509999999999991e+03
3.200000000000000067e-02 1.579160000000000008e-01 2.038435000000000130e+01 6.392215000000000202e+01 1.878340000000000146e+03
3.300000000000000155e-02 1.578999999999999848e-01 1.982779999999999987e+01 6.362819999999999254e+01 1.878200000000000045e+03
3.400000000000000244e-02 1.578809999999999936e-01 1.918434999999999846e+01 6.312449999999999761e+01 1.878034999999999854e+03
3.500000000000000333e-02 1.578550000000000231e-01 1.845195000000000007e+01 6.233169999999999789e+01 1.877805000000000064e+03
3.600000000000000422e-02 1.578215000000000034e-01 1.767235000000000156e+01 6.130570000000000164e+01 1.877519999999999982e+03
3.700000000000000511e-02 1.577830000000000066e-01 1.692170000000000130e+01 6.022305000000000064e+01 1.877184999999999945e+03
3.799999999999999906e-02 1.577465000000000117e-01 1.629090000000000060e+01 5.932989999999999498e+01 1.876860000000000127e+03
3.899999999999999994e-02 1.577189999999999981e-01 1.586195000000000022e+01 5.887245000000000061e+01 1.876610000000000127e+03
4.000000000000000083e-02 1.577080000000000148e-01 1.568634999999999913e+01 5.902750000000000341e+01 1.876500000000000000e+03
4.100000000000000172e-02 1.577175000000000105e-01 1.577185000000000059e+01 5.985340000000000060e+01 1.876570000000000164e+03
4.200000000000000261e-02 1.577485000000000137e-01 1.607925000000000182e+01 6.127239999999999753e+01 1.876820000000000164e+03
4.300000000000000350e-02 1.577979999999999938e-01 1.653020000000000067e+01 6.308440000000000225e+01 1.877244999999999891e+03
4.400000000000000439e-02 1.578585000000000127e-01 1.702104999999999890e+01 6.500710000000000832e+01 1.877769999999999982e+03
4.499999999999999833e-02 1.579220000000000068e-01 1.744115000000000038e+01 6.672854999999999848e+01 1.878319999999999936e+03
4.599999999999999922e-02 1.579769999999999786e-01 1.768919999999999959e+01 6.796025000000000205e+01 1.878809999999999945e+03
4.700000000000000011e-02 1.580155000000000032e-01 1.768635000000000090e+01 6.848024999999999807e+01 1.879154999999999973e+03
4.800000000000000100e-02 1.580300000000000038e-01 1.738430000000000319e+01 6.815880000000001360e+01 1.879299999999999955e+03
4.900000000000000189e-02 1.580165000000000042e-01 1.676679999999999993e+01 6.696600000000000819e+01 1.879190000000000055e+03
5.000000000000000278e-02 1.579725000000000157e-01 1.584689999999999976e+01 6.496195000000000164e+01 1.878820000000000164e+03
5.100000000000000366e-02 1.579010000000000136e-01 1.466104999999999947e+01 6.227555000000000263e+01 1.878199999999999818e+03
5.200000000000000455e-02 1.578050000000000008e-01 1.326101000000000063e+01 5.907730000000000103e+01 1.877365000000000009e+03
5.300000000000000544e-02 1.576899999999999968e-01 1.170686500000000052e+01 5.555360000000000298e+01 1.876355000000000018e+03
5.399999999999999939e-02 1.575604999999999922e-01 1.006130999999999887e+01 5.188599999999999568e+01 1.875230000000000018e+03
5.500000000000000028e-02 1.574244999999999950e-01 8.385725000000000762e+00 4.823855000000000359e+01 1.874029999999999973e+03
5.600000000000000117e-02 1.572874999999999968e-01 6.738649999999999807e+00 4.475300000000000011e+01 1.872815000000000055e+03
5.700000000000000205e-02 1.571535000000000015e-01 5.175384999999999458e+00 4.154954999999999643e+01 1.871634999999999991e+03
5.800000000000000294e-02 1.570280000000000009e-01 3.748329099999999858e+00 3.873160000000000025e+01 1.870525000000000091e+03
5.900000000000000383e-02 1.569154999999999855e-01 2.507292000000000076e+00 3.639085000000000036e+01 1.869525000000000091e+03
6.000000000000000472e-02 1.568200000000000149e-01 1.499330000000000052e+00 3.461070000000000135e+01 1.868674999999999955e+03
6.099999999999999867e-02 1.567449999999999954e-01 7.677749999999999853e-01 3.346764999999999901e+01 1.868000000000000000e+03
6.199999999999999956e-02 1.566934999999999856e-01 3.505615000000000259e-01 3.302894999999999470e+01 1.867525000000000091e+03
6.300000000000000044e-02 1.566690000000000027e-01 2.779426500000000133e-01 3.334855000000000302e+01 1.867289999999999964e+03
6.400000000000000133e-02 1.566734999999999933e-01 5.702213000000000420e-01 3.446134999999999593e+01 1.867304999999999836e+03
6.500000000000000222e-02 1.567080000000000140e-01 1.235780249999999914e+00 3.637805000000000177e+01 1.867579999999999927e+03
6.600000000000000311e-02 1.567739999999999967e-01 2.269901500000000016e+00 3.908100000000000307e+01 1.868134999999999991e+03
6.700000000000000400e-02 1.568700000000000094e-01 3.654587999999999948e+00 4.252335000000000065e+01 1.868954999999999927e+03
6.800000000000000488e-02 1.569949999999999957e-01 5.359494999999999898e+00 4.663049999999999784e+01 1.870029999999999973e+03
6.900000000000000577e-02 1.571465000000000223e-01 7.343795000000000073e+00 5.130450000000000443e+01 1.871345000000000027e+03
7.000000000000000666e-02 1.573209999999999886e-01 9.558704999999999785e+00 5.643090000000000117e+01 1.872865000000000009e+03
7.100000000000000755e-02 1.575139999999999874e-01 1.195034500000000044e+01 6.188569999999999993e+01 1.874559999999999945e+03
7.200000000000000844e-02 1.577219999999999733e-01 1.446261499999999955e+01 6.754340000000000543e+01 1.876384999999999991e+03
7.300000000000000933e-02 1.579395000000000104e-01 1.703989999999999938e+01 7.328344999999998777e+01 1.878309999999999945e+03
7.399999999999999634e-02 1.581624999999999837e-01 1.962904999999999944e+01 7.899575000000000102e+01 1.880289999999999964e+03
7.499999999999999722e-02 1.583870000000000000e-01 2.218169999999999931e+01 8.458445000000000391e+01 1.882289999999999964e+03
7.599999999999999811e-02 1.586090000000000000e-01 2.465520000000000067e+01 8.997100000000000364e+01 1.884279999999999973e+03
7.699999999999999900e-02 1.588259999999999950e-01 2.701420000000000243e+01 9.509555000000000291e+01 1.886224999999999909e+03
7.799999999999999989e-02 1.590340000000000087e-01 2.923144999999999882e+01 9.991765000000000896e+01 1.888105000000000018e+03
7.900000000000000078e-02 1.592324999999999990e-01 3.128849999999999909e+01 1.044179499999999905e+02 1.889904999999999973e+03
8.000000000000000167e-02 1.594210000000000071e-01 3.317559999999999576e+01 1.085949999999999989e+02 1.891610000000000127e+03
8.100000000000000255e-02 1.595975000000000033e-01 3.489199999999999591e+01 1.124664999999999964e+02 1.893220000000000027e+03
8.200000000000000344e-02 1.597635000000000027e-01 3.644494999999999862e+01 1.160660000000000025e+02 1.894744999999999891e+03
8.300000000000000433e-02 1.599194999999999922e-01 3.784900000000000375e+01 1.194410000000000025e+02 1.896174999999999955e+03
8.400000000000000522e-02 1.600674999999999737e-01 3.912409999999999854e+01 1.226469999999999914e+02 1.897534999999999854e+03
8.500000000000000611e-02 1.602089999999999903e-01 4.029390000000000072e+01 1.257454999999999927e+02 1.898839999999999918e+03
8.600000000000000699e-02 1.603465000000000029e-01 4.138384999999999536e+01 1.287969999999999970e+02 1.900099999999999909e+03
8.700000000000000788e-02 1.604809999999999848e-01 4.241895000000000238e+01 1.318575000000000159e+02 1.901340000000000146e+03
8.800000000000000877e-02 1.606154999999999944e-01 4.342190000000000083e+01 1.349735000000000014e+02 1.902579999999999927e+03
8.899999999999999578e-02 1.607509999999999772e-01 4.441140000000000043e+01 1.381790000000000020e+02 1.903829999999999927e+03
8.999999999999999667e-02 1.608894999999999909e-01 4.540104999999999791e+01 1.414945000000000164e+02 1.905099999999999909e+03
9.099999999999999756e-02 1.610305000000000208e-01 4.639820000000000277e+01 1.449219999999999970e+02 1.906404999999999973e+03
9.199999999999999845e-02 1.611754999999999993e-01 4.740394999999999470e+01 1.484490000000000123e+02 1.907734999999999900e+03
9.299999999999999933e-02 1.613235000000000086e-01 4.841325000000000500e+01 1.520475000000000136e+02 1.909090000000000146e+03
9.400000000000000022e-02 1.614729999999999777e-01 4.941525000000000034e+01 1.556770000000000209e+02 1.910470000000000027e+03
9.500000000000000111e-02 1.616235000000000033e-01 5.039444999999999908e+01 1.592875000000000227e+02 1.911855000000000018e+03
9.600000000000000200e-02 1.617730000000000001e-01 5.133185000000000286e+01 1.628220000000000027e+02 1.913235000000000127e+03
9.700000000000000289e-02 1.619194999999999940e-01 5.220624999999999716e+01 1.662219999999999800e+02 1.914590000000000146e+03
9.800000000000000377e-02 1.620599999999999818e-01 5.299544999999999817e+01 1.694284999999999854e+02 1.915894999999999982e+03
9.900000000000000466e-02 1.621934999999999905e-01 5.367784999999999940e+01 1.723865000000000123e+02 1.917130000000000109e+03
1.000000000000000056e-01 1.623175000000000034e-01 5.423335000000000150e+01 1.750469999999999970e+02 1.918285000000000082e+03
1.010000000000000064e-01 1.624304999999999777e-01 5.464454999999999529e+01 1.773695000000000164e+02 1.919345000000000027e+03
1.020000000000000073e-01 1.625305000000000222e-01 5.489770000000000039e+01 1.793249999999999886e+02 1.920280000000000200e+03
1.030000000000000082e-01 1.626164999999999972e-01 5.498319999999999652e+01 1.808935000000000173e+02 1.921089999999999918e+03
1.040000000000000091e-01 1.626879999999999993e-01 5.489584999999999582e+01 1.820670000000000073e+02 1.921769999999999982e+03
1.050000000000000100e-01 1.627445000000000142e-01 5.463569999999999993e+01 1.828494999999999777e+02 1.922305000000000064e+03
1.059999999999999970e-01 1.627850000000000130e-01 5.420705000000000240e+01 1.832545000000000073e+02 1.922699999999999818e+03
1.069999999999999979e-01 1.628120000000000123e-01 5.361920000000000641e+01 1.833054999999999950e+02 1.922965000000000146e+03
1.079999999999999988e-01 1.628240000000000243e-01 5.288530000000000086e+01 1.830360000000000014e+02 1.923094999999999800e+03
1.089999999999999997e-01 1.628239999999999965e-01 5.202214999999999634e+01 1.824834999999999923e+02 1.923105000000000018e+03
1.100000000000000006e-01 1.628114999999999979e-01 5.104919999999999902e+01 1.816940000000000168e+02 1.923005000000000109e+03
1.110000000000000014e-01 1.627895000000000036e-01 4.998810000000000286e+01 1.807130000000000223e+02 1.922815000000000055e+03
1.120000000000000023e-01 1.627595000000000014e-01 4.886149999999999949e+01 1.795905000000000200e+02 1.922550000000000182e+03
1.130000000000000032e-01 1.627230000000000065e-01 4.769234999999999758e+01 1.783735000000000070e+02 1.922215000000000146e+03
1.140000000000000041e-01 1.626815000000000067e-01 4.650294999999999845e+01 1.771075000000000159e+02 1.921840000000000146e+03
1.150000000000000050e-01 1.626370000000000038e-01 4.531425000000000125e+01 1.758354999999999961e+02 1.921434999999999945e+03
1.160000000000000059e-01 1.625909999999999855e-01 4.414529999999999887e+01 1.745925000000000011e+02 1.921014999999999873e+03
1.170000000000000068e-01 1.625459999999999960e-01 4.301234999999999786e+01 1.734099999999999966e+02 1.920590000000000146e+03
1.180000000000000077e-01 1.625015000000000209e-01 4.192865000000000464e+01 1.723109999999999786e+02 1.920180000000000064e+03
1.190000000000000085e-01 1.624590000000000201e-01 4.090404999999999802e+01 1.713110000000000070e+02 1.919784999999999854e+03
1.200000000000000094e-01 1.624200000000000088e-01 3.994489999999999696e+01 1.704194999999999993e+02 1.919420000000000073e+03
1.209999999999999964e-01 1.623840000000000006e-01 3.905384999999999707e+01 1.696365000000000123e+02 1.919079999999999927e+03
1.219999999999999973e-01 1.623514999999999819e-01 3.823019999999999641e+01 1.689560000000000173e+02 1.918775000000000091e+03
1.229999999999999982e-01 1.623225000000000084e-01 3.746994999999999720e+01 1.683659999999999854e+02 1.918500000000000000e+03
1.239999999999999991e-01 1.622965000000000102e-01 3.676624999999999943e+01 1.678474999999999966e+02 1.918250000000000000e+03
1.250000000000000000e-01 1.622735000000000150e-01 3.610974999999999824e+01 1.673779999999999859e+02 1.918029999999999973e+03
1.260000000000000009e-01 1.622514999999999930e-01 3.548935000000000173e+01 1.669329999999999927e+02 1.917820000000000164e+03
1.270000000000000018e-01 1.622304999999999997e-01 3.489274999999999949e+01 1.664830000000000041e+02 1.917619999999999891e+03
1.280000000000000027e-01 1.622095000000000065e-01 3.430684999999999718e+01 1.660014999999999930e+02 1.917420000000000073e+03
1.290000000000000036e-01 1.621874999999999845e-01 3.371869999999999834e+01 1.654610000000000127e+02 1.917215000000000146e+03
1.300000000000000044e-01 1.621635000000000160e-01 3.311585000000000178e+01 1.648365000000000009e+02 1.916985000000000127e+03
1.310000000000000053e-01 1.621365000000000167e-01 3.248725000000000307e+01 1.641059999999999945e+02 1.916735000000000127e+03
1.320000000000000062e-01 1.621055000000000135e-01 3.182339999999999947e+01 1.632535000000000025e+02 1.916449999999999818e+03
1.330000000000000071e-01 1.620699999999999918e-01 3.111715000000000231e+01 1.622660000000000196e+02 1.916125000000000000e+03
1.340000000000000080e-01 1.620294999999999930e-01 3.036369999999999791e+01 1.611374999999999886e+02 1.915750000000000000e+03
1.350000000000000089e-01 1.619839999999999891e-01 2.956094999999999828e+01 1.598685000000000116e+02 1.915329999999999927e+03
1.360000000000000098e-01 1.619335000000000080e-01 2.870974999999999966e+01 1.584650000000000034e+02 1.914864999999999782e+03
1.370000000000000107e-01 1.618775000000000075e-01 2.781349999999999767e+01 1.569395000000000095e+02 1.914355000000000018e+03
1.380000000000000115e-01 1.618175000000000030e-01 2.687845000000000084e+01 1.553089999999999975e+02 1.913800000000000182e+03
1.390000000000000124e-01 1.617530000000000079e-01 2.591295000000000215e+01 1.535964999999999918e+02 1.913210000000000036e+03
1.400000000000000133e-01 1.616850000000000231e-01 2.492750000000000199e+01 1.518285000000000196e+02 1.912590000000000146e+03
1.410000000000000142e-01 1.616150000000000087e-01 2.393390000000000128e+01 1.500320000000000107e+02 1.911945000000000164e+03
1.420000000000000151e-01 1.615435000000000065e-01 2.294500000000000028e+01 1.482384999999999877e+02 1.911295000000000073e+03
1.430000000000000160e-01 1.614720000000000044e-01 2.197395000000000209e+01 1.464769999999999754e+02 1.910634999999999991e+03
1.440000000000000169e-01 1.614010000000000167e-01 2.103395000000000081e+01 1.447775000000000034e+02 1.909985000000000127e+03
1.450000000000000178e-01 1.613324999999999898e-01 2.013735000000000142e+01 1.431664999999999850e+02 1.909355000000000018e+03
1.459999999999999909e-01 1.612669999999999937e-01 1.929520000000000124e+01 1.416675000000000182e+02 1.908750000000000000e+03
1.469999999999999918e-01 1.612055000000000016e-01 1.851729999999999876e+01 1.402990000000000066e+02 1.908174999999999955e+03
1.479999999999999927e-01 1.611480000000000135e-01 1.781119999999999948e+01 1.390774999999999864e+02 1.907650000000000091e+03
1.489999999999999936e-01 1.610965000000000036e-01 1.718250000000000099e+01 1.380115000000000123e+02 1.907170000000000073e+03
1.499999999999999944e-01 1.610504999999999853e-01 1.663449999999999918e+01 1.371064999999999827e+02 1.906740000000000009e+03
1.509999999999999953e-01 1.610099999999999865e-01 1.616810000000000258e+01 1.363615000000000066e+02 1.906369999999999891e+03
1.519999999999999962e-01 1.609764999999999946e-01 1.578209999999999980e+01 1.357710000000000150e+02 1.906049999999999955e+03
1.529999999999999971e-01 1.609484999999999943e-01 1.547309999999999874e+01 1.353265000000000100e+02 1.905785000000000082e+03
1.539999999999999980e-01 1.609260000000000135e-01 1.523594999999999899e+01 1.350144999999999982e+02 1.905574999999999818e+03
1.549999999999999989e-01 1.609089999999999965e-01 1.506400000000000006e+01 1.348195000000000050e+02 1.905409999999999854e+03
1.559999999999999998e-01 1.608964999999999979e-01 1.494930000000000092e+01 1.347235000000000014e+02 1.905289999999999964e+03
1.570000000000000007e-01 1.608880000000000032e-01 1.488299999999999912e+01 1.347079999999999984e+02 1.905204999999999927e+03
1.580000000000000016e-01 1.608829999999999982e-01 1.485585000000000022e+01 1.347520000000000095e+02 1.905154999999999973e+03
1.590000000000000024e-01 1.608809999999999962e-01 1.485834999999999972e+01 1.348369999999999891e+02 1.905125000000000000e+03
