# t [s], A [cm^2], U [cm/s], P [cPa], c [cm/s]
1.000000000000000021e-03 6.001279999999999948e-01 4.027650000000000674e-03 9.905885000000000673e+01 1.502619999999999891e+03
2.000000000000000042e-03 6.001190000000000691e-01 -5.959399999999998813e-04 9.903430000000000177e+01 1.502614999999999782e+03
3.000000000000000062e-03 6.001754999999999729e-01 9.850725000000001841e-02 9.912954999999999472e+01 1.502640000000000100e+03
4.000000000000000083e-03 6.002254999999999674e-01 1.947485949999999966e-01 9.923999999999999488e+01 1.502674999999999955e+03
5.000000000000000104e-03 6.001999999999999558e-01 1.687461050000000073e-01 9.918549999999999045e+01 1.502664999999999964e+03
6.000000000000000125e-03 6.001294999999999824e-01 6.132349999999997525e-02 9.896694999999999709e+01 1.502610000000000127e+03
7.000000000000000146e-03 6.000624999999999432e-01 -4.888199999999998102e-02 9.867400000000000659e+01 1.502534999999999854e+03
8.000000000000000167e-03 5.999619999999999953e-01 -2.281950000000000367e-01 9.824750000000000227e+01 1.502420000000000073e+03
9.000000000000001055e-03 5.997965000000000657e-01 -5.361449999999998717e-01 9.759680000000000177e+01 1.502250000000000000e+03
1.000000000000000194e-02 5.995660000000000434e-01 -9.647899999999999254e-01 9.669075000000000841e+01 1.502005000000000109e+03
1.099999999999999936e-02 5.992589999999999861e-01 -1.520614999999999828e+00 9.548679999999998813e+01 1.501679999999999836e+03
1.200000000000000025e-02 5.988569999999999727e-01 -2.220134999999999970e+00 9.392664999999999509e+01 1.501250000000000000e+03
1.300000000000000114e-02 5.983700000000000685e-01 -3.019010000000000193e+00 9.202045000000001096e+01 1.500715000000000146e+03
1.400000000000000203e-02 5.978559999999999430e-01 -3.785804999999999865e+00 8.990224999999999511e+01 1.500099999999999909e+03
1.499999999999999944e-02 5.973905000000000465e-01 -4.354626999999999803e+00 8.778974999999999795e+01 1.499460000000000036e+03
1.600000000000000033e-02 5.970235000000000403e-01 -4.601888899999999616e+00 8.588939999999999486e+01 1.498855000000000018e+03
1.700000000000000122e-02 5.967649999999999899e-01 -4.490078499999999195e+00 8.431855000000000189e+01 1.498320000000000164e+03
1.800000000000000211e-02 5.965849999999999209e-01 -4.067294500000000035e+00 8.307800000000000296e+01 1.497855000000000018e+03
1.900000000000000300e-02 5.964340000000000197e-01 -3.437948000000000004e+00 8.206940000000000168e+01 1.497454999999999927e+03
2.000000000000000042e-02 5.962585000000000246e-01 -2.722204000000000068e+00 8.114069999999999538e+01 1.497074999999999818e+03
2.100000000000000130e-02 5.960199999999999942e-01 -2.017254999999999576e+00 8.014140000000000441e+01 1.496684999999999945e+03
2.200000000000000219e-02 5.957059999999999578e-01 -1.371630000000000127e+00 7.897110000000000696e+01 1.496255000000000109e+03
2.299999999999999961e-02 5.953300000000000258e-01 -7.807349999999999568e-01 7.760360000000000014e+01 1.495780000000000200e+03
2.400000000000000050e-02 5.949189999999999756e-01 -2.038850000000000939e-01 7.607999999999999829e+01 1.495259999999999991e+03
2.500000000000000139e-02 5.945044999999999913e-01 4.070350000000000357e-01 7.447780000000000200e+01 1.494715000000000146e+03
2.600000000000000228e-02 5.941045000000000353e-01 1.080554999999999932e+00 7.287209999999998900e+01 1.494164999999999964e+03
2.700000000000000316e-02 5.937235000000000706e-01 1.809635000000000105e+00 7.130419999999999447e+01 1.493610000000000127e+03
2.800000000000000058e-02 5.933464999999999989e-01 2.549199999999999910e+00 6.976564999999999372e+01 1.493065000000000055e+03
2.900000000000000147e-02 5.929474999999999607e-01 3.225184999999999746e+00 6.819899999999999807e+01 1.492515000000000100e+03
3.000000000000000236e-02 5.924945000000000350e-01 3.750989999999999824e+00 6.651274999999999693e+01 1.491934999999999945e+03
3.099999999999999978e-02 5.919609999999999594e-01 4.047299999999999898e+00 6.460564999999999714e+01 1.491300000000000182e+03
3.200000000000000067e-02 5.913289999999999935e-01 4.060529999999999973e+00 6.239499999999999602e+01 1.490589999999999918e+03
3.300000000000000155e-02 5.905994999999999440e-01 3.776155000000000150e+00 5.984174999999999756e+01 1.489789999999999964e+03
3.400000000000000244e-02 5.897890000000000077e-01 3.222875000000000156e+00 5.696600000000000108e+01 1.488894999999999982e+03
3.500000000000000333e-02 5.889320000000000110e-01 2.467409999999999215e+00 5.384890000000000043e+01 1.487940000000000055e+03
3.600000000000000422e-02 5.880710000000000104e-01 1.601340000000000430e+00 5.062154999999999916e+01 1.486940000000000055e+03
3.700000000000000511e-02 5.872505000000000086e-01 7.254399999999998627e-01 4.744514999999999816e+01 1.485945000000000164e+03
3.799999999999999906e-02 5.865135000000000209e-01 -6.508499999999983743e-02 4.448820000000000618e+01 1.484994999999999891e+03
3.899999999999999994e-02 5.858929999999999971e-01 -6.912599999999997635e-01 4.190590000000000259e+01 1.484139999999999873e+03
4.000000000000000083e-02 5.854125000000000023e-01 -1.095965000000000078e+00 3.982469999999999999e+01 1.483414999999999964e+03
4.100000000000000172e-02 5.850865000000000649e-01 -1.244795000000000318e+00 3.833395000000000152e+01 1.482855000000000018e+03
4.200000000000000261e-02 5.849189999999999667e-01 -1.123299999999999965e+00 3.748335000000000150e+01 1.482480000000000018e+03
4.300000000000000350e-02 5.849070000000000658e-01 -7.320284999999999709e-01 3.728669999999999618e+01 1.482300000000000182e+03
4.400000000000000439e-02 5.850440000000000085e-01 -8.076499999999997570e-02 3.772910000000000252e+01 1.482319999999999936e+03
4.499999999999999833e-02 5.853199999999999514e-01 8.164550000000001528e-01 3.877570000000000050e+01 1.482529999999999973e+03
4.599999999999999922e-02 5.857229999999999936e-01 1.944760000000000044e+00 4.038065000000000282e+01 1.482920000000000073e+03
4.700000000000000011e-02 5.862445000000000572e-01 3.289665000000000283e+00 4.249285000000000423e+01 1.483480000000000018e+03
4.800000000000000100e-02 5.868714999999999904e-01 4.836330000000000240e+00 4.505984999999999729e+01 1.484195000000000164e+03
4.900000000000000189e-02 5.875939999999999497e-01 6.567724999999999369e+00 4.802814999999999657e+01 1.485045000000000073e+03
5.000000000000000278e-02 5.883985000000000465e-01 8.462426499999999407e+00 5.134255000000000280e+01 1.486014999999999873e+03
5.100000000000000366e-02 5.892705000000000304e-01 1.049312749999999994e+01 5.494419999999999504e+01 1.487095000000000027e+03
5.200000000000000455e-02 5.901939999999999964e-01 1.262646499999999961e+01 5.877009999999999934e+01 1.488259999999999991e+03
5.300000000000000544e-02 5.911520000000000108e-01 1.482393000000000072e+01 6.275300000000000011e+01 1.489480000000000018e+03
5.399999999999999939e-02 5.921270000000000699e-01 1.704410000000000025e+01 6.682370000000000232e+01 1.490755000000000109e+03
5.500000000000000028e-02 5.931005000000000305e-01 1.924515999999999849e+01 7.091334999999999411e+01 1.492050000000000182e+03
5.600000000000000117e-02 5.940585000000000448e-01 2.138810000000000144e+01 7.495785000000000764e+01 1.493344999999999800e+03
5.700000000000000205e-02 5.949879999999999614e-01 2.343885000000000218e+01 7.890080000000000382e+01 1.494630000000000109e+03
5.800000000000000294e-02 5.958790000000000475e-01 2.537055000000000149e+01 8.269720000000000937e+01 1.495884999999999991e+03
5.900000000000000383e-02 5.967264999999999375e-01 2.716394999999999982e+01 8.631515000000000271e+01 1.497095000000000027e+03
6.000000000000000472e-02 5.975280000000000591e-01 2.880830000000000268e+01 8.973615000000000919e+01 1.498259999999999991e+03
6.099999999999999867e-02 5.982849999999999557e-01 3.030019999999999669e+01 9.295730000000000359e+01 1.499365000000000009e+03
6.199999999999999956e-02 5.989999999999999769e-01 3.164274999999999949e+01 9.598505000000000109e+01 1.500414999999999964e+03
6.300000000000000044e-02 5.996785000000000032e-01 3.284420000000000073e+01 9.883834999999999127e+01 1.501414999999999964e+03
6.400000000000000133e-02 6.003275000000000139e-01 3.391689999999999827e+01 1.015427499999999981e+02 1.502369999999999891e+03
6.500000000000000222e-02 6.009545000000000581e-01 3.487570000000000192e+01 1.041286000000000058e+02 1.503284999999999854e+03
6.600000000000000311e-02 6.015679999999999916e-01 3.573704999999999643e+01 1.066290000000000049e+02 1.504174999999999955e+03
6.700000000000000400e-02 6.021739999999999871e-01 3.651834999999999809e+01 1.090780000000000030e+02 1.505045000000000073e+03
6.800000000000000488e-02 6.027804999999999414e-01 3.723675000000000068e+01 1.115084999999999980e+02 1.505894999999999982e+03
6.900000000000000577e-02 6.033939999999999859e-01 3.790859999999999985e+01 1.139474999999999909e+02 1.506750000000000000e+03
7.000000000000000666e-02 6.040200000000000014e-01 3.854860000000000042e+01 1.164205000000000041e+02 1.507610000000000127e+03
7.100000000000000755e-02 6.046605000000000452e-01 3.916864999999999952e+01 1.189454999999999956e+02 1.508480000000000018e+03
7.200000000000000844e-02 6.053180000000000227e-01 3.977740000000000009e+01 1.215310000000000059e+02 1.509369999999999891e+03
7.300000000000000933e-02 6.059924999999999340e-01 4.037935000000000230e+01 1.241814999999999998e+02 1.510275000000000091e+03
7.399999999999999634e-02 6.066799999999999971e-01 4.097464999999999691e+01 1.268884999999999934e+02 1.511200000000000045e+03
7.499999999999999722e-02 6.073759999999999160e-01 4.155884999999999962e+01 1.296359999999999957e+02 1.512130000000000109e+03
7.599999999999999811e-02 6.080745000000000733e-01 4.212340000000000373e+01 1.323999999999999773e+02 1.513069999999999936e+03
7.699999999999999900e-02 6.087664999999999882e-01 4.265614999999999668e+01 1.351505000000000223e+02 1.514005000000000109e+03
7.799999999999999989e-02 6.094429999999999570e-01 4.314244999999999663e+01 1.378499999999999943e+02 1.514929999999999836e+03
7.900000000000000078e-02 6.100940000000000252e-01 4.356615000000000038e+01 1.404600000000000080e+02 1.515829999999999927e+03
8.000000000000000167e-02 6.107100000000000861e-01 4.391070000000000562e+01 1.429404999999999859e+02 1.516694999999999936e+03
8.100000000000000255e-02 6.112824999999999509e-01 4.416069999999999851e+01 1.452529999999999859e+02 1.517509999999999991e+03
8.200000000000000344e-02 6.118025000000000269e-01 4.430225000000000080e+01 1.473639999999999759e+02 1.518265000000000100e+03
8.300000000000000433e-02 6.122650000000000592e-01 4.432439999999999714e+01 1.492445000000000164e+02 1.518949999999999818e+03
8.400000000000000522e-02 6.126650000000000151e-01 4.421925000000000239e+01 1.508725000000000023e+02 1.519559999999999945e+03
8.500000000000000611e-02 6.129994999999999195e-01 4.398279999999999745e+01 1.522340000000000089e+02 1.520085000000000036e+03
8.600000000000000699e-02 6.132684999999999942e-01 4.361469999999999914e+01 1.533240000000000123e+02 1.520519999999999982e+03
8.700000000000000788e-02 6.134729999999999350e-01 4.311849999999999739e+01 1.541440000000000055e+02 1.520869999999999891e+03
8.800000000000000877e-02 6.136155000000000914e-01 4.250124999999999886e+01 1.547055000000000007e+02 1.521134999999999991e+03
8.899999999999999578e-02 6.137019999999999698e-01 4.177339999999999520e+01 1.550249999999999773e+02 1.521320000000000164e+03
8.999999999999999667e-02 6.137375000000000469e-01 4.094800000000000040e+01 1.551259999999999764e+02 1.521424999999999955e+03
9.099999999999999756e-02 6.137289999999999690e-01 4.004044999999999987e+01 1.550369999999999777e+02 1.521464999999999918e+03
9.199999999999999845e-02 6.136840000000000073e-01 3.906775000000000375e+01 1.547880000000000109e+02 1.521444999999999936e+03
9.299999999999999933e-02 6.136099999999999888e-01 3.804789999999999850e+01 1.544134999999999991e+02 1.521380000000000109e+03
9.400000000000000022e-02 6.135165000000000202e-01 3.699915000000000020e+01 1.539474999999999909e+02 1.521269999999999982e+03
9.500000000000000111e-02 6.134094999999999409e-01 3.593945000000000078e+01 1.534230000000000018e+02 1.521134999999999991e+03
9.600000000000000200e-02 6.132980000000000098e-01 3.488569999999999993e+01 1.528709999999999809e+02 1.520984999999999900e+03
9.700000000000000289e-02 6.131870000000000376e-01 3.385314999999999941e+01 1.523205000000000098e+02 1.520825000000000045e+03
9.800000000000000377e-02 6.130830000000000446e-01 3.285495000000000232e+01 1.517950000000000159e+02 1.520660000000000082e+03
9.900000000000000466e-02 6.129890000000000061e-01 3.190159999999999840e+01 1.513145000000000095e+02 1.520509999999999991e+03
1.000000000000000056e-01 6.129089999999999261e-01 3.100079999999999814e+01 1.508930000000000007e+02 1.520369999999999891e+03
1.010000000000000064e-01 6.128435000000000965e-01 3.015715000000000146e+01 1.505384999999999991e+02 1.520244999999999891e+03
1.020000000000000073e-01 6.127940000000000609e-01 2.937235000000000085e+01 1.502540000000000191e+02 1.520139999999999873e+03
1.030000000000000082e-01 6.127584999999999837e-01 2.864485000000000170e+01 1.500374999999999943e+02 1.520059999999999945e+03
1.040000000000000091e-01 6.127350000000000296e-01 2.797080000000000055e+01 1.498814999999999884e+02 1.519990000000000009e+03
1.050000000000000100e-01 6.127209999999999601e-01 2.734369999999999834e+01 1.497744999999999891e+02 1.519940000000000055e+03
1.059999999999999970e-01 6.127124999999999932e-01 2.675529999999999831e+01 1.497015000000000100e+02 1.519894999999999982e+03
1.069999999999999979e-01 6.127050000000000551e-01 2.619599999999999795e+01 1.496455000000000268e+02 1.519860000000000127e+03
1.079999999999999988e-01 6.126939999999999609e-01 2.565520000000000067e+01 1.495875000000000057e+02 1.519835000000000036e+03
1.089999999999999997e-01 6.126754999999999285e-01 2.512205000000000155e+01 1.495079999999999814e+02 1.519800000000000182e+03
1.100000000000000006e-01 6.126445000000000363e-01 2.458585000000000065e+01 1.493890000000000100e+02 1.519750000000000000e+03
1.110000000000000014e-01 6.125979999999999759e-01 2.403654999999999831e+01 1.492119999999999891e+02 1.519684999999999945e+03
1.120000000000000023e-01 6.125315000000000065e-01 2.346535000000000082e+01 1.489630000000000223e+02 1.519610000000000127e+03
1.130000000000000032e-01 6.124429999999999596e-01 2.286485000000000056e+01 1.486299999999999955e+02 1.519500000000000000e+03
1.140000000000000041e-01 6.123309999999999587e-01 2.222959999999999781e+01 1.482030000000000030e+02 1.519369999999999891e+03
1.150000000000000050e-01 6.121950000000000447e-01 2.155630000000000024e+01 1.476784999999999854e+02 1.519210000000000036e+03
1.160000000000000059e-01 6.120349999999999957e-01 2.084369999999999834e+01 1.470550000000000068e+02 1.519014999999999873e+03
1.170000000000000068e-01 6.118520000000000625e-01 2.009309999999999974e+01 1.463365000000000009e+02 1.518795000000000073e+03
1.180000000000000077e-01 6.116485000000000394e-01 1.930780000000000030e+01 1.455300000000000011e+02 1.518539999999999964e+03
1.190000000000000085e-01 6.114269999999999428e-01 1.849340000000000117e+01 1.446465000000000032e+02 1.518264999999999873e+03
1.200000000000000094e-01 6.111929999999999863e-01 1.765719999999999956e+01 1.437009999999999934e+02 1.517965000000000146e+03
1.209999999999999964e-01 6.109489999999999643e-01 1.680809999999999960e+01 1.427094999999999914e+02 1.517650000000000091e+03
1.219999999999999973e-01 6.107004999999999795e-01 1.595629999999999882e+01 1.416920000000000073e+02 1.517325000000000045e+03
1.229999999999999982e-01 6.104519999999999946e-01 1.511257499999999965e+01 1.406680000000000064e+02 1.516989999999999782e+03
1.239999999999999991e-01 6.102095000000000713e-01 1.428802500000000109e+01 1.396569999999999823e+02 1.516659999999999854e+03
1.250000000000000000e-01 6.099764999999999215e-01 1.349373500000000092e+01 1.386804999999999950e+02 1.516335000000000036e+03
1.260000000000000009e-01 6.097580000000000222e-01 1.273996999999999957e+01 1.377564999999999884e+02 1.516019999999999982e+03
1.270000000000000018e-01 6.095574999999999743e-01 1.203613000000000000e+01 1.369010000000000105e+02 1.515730000000000018e+03
1.280000000000000027e-01 6.093779999999999752e-01 1.139016499999999965e+01 1.361290000000000191e+02 1.515454999999999927e+03
1.290000000000000036e-01 6.092219999999999303e-01 1.080839999999999890e+01 1.354505000000000052e+02 1.515215000000000146e+03
1.300000000000000044e-01 6.090910000000000490e-01 1.029514999999999958e+01 1.348729999999999905e+02 1.515000000000000000e+03
1.310000000000000053e-01 6.089854999999999574e-01 9.852830000000000865e+00 1.344000000000000057e+02 1.514815000000000055e+03
1.320000000000000062e-01 6.089044999999999597e-01 9.481865000000000876e+00 1.340320000000000107e+02 1.514670000000000073e+03
1.330000000000000071e-01 6.088474999999999859e-01 9.180574999999999264e+00 1.337649999999999864e+02 1.514549999999999955e+03
1.340000000000000080e-01 6.088120000000000198e-01 8.945619999999999905e+00 1.335930000000000177e+02 1.514465000000000146e+03
1.350000000000000089e-01 6.087960000000000038e-01 8.772040000000000504e+00 1.335060000000000002e+02 1.514404999999999973e+03
1.360000000000000098e-01 6.087970000000000326e-01 8.653475000000000250e+00 1.334925000000000068e+02 1.514375000000000000e+03
1.370000000000000107e-01 6.088104999999999212e-01 8.582754999999998802e+00 1.335394999999999754e+02 1.514365000000000009e+03
1.380000000000000115e-01 6.088339999999999863e-01 8.551830000000000709e+00 1.336334999999999980e+02 1.514369999999999891e+03
1.390000000000000124e-01 6.088639999999999608e-01 8.552369999999999806e+00 1.337595000000000027e+02 1.514389999999999873e+03
1.400000000000000133e-01 6.088959999999999928e-01 8.575994999999998925e+00 1.339035000000000082e+02 1.514420000000000073e+03
1.410000000000000142e-01 6.089284999999999837e-01 8.614535000000000053e+00 1.340520000000000209e+02 1.514449999999999818e+03
1.420000000000000151e-01 6.089584999999999582e-01 8.660299999999999443e+00 1.341929999999999836e+02 1.514485000000000127e+03
1.430000000000000160e-01 6.089819999999999123e-01 8.706284999999999386e+00 1.343160000000000025e+02 1.514519999999999982e+03
1.440000000000000169e-01 6.089994999999999159e-01 8.746344999999999814e+00 1.344119999999999777e+02 1.514545000000000073e+03
1.450000000000000178e-01 6.090079999999999938e-01 8.775285000000000224e+00 1.344749999999999943e+02 1.514565000000000055e+03
1.459999999999999909e-01 6.090065000000000062e-01 8.788990000000000080e+00 1.344984999999999786e+02 1.514569999999999936e+03
1.469999999999999918e-01 6.089955000000000229e-01 8.784320000000001016e+00 1.344809999999999945e+02 1.514569999999999936e+03
1.479999999999999927e-01 6.089744999999999742e-01 8.759380000000000166e+00 1.344209999999999923e+02 1.514555000000000064e+03
1.489999999999999936e-01 6.089439999999999298e-01 8.713205000000000311e+00 1.343195000000000050e+02 1.514519999999999982e+03
1.499999999999999944e-01 6.089040000000000008e-01 8.645720000000000738e+00 1.341784999999999854e+02 1.514480000000000018e+03
1.509999999999999953e-01 6.088559999999999528e-01 8.557900000000000063e+00 1.340020000000000095e+02 1.514429999999999836e+03
1.519999999999999962e-01 6.088014999999999954e-01 8.451439999999999841e+00 1.337944999999999993e+02 1.514369999999999891e+03
1.529999999999999971e-01 6.087415000000000465e-01 8.328635000000000232e+00 1.335615000000000236e+02 1.514305000000000064e+03
1.539999999999999980e-01 6.086774999999999824e-01 8.192299999999999471e+00 1.333089999999999975e+02 1.514224999999999909e+03
1.549999999999999989e-01 6.086110000000000131e-01 8.045640000000000569e+00 1.330430000000000064e+02 1.514140000000000100e+03
1.559999999999999998e-01 6.085435000000000150e-01 7.892089999999999606e+00 1.327694999999999936e+02 1.514054999999999836e+03
1.570000000000000007e-01 6.084769999999999346e-01 7.735134999999999650e+00 1.324950000000000045e+02 1.513970000000000027e+03
1.580000000000000016e-01 6.084119999999999528e-01 7.578125000000000000e+00 1.322249999999999943e+02 1.513880000000000109e+03
1.590000000000000024e-01 6.083499999999999464e-01 7.424265000000000114e+00 1.319644999999999868e+02 1.513795000000000073e+03
