# t [s], A [cm^2], U [cm/s], P [cPa], c [cm/s]
1.000000000000000021e-03 1.316225000000000034e-01 2.724774999999999836e-01 9.727074999999999250e+01 1.794690000000000055e+03
2.000000000000000042e-03 1.316039999999999988e-01 1.719956499999999888e+00 9.448029999999999973e+01 1.794500000000000000e+03
3.000000000000000062e-03 1.315264999999999906e-01 3.496303500000000231e+00 9.089719999999999800e+01 1.793735000000000127e+03
4.000000000000000083e-03 1.314055000000000084e-01 5.458329449999999916e+00 8.686575000000000557e+01 1.792570000000000164e+03
5.000000000000000104e-03 1.312630000000000186e-01 7.558254999999999946e+00 8.300395000000000323e+01 1.791210000000000036e+03
6.000000000000000125e-03 1.311144999999999949e-01 9.711349999999999483e+00 7.967005000000000337e+01 1.789800000000000182e+03
7.000000000000000146e-03 1.309690000000000021e-01 1.178611999999999860e+01 7.688315000000000055e+01 1.788440000000000055e+03
8.000000000000000167e-03 1.308304999999999885e-01 1.366676000000000002e+01 7.447544999999999504e+01 1.787159999999999854e+03
9.000000000000001055e-03 1.307010000000000116e-01 1.531264999999999787e+01 7.232699999999999818e+01 1.785980000000000018e+03
1.000000000000000194e-02 1.305839999999999779e-01 1.674005000000000010e+01 7.044200000000000728e+01 1.784920000000000073e+03
1.099999999999999936e-02 1.304799999999999849e-01 1.797019999999999840e+01 6.885115000000000407e+01 1.783990000000000009e+03
1.200000000000000025e-02 1.303904999999999925e-01 1.901290000000000191e+01 6.754390000000000782e+01 1.783204999999999927e+03
1.300000000000000114e-02 1.303144999999999998e-01 1.987469999999999715e+01 6.648085000000000377e+01 1.782534999999999854e+03
1.400000000000000203e-02 1.302504999999999913e-01 2.056150000000000233e+01 6.561270000000000380e+01 1.781985000000000127e+03
1.499999999999999944e-02 1.301970000000000072e-01 2.107934999999999803e+01 6.488349999999999795e+01 1.781530000000000200e+03
1.600000000000000033e-02 1.301519999999999899e-01 2.144460000000000122e+01 6.425109999999999388e+01 1.781154999999999973e+03
1.700000000000000122e-02 1.301150000000000084e-01 2.169769999999999754e+01 6.372735000000000127e+01 1.780845000000000027e+03
1.800000000000000211e-02 1.300859999999999794e-01 2.190465000000000018e+01 6.340104999999999791e+01 1.780615000000000009e+03
1.900000000000000300e-02 1.300685000000000036e-01 2.214059999999999917e+01 6.341349999999999909e+01 1.780480000000000018e+03
2.000000000000000042e-02 1.300655000000000006e-01 2.246399999999999864e+01 6.389589999999999748e+01 1.780469999999999800e+03
2.100000000000000130e-02 1.300795000000000146e-01 2.289584999999999937e+01 6.490259999999999252e+01 1.780605000000000018e+03
2.200000000000000219e-02 1.301110000000000044e-01 2.341270000000000095e+01 6.637385000000000446e+01 1.780889999999999873e+03
2.299999999999999961e-02 1.301554999999999795e-01 2.395635000000000048e+01 6.814350000000000307e+01 1.781295000000000073e+03
2.400000000000000050e-02 1.302094999999999780e-01 2.445179999999999865e+01 6.998140000000000782e+01 1.781779999999999973e+03
2.500000000000000139e-02 1.302654999999999785e-01 2.482949999999999946e+01 7.165300000000000580e+01 1.782295000000000073e+03
2.600000000000000228e-02 1.303185000000000038e-01 2.504139999999999944e+01 7.297475000000000023e+01 1.782775000000000091e+03
2.700000000000000316e-02 1.303630000000000067e-01 2.507010000000000005e+01 7.384960000000000946e+01 1.783190000000000055e+03
2.800000000000000058e-02 1.303969999999999851e-01 2.492800000000000082e+01 7.427604999999999791e+01 1.783509999999999991e+03
2.900000000000000147e-02 1.304194999999999938e-01 2.464914999999999878e+01 7.433140000000000214e+01 1.783724999999999909e+03
3.000000000000000236e-02 1.304325000000000068e-01 2.427655000000000030e+01 7.413804999999999268e+01 1.783855000000000018e+03
3.099999999999999978e-02 1.304379999999999984e-01 2.384990000000000165e+01 7.382354999999999734e+01 1.783920000000000073e+03
3.200000000000000067e-02 1.304389999999999994e-01 2.339610000000000056e+01 7.348744999999999550e+01 1.783934999999999945e+03
3.300000000000000155e-02 1.304375000000000118e-01 2.292614999999999981e+01 7.318240000000000123e+01 1.783924999999999955e+03
3.400000000000000244e-02 1.304345000000000088e-01 2.243634999999999735e+01 7.291129999999999711e+01 1.783904999999999973e+03
3.500000000000000333e-02 1.304299999999999904e-01 2.191445000000000221e+01 7.264034999999999798e+01 1.783869999999999891e+03
3.600000000000000422e-02 1.304234999999999978e-01 2.134720000000000084e+01 7.231935000000000002e+01 1.783815000000000055e+03
3.700000000000000511e-02 1.304140000000000021e-01 2.072760000000000247e+01 7.190559999999999263e+01 1.783734999999999900e+03
3.799999999999999906e-02 1.304009999999999891e-01 2.006034999999999968e+01 7.138275000000000148e+01 1.783634999999999991e+03
3.899999999999999994e-02 1.303850000000000009e-01 1.936394999999999911e+01 7.077160000000000650e+01 1.783490000000000009e+03
4.000000000000000083e-02 1.303659999999999819e-01 1.866870000000000118e+01 7.013054999999999950e+01 1.783329999999999927e+03
4.100000000000000172e-02 1.303475000000000050e-01 1.801254999999999740e+01 6.954560000000000741e+01 1.783159999999999854e+03
4.200000000000000261e-02 1.303300000000000014e-01 1.743390000000000128e+01 6.911350000000000193e+01 1.783009999999999991e+03
4.300000000000000350e-02 1.303179999999999894e-01 1.696515000000000128e+01 6.892130000000000223e+01 1.782900000000000091e+03
4.400000000000000439e-02 1.303124999999999978e-01 1.662604999999999933e+01 6.902814999999999657e+01 1.782845000000000027e+03
4.499999999999999833e-02 1.303159999999999874e-01 1.642085000000000150e+01 6.945265000000000555e+01 1.782869999999999891e+03
4.599999999999999922e-02 1.303290000000000004e-01 1.633720000000000283e+01 7.016809999999999548e+01 1.782974999999999909e+03
4.700000000000000011e-02 1.303500000000000214e-01 1.634844999999999970e+01 7.110634999999999195e+01 1.783154999999999973e+03
4.800000000000000100e-02 1.303775000000000073e-01 1.641745000000000232e+01 7.216835000000000377e+01 1.783400000000000091e+03
4.900000000000000189e-02 1.304094999999999838e-01 1.650225000000000009e+01 7.323875000000001023e+01 1.783674999999999955e+03
5.000000000000000278e-02 1.304425000000000168e-01 1.656074999999999875e+01 7.420189999999999486e+01 1.783960000000000036e+03
5.100000000000000366e-02 1.304720000000000046e-01 1.655584999999999951e+01 7.495560000000000400e+01 1.784230000000000018e+03
5.200000000000000455e-02 1.304965000000000153e-01 1.645799999999999841e+01 7.542169999999998709e+01 1.784444999999999936e+03
5.300000000000000544e-02 1.305135000000000045e-01 1.624729999999999919e+01 7.555140000000000100e+01 1.784599999999999909e+03
5.399999999999999939e-02 1.305199999999999971e-01 1.591365000000000052e+01 7.532614999999999839e+01 1.784664999999999964e+03
5.500000000000000028e-02 1.305164999999999798e-01 1.545579999999999998e+01 7.475480000000000302e+01 1.784634999999999991e+03
5.600000000000000117e-02 1.305020000000000069e-01 1.487954999999999828e+01 7.386735000000000184e+01 1.784505000000000109e+03
5.700000000000000205e-02 1.304770000000000096e-01 1.419645000000000046e+01 7.270879999999999654e+01 1.784289999999999964e+03
5.800000000000000294e-02 1.304424999999999890e-01 1.342145000000000010e+01 7.133214999999999861e+01 1.783990000000000009e+03
5.900000000000000383e-02 1.303999999999999881e-01 1.257205000000000084e+01 6.979309999999999548e+01 1.783619999999999891e+03
6.000000000000000472e-02 1.303515000000000090e-01 1.166696500000000114e+01 6.814674999999999727e+01 1.783184999999999945e+03
6.099999999999999867e-02 1.302975000000000105e-01 1.072617499999999957e+01 6.644570000000000221e+01 1.782710000000000036e+03
6.199999999999999956e-02 1.302409999999999957e-01 9.770400000000000418e+00 6.473994999999999322e+01 1.782210000000000036e+03
6.300000000000000044e-02 1.301829999999999932e-01 8.821659999999999613e+00 6.307755000000000223e+01 1.781690000000000055e+03
6.400000000000000133e-02 1.301249999999999907e-01 7.902965000000000018e+00 6.150589999999999691e+01 1.781175000000000182e+03
6.500000000000000222e-02 1.300689999999999902e-01 7.038425000000000153e+00 6.007264999999999588e+01 1.780675000000000182e+03
6.600000000000000311e-02 1.300165000000000071e-01 6.253144999999999953e+00 5.882625000000000171e+01 1.780204999999999927e+03
6.700000000000000400e-02 1.299694999999999878e-01 5.572485000000000355e+00 5.781544999999999845e+01 1.779784999999999854e+03
6.800000000000000488e-02 1.299299999999999899e-01 5.021425000000000693e+00 5.708840000000000003e+01 1.779425000000000182e+03
6.900000000000000577e-02 1.298995000000000011e-01 4.623569999999999958e+00 5.669075000000000131e+01 1.779150000000000091e+03
7.000000000000000666e-02 1.298799999999999955e-01 4.400150000000000006e+00 5.666355000000000075e+01 1.778965000000000146e+03
7.100000000000000755e-02 1.298725000000000018e-01 4.368970000000000020e+00 5.704075000000000273e+01 1.778889999999999873e+03
7.200000000000000844e-02 1.298785000000000078e-01 4.543499999999999872e+00 5.784720000000000084e+01 1.778929999999999836e+03
7.300000000000000933e-02 1.298990000000000145e-01 4.932180000000000675e+00 5.909680000000000177e+01 1.779099999999999909e+03
7.399999999999999634e-02 1.299339999999999939e-01 5.537955000000000183e+00 6.079170000000000584e+01 1.779400000000000091e+03
7.499999999999999722e-02 1.299855000000000038e-01 6.358109999999999928e+00 6.292145000000000010e+01 1.779844999999999800e+03
7.599999999999999811e-02 1.300520000000000009e-01 7.384420000000000428e+00 6.546380000000000621e+01 1.780420000000000073e+03
7.699999999999999900e-02 1.301329999999999987e-01 8.603524999999999423e+00 6.838569999999999993e+01 1.781134999999999991e+03
7.799999999999999989e-02 1.302280000000000104e-01 9.997614999999999696e+00 7.164520000000000266e+01 1.781970000000000027e+03
7.900000000000000078e-02 1.303360000000000074e-01 1.154526500000000055e+01 7.519310000000000116e+01 1.782920000000000073e+03
8.000000000000000167e-02 1.304549999999999876e-01 1.322219499999999925e+01 7.897585000000000832e+01 1.783974999999999909e+03
8.100000000000000255e-02 1.305834999999999912e-01 1.500254999999999939e+01 8.293789999999999907e+01 1.785115000000000009e+03
8.200000000000000344e-02 1.307200000000000029e-01 1.685970000000000013e+01 8.702400000000000091e+01 1.786329999999999927e+03
8.300000000000000433e-02 1.308620000000000061e-01 1.876745000000000019e+01 9.118164999999999054e+01 1.787605000000000018e+03
8.400000000000000522e-02 1.310089999999999866e-01 2.070040000000000191e+01 9.536265000000000214e+01 1.788920000000000073e+03
8.500000000000000611e-02 1.311585000000000112e-01 2.263544999999999874e+01 9.952590000000000714e+01 1.790259999999999991e+03
8.600000000000000699e-02 1.313084999999999947e-01 2.455180000000000007e+01 1.036361500000000007e+02 1.791615000000000009e+03
8.700000000000000788e-02 1.314589999999999925e-01 2.643159999999999954e+01 1.076669499999999999e+02 1.792970000000000027e+03
8.800000000000000877e-02 1.316080000000000028e-01 2.826014999999999944e+01 1.115995000000000061e+02 1.794319999999999936e+03
8.899999999999999578e-02 1.317544999999999966e-01 3.002590000000000003e+01 1.154219999999999970e+02 1.795650000000000091e+03
8.999999999999999667e-02 1.318985000000000019e-01 3.172035000000000338e+01 1.191295000000000073e+02 1.796960000000000036e+03
9.099999999999999756e-02 1.320395000000000041e-01 3.333780000000000143e+01 1.227240000000000038e+02 1.798250000000000000e+03
9.199999999999999845e-02 1.321775000000000033e-01 3.487489999999999668e+01 1.262090000000000032e+02 1.799509999999999991e+03
9.299999999999999933e-02 1.323119999999999852e-01 3.633020000000000493e+01 1.295925000000000011e+02 1.800740000000000009e+03
9.400000000000000022e-02 1.324434999999999918e-01 3.770369999999999777e+01 1.328834999999999980e+02 1.801949999999999818e+03
9.500000000000000111e-02 1.325719999999999954e-01 3.899635000000000673e+01 1.360910000000000082e+02 1.803130000000000109e+03
9.600000000000000200e-02 1.326970000000000094e-01 4.020950000000000557e+01 1.392219999999999800e+02 1.804284999999999854e+03
9.700000000000000289e-02 1.328199999999999936e-01 4.134479999999999933e+01 1.422830000000000155e+02 1.805414999999999964e+03
9.800000000000000377e-02 1.329400000000000026e-01 4.240364999999999895e+01 1.452769999999999868e+02 1.806529999999999973e+03
9.900000000000000466e-02 1.330584999999999962e-01 4.338685000000000258e+01 1.482044999999999959e+02 1.807619999999999891e+03
1.000000000000000056e-01 1.331735000000000002e-01 4.429479999999999507e+01 1.510625000000000000e+02 1.808690000000000055e+03
1.010000000000000064e-01 1.332865000000000022e-01 4.512739999999999441e+01 1.538470000000000084e+02 1.809735000000000127e+03
1.020000000000000073e-01 1.333969999999999878e-01 4.588360000000000127e+01 1.565484999999999900e+02 1.810759999999999991e+03
1.030000000000000082e-01 1.335034999999999972e-01 4.656199999999999761e+01 1.591599999999999966e+02 1.811750000000000000e+03
1.040000000000000091e-01 1.336074999999999902e-01 4.716055000000000064e+01 1.616689999999999827e+02 1.812720000000000027e+03
1.050000000000000100e-01 1.337074999999999791e-01 4.767699999999999960e+01 1.640629999999999882e+02 1.813650000000000091e+03
1.059999999999999970e-01 1.338039999999999785e-01 4.810875000000000057e+01 1.663315000000000055e+02 1.814545000000000073e+03
1.069999999999999979e-01 1.338955000000000006e-01 4.845315000000000083e+01 1.684615000000000009e+02 1.815404999999999973e+03
1.079999999999999988e-01 1.339819999999999900e-01 4.870754999999999768e+01 1.704410000000000025e+02 1.816210000000000036e+03
1.089999999999999997e-01 1.340635000000000021e-01 4.886959999999999837e+01 1.722595000000000027e+02 1.816974999999999909e+03
1.100000000000000006e-01 1.341390000000000082e-01 4.893739999999999668e+01 1.739080000000000155e+02 1.817684999999999945e+03
1.110000000000000014e-01 1.342090000000000227e-01 4.890935000000000343e+01 1.753774999999999977e+02 1.818340000000000146e+03
1.120000000000000023e-01 1.342725000000000168e-01 4.878464999999999918e+01 1.766624999999999943e+02 1.818934999999999945e+03
1.130000000000000032e-01 1.343290000000000040e-01 4.856329999999999814e+01 1.777584999999999980e+02 1.819469999999999800e+03
1.140000000000000041e-01 1.343785000000000118e-01 4.824620000000000175e+01 1.786639999999999873e+02 1.819940000000000055e+03
1.150000000000000050e-01 1.344214999999999993e-01 4.783525000000000205e+01 1.793790000000000191e+02 1.820345000000000027e+03
1.160000000000000059e-01 1.344575000000000076e-01 4.733344999999999914e+01 1.799085000000000036e+02 1.820690000000000055e+03
1.170000000000000068e-01 1.344859999999999944e-01 4.674484999999999957e+01 1.802560000000000002e+02 1.820969999999999800e+03
1.180000000000000077e-01 1.345084999999999753e-01 4.607469999999999999e+01 1.804314999999999998e+02 1.821184999999999945e+03
1.190000000000000085e-01 1.345244999999999913e-01 4.532925000000000182e+01 1.804445000000000050e+02 1.821335000000000036e+03
1.200000000000000094e-01 1.345339999999999869e-01 4.451579999999999870e+01 1.803084999999999809e+02 1.821440000000000055e+03
1.209999999999999964e-01 1.345375000000000043e-01 4.364239999999999498e+01 1.800380000000000109e+02 1.821480000000000018e+03
1.219999999999999973e-01 1.345359999999999889e-01 4.271774999999999523e+01 1.796494999999999891e+02 1.821469999999999800e+03
1.229999999999999982e-01 1.345295000000000241e-01 4.175104999999999933e+01 1.791589999999999918e+02 1.821414999999999964e+03
1.239999999999999991e-01 1.345189999999999997e-01 4.075164999999999793e+01 1.785849999999999795e+02 1.821324999999999818e+03
1.250000000000000000e-01 1.345044999999999991e-01 3.972889999999999588e+01 1.779440000000000168e+02 1.821194999999999936e+03
1.260000000000000009e-01 1.344865000000000088e-01 3.869185000000000230e+01 1.772524999999999977e+02 1.821039999999999964e+03
1.270000000000000018e-01 1.344664999999999888e-01 3.764894999999999925e+01 1.765260000000000105e+02 1.820849999999999909e+03
1.280000000000000027e-01 1.344445000000000223e-01 3.660810000000000031e+01 1.757775000000000034e+02 1.820650000000000091e+03
1.290000000000000036e-01 1.344214999999999993e-01 3.557604999999999507e+01 1.750190000000000055e+02 1.820434999999999945e+03
1.300000000000000044e-01 1.343965000000000021e-01 3.455865000000000009e+01 1.742595000000000027e+02 1.820204999999999927e+03
1.310000000000000053e-01 1.343710000000000182e-01 3.356049999999999756e+01 1.735049999999999955e+02 1.819974999999999909e+03
1.320000000000000062e-01 1.343460000000000210e-01 3.258505000000000251e+01 1.727610000000000241e+02 1.819735000000000127e+03
1.330000000000000071e-01 1.343199999999999950e-01 3.163445000000000107e+01 1.720279999999999916e+02 1.819494999999999891e+03
1.340000000000000080e-01 1.342935000000000101e-01 3.070965000000000344e+01 1.713059999999999832e+02 1.819250000000000000e+03
1.350000000000000089e-01 1.342674999999999841e-01 2.981054999999999922e+01 1.705925000000000011e+02 1.819009999999999991e+03
1.360000000000000098e-01 1.342415000000000136e-01 2.893585000000000207e+01 1.698814999999999884e+02 1.818765000000000100e+03
1.370000000000000107e-01 1.342150000000000010e-01 2.808344999999999914e+01 1.691680000000000064e+02 1.818519999999999982e+03
1.380000000000000115e-01 1.341890000000000027e-01 2.725065000000000026e+01 1.684440000000000168e+02 1.818269999999999982e+03
1.390000000000000124e-01 1.341620000000000035e-01 2.643394999999999939e+01 1.677019999999999982e+02 1.818014999999999873e+03
1.400000000000000133e-01 1.341340000000000032e-01 2.562955000000000183e+01 1.669334999999999809e+02 1.817755000000000109e+03
1.410000000000000142e-01 1.341050000000000020e-01 2.483359999999999701e+01 1.661310000000000002e+02 1.817485000000000127e+03
1.420000000000000151e-01 1.340755000000000141e-01 2.404209999999999781e+01 1.652849999999999966e+02 1.817204999999999927e+03
1.430000000000000160e-01 1.340439999999999965e-01 2.325135000000000218e+01 1.643899999999999864e+02 1.816914999999999964e+03
1.440000000000000169e-01 1.340109999999999912e-01 2.245794999999999675e+01 1.634399999999999977e+02 1.816605000000000018e+03
1.450000000000000178e-01 1.339760000000000117e-01 2.165895000000000081e+01 1.624300000000000068e+02 1.816279999999999973e+03
1.459999999999999909e-01 1.339390000000000025e-01 2.085215000000000174e+01 1.613574999999999875e+02 1.815934999999999945e+03
1.469999999999999918e-01 1.338995000000000046e-01 2.003589999999999804e+01 1.602214999999999918e+02 1.815569999999999936e+03
1.479999999999999927e-01 1.338575000000000181e-01 1.920949999999999847e+01 1.590219999999999914e+02 1.815184999999999945e+03
1.489999999999999936e-01 1.338139999999999885e-01 1.837290000000000134e+01 1.577620000000000005e+02 1.814779999999999973e+03
1.499999999999999944e-01 1.337679999999999980e-01 1.752710000000000079e+01 1.564449999999999932e+02 1.814355000000000018e+03
1.509999999999999953e-01 1.337200000000000055e-01 1.667379999999999995e+01 1.550780000000000030e+02 1.813910000000000082e+03
1.519999999999999962e-01 1.336704999999999977e-01 1.581540000000000035e+01 1.536675000000000182e+02 1.813450000000000045e+03
1.529999999999999971e-01 1.336180000000000145e-01 1.495530000000000115e+01 1.522230000000000132e+02 1.812974999999999909e+03
1.539999999999999980e-01 1.335655000000000037e-01 1.409724999999999895e+01 1.507545000000000073e+02 1.812490000000000009e+03
1.549999999999999989e-01 1.335115000000000052e-01 1.324559999999999960e+01 1.492719999999999914e+02 1.811990000000000009e+03
1.559999999999999998e-01 1.334569999999999923e-01 1.240492500000000042e+01 1.477860000000000014e+02 1.811480000000000018e+03
1.570000000000000007e-01 1.334015000000000062e-01 1.158027500000000032e+01 1.463104999999999905e+02 1.810974999999999909e+03
1.580000000000000016e-01 1.333465000000000067e-01 1.077651000000000003e+01 1.448539999999999850e+02 1.810465000000000146e+03
1.590000000000000024e-01 1.332920000000000216e-01 9.998525000000000773e+00 1.434284999999999854e+02 1.809960000000000036e+03
