# t [s], A [cm^2], U [cm/s], P [cPa], c [cm/s]
1.000000000000000021e-03 1.451830000000000065e-01 4.846225000000000116e-01 9.696244999999998981e+01 1.813570000000000164e+03
2.000000000000000042e-03 1.451489999999999725e-01 2.223008499999999721e+00 9.347259999999999991e+01 1.813235000000000127e+03
3.000000000000000062e-03 1.450394999999999879e-01 4.268907999999999703e+00 8.907300000000000750e+01 1.812204999999999927e+03
4.000000000000000083e-03 1.448829999999999840e-01 6.506067000000000711e+00 8.451945000000000618e+01 1.810755000000000109e+03
5.000000000000000104e-03 1.447085000000000177e-01 8.866899999999999338e+00 8.055474999999999852e+01 1.809150000000000091e+03
6.000000000000000125e-03 1.445349999999999968e-01 1.119920000000000115e+01 7.737274999999999636e+01 1.807565000000000055e+03
7.000000000000000146e-03 1.443690000000000251e-01 1.332963499999999968e+01 7.474280000000000257e+01 1.806074999999999818e+03
8.000000000000000167e-03 1.442140000000000088e-01 1.518018999999999963e+01 7.242584999999999695e+01 1.804704999999999927e+03
9.000000000000001055e-03 1.440730000000000066e-01 1.677169999999999916e+01 7.039695000000000391e+01 1.803469999999999800e+03
1.000000000000000194e-02 1.439485000000000070e-01 1.813605000000000089e+01 6.869950000000000045e+01 1.802389999999999873e+03
1.099999999999999936e-02 1.438415000000000110e-01 1.928310000000000102e+01 6.730639999999999645e+01 1.801469999999999800e+03
1.200000000000000025e-02 1.437505000000000033e-01 2.022125000000000128e+01 6.615585000000000093e+01 1.800704999999999927e+03
1.300000000000000114e-02 1.436740000000000239e-01 2.096314999999999884e+01 6.519384999999999764e+01 1.800059999999999945e+03
1.400000000000000203e-02 1.436099999999999877e-01 2.152174999999999727e+01 6.436744999999999095e+01 1.799529999999999973e+03
1.499999999999999944e-02 1.435549999999999882e-01 2.192364999999999853e+01 6.364515000000000100e+01 1.799090000000000146e+03
1.600000000000000033e-02 1.435099999999999987e-01 2.223000000000000043e+01 6.307835000000000036e+01 1.798724999999999909e+03
1.700000000000000122e-02 1.434765000000000068e-01 2.253555000000000064e+01 6.282885000000000275e+01 1.798465000000000146e+03
1.800000000000000211e-02 1.434604999999999908e-01 2.293730000000000047e+01 6.310925000000000296e+01 1.798345000000000027e+03
1.900000000000000300e-02 1.434659999999999824e-01 2.349134999999999707e+01 6.406595000000000084e+01 1.798405000000000200e+03
2.000000000000000042e-02 1.434960000000000124e-01 2.418590000000000018e+01 6.567924999999999613e+01 1.798670000000000073e+03
2.100000000000000130e-02 1.435464999999999935e-01 2.494324999999999903e+01 6.773760000000000048e+01 1.799110000000000127e+03
2.200000000000000219e-02 1.436105000000000020e-01 2.564674999999999727e+01 6.989350000000000307e+01 1.799670000000000073e+03
2.299999999999999961e-02 1.436795000000000155e-01 2.617895000000000039e+01 7.176845000000000141e+01 1.800264999999999873e+03
2.400000000000000050e-02 1.437404999999999933e-01 2.645575000000000188e+01 7.306154999999999688e+01 1.800809999999999945e+03
2.500000000000000139e-02 1.437864999999999838e-01 2.644610000000000127e+01 7.362444999999999595e+01 1.801224999999999909e+03
2.600000000000000228e-02 1.438134999999999830e-01 2.617324999999999946e+01 7.348205000000000098e+01 1.801485000000000127e+03
2.700000000000000316e-02 1.438214999999999910e-01 2.570020000000000238e+01 7.280010000000000048e+01 1.801570000000000164e+03
2.800000000000000058e-02 1.438139999999999974e-01 2.510620000000000118e+01 7.181729999999998881e+01 1.801525000000000091e+03
2.900000000000000147e-02 1.437964999999999938e-01 2.446320000000000050e+01 7.076834999999999809e+01 1.801384999999999991e+03
3.000000000000000236e-02 1.437740000000000129e-01 2.381990000000000052e+01 6.982284999999998831e+01 1.801204999999999927e+03
3.099999999999999978e-02 1.437510000000000177e-01 2.319539999999999935e+01 6.905620000000000402e+01 1.801009999999999991e+03
3.200000000000000067e-02 1.437295000000000100e-01 2.258399999999999963e+01 6.845374999999999943e+01 1.800829999999999927e+03
3.300000000000000155e-02 1.437100000000000044e-01 2.196614999999999895e+01 6.794124999999999659e+01 1.800659999999999854e+03
3.400000000000000244e-02 1.436904999999999988e-01 2.132175000000000153e+01 6.742640000000000100e+01 1.800500000000000000e+03
3.500000000000000333e-02 1.436704999999999788e-01 2.064179999999999993e+01 6.684000000000000341e+01 1.800325000000000045e+03
3.600000000000000422e-02 1.436474999999999835e-01 1.993570000000000064e+01 6.616384999999999650e+01 1.800134999999999991e+03
3.700000000000000511e-02 1.436219999999999997e-01 1.923219999999999885e+01 6.544110000000000582e+01 1.799924999999999955e+03
3.799999999999999906e-02 1.435965000000000158e-01 1.857479999999999976e+01 6.476749999999999829e+01 1.799699999999999818e+03
3.899999999999999994e-02 1.435735000000000205e-01 1.801235000000000142e+01 6.426709999999999923e+01 1.799505000000000109e+03
4.000000000000000083e-02 1.435559999999999892e-01 1.758820000000000050e+01 6.406000000000000227e+01 1.799355000000000018e+03
4.100000000000000172e-02 1.435484999999999955e-01 1.732959999999999923e+01 6.423040000000000305e+01 1.799284999999999854e+03
4.200000000000000261e-02 1.435529999999999862e-01 1.724130000000000251e+01 6.480329999999999302e+01 1.799315000000000055e+03
4.300000000000000350e-02 1.435695000000000165e-01 1.730290000000000106e+01 6.573420000000000130e+01 1.799449999999999818e+03
4.400000000000000439e-02 1.435974999999999890e-01 1.747155000000000058e+01 6.691380000000000905e+01 1.799684999999999945e+03
4.499999999999999833e-02 1.436339999999999839e-01 1.768815000000000026e+01 6.818514999999999304e+01 1.799985000000000127e+03
4.599999999999999922e-02 1.436739999999999962e-01 1.788609999999999900e+01 6.936865000000000236e+01 1.800320000000000164e+03
4.700000000000000011e-02 1.437120000000000064e-01 1.799990000000000023e+01 7.028819999999998913e+01 1.800639999999999873e+03
4.800000000000000100e-02 1.437424999999999953e-01 1.797295000000000087e+01 7.079534999999999911e+01 1.800904999999999973e+03
4.900000000000000189e-02 1.437614999999999865e-01 1.776324999999999932e+01 7.078549999999999898e+01 1.801065000000000055e+03
5.000000000000000278e-02 1.437640000000000029e-01 1.734584999999999866e+01 7.020619999999999550e+01 1.801095000000000027e+03
5.100000000000000366e-02 1.437479999999999869e-01 1.671324999999999861e+01 6.905700000000000216e+01 1.800965000000000146e+03
5.200000000000000455e-02 1.437140000000000084e-01 1.587395000000000067e+01 6.738224999999999909e+01 1.800679999999999836e+03
5.300000000000000544e-02 1.436614999999999975e-01 1.484939999999999927e+01 6.526054999999999495e+01 1.800230000000000018e+03
5.399999999999999939e-02 1.435925000000000118e-01 1.367040000000000077e+01 6.279210000000000491e+01 1.799650000000000091e+03
5.500000000000000028e-02 1.435095000000000121e-01 1.237416999999999945e+01 6.008724999999999739e+01 1.798940000000000055e+03
5.600000000000000117e-02 1.434159999999999879e-01 1.100159500000000001e+01 5.725794999999999391e+01 1.798144999999999982e+03
5.700000000000000205e-02 1.433155000000000123e-01 9.595250000000000057e+00 5.441140000000000043e+01 1.797284999999999854e+03
5.800000000000000294e-02 1.432120000000000060e-01 8.198124999999999218e+00 5.164759999999999707e+01 1.796394999999999982e+03
5.900000000000000383e-02 1.431084999999999996e-01 6.852964999999999307e+00 4.905810000000000315e+01 1.795509999999999991e+03
6.000000000000000472e-02 1.430089999999999972e-01 5.601549999999999585e+00 4.672719999999999629e+01 1.794650000000000091e+03
6.099999999999999867e-02 1.429159999999999875e-01 4.484295000000000364e+00 4.473184999999999434e+01 1.793855000000000018e+03
6.199999999999999956e-02 1.428335000000000021e-01 3.539506000000000263e+00 4.314289999999999736e+01 1.793139999999999873e+03
6.300000000000000044e-02 1.427640000000000020e-01 2.802493999999999819e+00 4.202389999999999759e+01 1.792534999999999854e+03
6.400000000000000133e-02 1.427104999999999901e-01 2.304418000000000077e+00 4.142994999999999806e+01 1.792070000000000164e+03
6.500000000000000222e-02 1.426755000000000106e-01 2.071015000000000050e+00 4.140519999999999357e+01 1.791750000000000000e+03
6.600000000000000311e-02 1.426600000000000090e-01 2.121340000000000003e+00 4.198055000000000092e+01 1.791610000000000127e+03
6.700000000000000400e-02 1.426660000000000150e-01 2.466705000000000148e+00 4.317099999999999937e+01 1.791644999999999982e+03
6.800000000000000488e-02 1.426955000000000029e-01 3.109894999999999854e+00 4.497390000000000043e+01 1.791880000000000109e+03
6.900000000000000577e-02 1.427474999999999994e-01 4.044900000000000162e+00 4.736799999999999500e+01 1.792309999999999945e+03
7.000000000000000666e-02 1.428220000000000045e-01 5.257089999999999819e+00 5.031425000000000125e+01 1.792934999999999945e+03
7.100000000000000755e-02 1.429179999999999895e-01 6.723979999999999180e+00 5.375724999999999909e+01 1.793740000000000009e+03
7.200000000000000844e-02 1.430339999999999945e-01 8.416315000000000879e+00 5.762825000000000131e+01 1.794719999999999800e+03
7.300000000000000933e-02 1.431680000000000175e-01 1.029954999999999998e+01 6.184890000000000043e+01 1.795855000000000018e+03
7.399999999999999634e-02 1.433174999999999866e-01 1.233557000000000059e+01 6.633520000000000039e+01 1.797130000000000109e+03
7.499999999999999722e-02 1.434789999999999954e-01 1.448446500000000015e+01 7.100209999999999866e+01 1.798510000000000218e+03
7.599999999999999811e-02 1.436509999999999732e-01 1.670599999999999952e+01 7.576704999999999757e+01 1.799985000000000127e+03
7.699999999999999900e-02 1.438284999999999980e-01 1.896150000000000091e+01 8.055400000000000205e+01 1.801519999999999982e+03
7.799999999999999989e-02 1.440110000000000001e-01 2.121509999999999962e+01 8.529599999999999227e+01 1.803090000000000146e+03
7.900000000000000078e-02 1.441939999999999888e-01 2.343485000000000085e+01 8.993729999999999336e+01 1.804680000000000064e+03
8.000000000000000167e-02 1.443765000000000187e-01 2.559380000000000166e+01 9.443514999999999304e+01 1.806264999999999873e+03
8.100000000000000255e-02 1.445559999999999901e-01 2.767029999999999745e+01 9.876005000000000678e+01 1.807824999999999818e+03
8.200000000000000344e-02 1.447309999999999985e-01 2.964880000000000138e+01 1.028957499999999925e+02 1.809355000000000018e+03
8.300000000000000433e-02 1.449010000000000020e-01 3.151950000000000074e+01 1.068390500000000003e+02 1.810849999999999909e+03
8.400000000000000522e-02 1.450649999999999995e-01 3.327839999999999776e+01 1.105989999999999895e+02 1.812295000000000073e+03
8.500000000000000611e-02 1.452239999999999920e-01 3.492650000000000432e+01 1.141929999999999978e+02 1.813690000000000055e+03
8.600000000000000699e-02 1.453770000000000062e-01 3.646935000000000571e+01 1.176465000000000032e+02 1.815039999999999964e+03
8.700000000000000788e-02 1.455250000000000155e-01 3.791589999999999350e+01 1.209909999999999997e+02 1.816355000000000018e+03
8.800000000000000877e-02 1.456685000000000063e-01 3.927755000000000507e+01 1.242584999999999980e+02 1.817630000000000109e+03
8.899999999999999578e-02 1.458095000000000085e-01 4.056685000000000230e+01 1.274814999999999969e+02 1.818884999999999991e+03
8.999999999999999667e-02 1.459485000000000088e-01 4.179654999999999632e+01 1.306899999999999977e+02 1.820119999999999891e+03
9.099999999999999756e-02 1.460859999999999936e-01 4.297854999999999848e+01 1.339069999999999823e+02 1.821340000000000146e+03
9.199999999999999845e-02 1.462229999999999919e-01 4.412284999999999968e+01 1.371525000000000034e+02 1.822559999999999945e+03
9.299999999999999933e-02 1.463610000000000189e-01 4.523699999999999477e+01 1.404339999999999975e+02 1.823789999999999964e+03
9.400000000000000022e-02 1.464995000000000047e-01 4.632559999999999434e+01 1.437545000000000073e+02 1.825025000000000091e+03
9.500000000000000111e-02 1.466385000000000050e-01 4.738985000000000269e+01 1.471055000000000064e+02 1.826264999999999873e+03
9.600000000000000200e-02 1.467785000000000062e-01 4.842775000000000318e+01 1.504724999999999966e+02 1.827515000000000100e+03
9.700000000000000289e-02 1.469190000000000218e-01 4.943424999999999869e+01 1.538329999999999984e+02 1.828764999999999873e+03
9.800000000000000377e-02 1.470585000000000087e-01 5.040144999999999698e+01 1.571599999999999966e+02 1.830014999999999873e+03
9.900000000000000466e-02 1.471974999999999811e-01 5.131940000000000168e+01 1.604205000000000041e+02 1.831255000000000109e+03
1.000000000000000056e-01 1.473335000000000061e-01 5.217645000000000266e+01 1.635805000000000007e+02 1.832480000000000018e+03
1.010000000000000064e-01 1.474665000000000004e-01 5.296004999999999541e+01 1.666045000000000016e+02 1.833670000000000073e+03
1.020000000000000073e-01 1.475940000000000030e-01 5.365744999999999720e+01 1.694594999999999914e+02 1.834824999999999818e+03
1.030000000000000082e-01 1.477165000000000006e-01 5.425629999999999598e+01 1.721125000000000114e+02 1.835920000000000073e+03
1.040000000000000091e-01 1.478315000000000046e-01 5.474524999999999864e+01 1.745374999999999943e+02 1.836954999999999927e+03
1.050000000000000100e-01 1.479380000000000139e-01 5.511459999999999582e+01 1.767100000000000080e+02 1.837920000000000073e+03
1.059999999999999970e-01 1.480360000000000009e-01 5.535665000000000191e+01 1.786129999999999995e+02 1.838809999999999945e+03
1.069999999999999979e-01 1.481234999999999913e-01 5.546600000000000108e+01 1.802339999999999804e+02 1.839605000000000018e+03
1.079999999999999988e-01 1.482009999999999994e-01 5.543984999999999985e+01 1.815679999999999836e+02 1.840304999999999836e+03
1.089999999999999997e-01 1.482674999999999965e-01 5.527810000000000201e+01 1.826159999999999854e+02 1.840914999999999964e+03
1.100000000000000006e-01 1.483229999999999826e-01 5.498350000000000648e+01 1.833834999999999980e+02 1.841425000000000182e+03
1.110000000000000014e-01 1.483669999999999989e-01 5.456135000000000446e+01 1.838840000000000146e+02 1.841840000000000146e+03
1.120000000000000023e-01 1.484014999999999918e-01 5.401954999999999529e+01 1.841334999999999980e+02 1.842155000000000200e+03
1.130000000000000032e-01 1.484254999999999880e-01 5.336809999999999832e+01 1.841539999999999964e+02 1.842380000000000109e+03
1.140000000000000041e-01 1.484400000000000164e-01 5.261914999999999765e+01 1.839710000000000036e+02 1.842525000000000091e+03
1.150000000000000050e-01 1.484459999999999946e-01 5.178615000000000634e+01 1.836119999999999948e+02 1.842585000000000036e+03
1.160000000000000059e-01 1.484440000000000204e-01 5.088370000000000459e+01 1.831055000000000064e+02 1.842574999999999818e+03
1.170000000000000068e-01 1.484354999999999980e-01 4.992694999999999794e+01 1.824825000000000159e+02 1.842509999999999991e+03
1.180000000000000077e-01 1.484209999999999974e-01 4.893124999999999858e+01 1.817719999999999914e+02 1.842389999999999873e+03
1.190000000000000085e-01 1.484024999999999928e-01 4.791145000000000209e+01 1.810024999999999977e+02 1.842224999999999909e+03
1.200000000000000094e-01 1.483804999999999985e-01 4.688165000000000049e+01 1.801995000000000005e+02 1.842034999999999854e+03
1.209999999999999964e-01 1.483554999999999735e-01 4.585479999999999734e+01 1.793870000000000005e+02 1.841809999999999945e+03
1.219999999999999973e-01 1.483289999999999886e-01 4.484205000000000041e+01 1.785835000000000150e+02 1.841575000000000045e+03
1.229999999999999982e-01 1.483015000000000028e-01 4.385290000000000532e+01 1.778050000000000068e+02 1.841329999999999927e+03
1.239999999999999991e-01 1.482740000000000169e-01 4.289464999999999861e+01 1.770625000000000000e+02 1.841085000000000036e+03
1.250000000000000000e-01 1.482470000000000176e-01 4.197254999999999825e+01 1.763614999999999782e+02 1.840840000000000146e+03
1.260000000000000009e-01 1.482205000000000050e-01 4.108959999999999724e+01 1.757060000000000173e+02 1.840599999999999909e+03
1.270000000000000018e-01 1.481950000000000212e-01 4.024665000000000248e+01 1.750925000000000011e+02 1.840369999999999891e+03
1.280000000000000027e-01 1.481704999999999828e-01 3.944265000000000043e+01 1.745155000000000030e+02 1.840150000000000091e+03
1.290000000000000036e-01 1.481470000000000009e-01 3.867459999999999809e+01 1.739669999999999845e+02 1.839930000000000064e+03
1.300000000000000044e-01 1.481244999999999923e-01 3.793815000000000026e+01 1.734345000000000141e+02 1.839720000000000027e+03
1.310000000000000053e-01 1.481020000000000114e-01 3.722749999999999915e+01 1.729039999999999964e+02 1.839514999999999873e+03
1.320000000000000062e-01 1.480794999999999750e-01 3.653620000000000090e+01 1.723619999999999948e+02 1.839315000000000055e+03
1.330000000000000071e-01 1.480564999999999798e-01 3.585699999999999932e+01 1.717934999999999945e+02 1.839105000000000018e+03
1.340000000000000080e-01 1.480329999999999979e-01 3.518280000000000030e+01 1.711829999999999927e+02 1.838889999999999873e+03
1.350000000000000089e-01 1.480080000000000007e-01 3.450634999999999764e+01 1.705165000000000077e+02 1.838655000000000200e+03
1.360000000000000098e-01 1.479805000000000148e-01 3.382110000000000127e+01 1.697819999999999823e+02 1.838414999999999964e+03
1.370000000000000107e-01 1.479515000000000136e-01 3.312115000000000009e+01 1.689699999999999989e+02 1.838150000000000091e+03
1.380000000000000115e-01 1.479190000000000227e-01 3.240174999999999983e+01 1.680729999999999791e+02 1.837860000000000127e+03
1.390000000000000124e-01 1.478840000000000154e-01 3.165934999999999988e+01 1.670869999999999891e+02 1.837539999999999964e+03
1.400000000000000133e-01 1.478460000000000052e-01 3.089189999999999969e+01 1.660095000000000027e+02 1.837199999999999818e+03
1.410000000000000142e-01 1.478045000000000053e-01 3.009884999999999877e+01 1.648444999999999823e+02 1.836825000000000045e+03
1.420000000000000151e-01 1.477594999999999881e-01 2.928125000000000000e+01 1.635960000000000036e+02 1.836424999999999955e+03
1.430000000000000160e-01 1.477110000000000090e-01 2.844154999999999944e+01 1.622740000000000009e+02 1.835990000000000009e+03
1.440000000000000169e-01 1.476600000000000135e-01 2.758384999999999820e+01 1.608894999999999982e+02 1.835539999999999964e+03
1.450000000000000178e-01 1.476065000000000016e-01 2.671354999999999791e+01 1.594565000000000055e+02 1.835059999999999945e+03
1.459999999999999909e-01 1.475505000000000011e-01 2.583704999999999785e+01 1.579920000000000186e+02 1.834565000000000055e+03
1.469999999999999918e-01 1.474934999999999996e-01 2.496184999999999832e+01 1.565130000000000052e+02 1.834049999999999955e+03
1.479999999999999927e-01 1.474354999999999971e-01 2.409590000000000032e+01 1.550384999999999991e+02 1.833529999999999973e+03
1.489999999999999936e-01 1.473774999999999946e-01 2.324745000000000061e+01 1.535869999999999891e+02 1.833014999999999873e+03
1.499999999999999944e-01 1.473189999999999777e-01 2.242499999999999716e+01 1.521770000000000209e+02 1.832494999999999891e+03
1.509999999999999953e-01 1.472620000000000040e-01 2.163654999999999973e+01 1.508260000000000218e+02 1.831985000000000127e+03
1.519999999999999962e-01 1.472069999999999768e-01 2.088949999999999818e+01 1.495494999999999948e+02 1.831485000000000127e+03
1.529999999999999971e-01 1.471540000000000070e-01 2.019059999999999988e+01 1.483609999999999900e+02 1.831015000000000100e+03
1.539999999999999980e-01 1.471040000000000125e-01 1.954524999999999935e+01 1.472700000000000102e+02 1.830565000000000055e+03
1.549999999999999989e-01 1.470569999999999933e-01 1.895790000000000219e+01 1.462869999999999777e+02 1.830150000000000091e+03
1.559999999999999998e-01 1.470139999999999780e-01 1.843135000000000190e+01 1.454139999999999873e+02 1.829759999999999991e+03
1.570000000000000007e-01 1.469749999999999945e-01 1.796719999999999828e+01 1.446544999999999845e+02 1.829404999999999973e+03
1.580000000000000016e-01 1.469400000000000150e-01 1.756544999999999845e+01 1.440065000000000168e+02 1.829090000000000146e+03
1.590000000000000024e-01 1.469090000000000118e-01 1.722479999999999833e+01 1.434660000000000082e+02 1.828804999999999836e+03
