# t [s], A [cm^2], U [cm/s], P [cPa], c [cm/s]
1.000000000000000021e-03 1.701134999999999731e-01 5.194612999999999037e-01 9.787954999999999472e+01 2.334480000000000018e+03
2.000000000000000042e-03 1.700419999999999987e-01 2.306347499999999773e+00 9.321559999999999491e+01 2.333800000000000182e+03
3.000000000000000062e-03 1.698910000000000142e-01 4.466199000000000474e+00 8.704255000000000564e+01 2.332394999999999982e+03
4.000000000000000083e-03 1.697120000000000017e-01 6.908235000000000348e+00 8.121984999999999388e+01 2.330744999999999891e+03
5.000000000000000104e-03 1.695404999999999829e-01 9.413804999999999978e+00 7.673255000000000337e+01 2.329184999999999945e+03
6.000000000000000125e-03 1.693840000000000068e-01 1.158932000000000073e+01 7.309980000000000189e+01 2.327795000000000073e+03
7.000000000000000146e-03 1.692430000000000045e-01 1.330090500000000020e+01 6.980545000000000755e+01 2.326569999999999709e+03
8.000000000000000167e-03 1.691245000000000109e-01 1.465404999999999980e+01 6.706860000000000355e+01 2.325550000000000182e+03
9.000000000000001055e-03 1.690305000000000002e-01 1.569439999999999991e+01 6.498239999999999839e+01 2.324755000000000109e+03
1.000000000000000194e-02 1.689585000000000115e-01 1.645210000000000150e+01 6.345170000000000243e+01 2.324154999999999745e+03
1.099999999999999936e-02 1.689049999999999996e-01 1.695309999999999917e+01 6.235850000000000648e+01 2.323720000000000255e+03
1.200000000000000025e-02 1.688640000000000141e-01 1.719744999999999990e+01 6.146399999999999864e+01 2.323389999999999873e+03
1.300000000000000114e-02 1.688315000000000232e-01 1.728455000000000297e+01 6.072769999999999868e+01 2.323139999999999873e+03
1.400000000000000203e-02 1.688164999999999805e-01 1.748780000000000001e+01 6.071524999999999750e+01 2.323034999999999854e+03
1.499999999999999944e-02 1.688379999999999881e-01 1.809525000000000006e+01 6.229990000000000094e+01 2.323215000000000146e+03
1.600000000000000033e-02 1.689054999999999862e-01 1.916864999999999952e+01 6.584180000000000632e+01 2.323789999999999964e+03
1.700000000000000122e-02 1.690125000000000099e-01 2.045759999999999934e+01 7.067019999999999413e+01 2.324704999999999927e+03
1.800000000000000211e-02 1.691314999999999902e-01 2.152609999999999957e+01 7.530449999999999022e+01 2.325739999999999782e+03
1.900000000000000300e-02 1.692279999999999895e-01 2.198245000000000005e+01 7.819714999999999350e+01 2.326595000000000255e+03
2.000000000000000042e-02 1.692750000000000088e-01 2.166769999999999996e+01 7.849415000000000475e+01 2.327039999999999964e+03
2.100000000000000130e-02 1.692649999999999988e-01 2.070830000000000126e+01 7.639134999999998854e+01 2.327000000000000000e+03
2.200000000000000219e-02 1.692115000000000147e-01 1.942154999999999987e+01 7.293305000000000859e+01 2.326565000000000055e+03
2.299999999999999961e-02 1.691394999999999982e-01 1.814209999999999923e+01 6.941989999999999839e+01 2.325949999999999818e+03
2.400000000000000050e-02 1.690709999999999991e-01 1.707209999999999894e+01 6.678754999999999598e+01 2.325354999999999563e+03
2.500000000000000139e-02 1.690200000000000036e-01 1.622480000000000189e+01 6.527375000000000682e+01 2.324904999999999745e+03
2.600000000000000228e-02 1.689849999999999963e-01 1.546750000000000114e+01 6.447235000000000582e+01 2.324595000000000255e+03
2.700000000000000316e-02 1.689555000000000085e-01 1.462345000000000006e+01 6.367050000000000409e+01 2.324335000000000036e+03
2.800000000000000058e-02 1.689184999999999992e-01 1.357900000000000063e+01 6.226815000000000566e+01 2.324014999999999873e+03
2.900000000000000147e-02 1.688659999999999883e-01 1.235344999999999871e+01 6.009870000000000090e+01 2.323574999999999818e+03
3.000000000000000236e-02 1.688020000000000076e-01 1.110475500000000082e+01 5.752974999999999994e+01 2.323034999999999854e+03
3.099999999999999978e-02 1.687394999999999867e-01 1.007252500000000062e+01 5.531665000000000276e+01 2.322485000000000127e+03
3.200000000000000067e-02 1.686960000000000126e-01 9.482990000000000919e+00 5.428034999999999854e+01 2.322099999999999909e+03
3.300000000000000155e-02 1.686874999999999902e-01 9.459134999999999849e+00 5.495960000000000178e+01 2.322000000000000000e+03
3.400000000000000244e-02 1.687204999999999955e-01 9.972249999999998948e+00 5.738455000000000439e+01 2.322250000000000000e+03
3.500000000000000333e-02 1.687899999999999956e-01 1.084861000000000075e+01 6.104945000000000022e+01 2.322829999999999927e+03
3.600000000000000422e-02 1.688815000000000177e-01 1.182029999999999959e+01 6.506820000000000448e+01 2.323599999999999909e+03
3.700000000000000511e-02 1.689724999999999977e-01 1.259639999999999915e+01 6.843080000000000496e+01 2.324380000000000109e+03
3.799999999999999906e-02 1.690395000000000092e-01 1.292919999999999980e+01 7.026220000000000709e+01 2.324970000000000255e+03
3.899999999999999994e-02 1.690659999999999941e-01 1.265885000000000105e+01 7.000759999999999650e+01 2.325215000000000146e+03
4.000000000000000083e-02 1.690399999999999958e-01 1.172955500000000129e+01 6.750634999999999764e+01 2.325019999999999982e+03
4.100000000000000172e-02 1.689599999999999991e-01 1.017989000000000033e+01 6.295875000000000199e+01 2.324355000000000018e+03
4.200000000000000261e-02 1.688319999999999821e-01 8.116374999999999673e+00 5.681674999999999898e+01 2.323269999999999982e+03
4.300000000000000350e-02 1.686654999999999960e-01 5.681336499999999567e+00 4.964719999999999800e+01 2.321850000000000364e+03
4.400000000000000439e-02 1.684749999999999859e-01 3.025989999999999291e+00 4.201219999999999999e+01 2.320210000000000036e+03
4.499999999999999833e-02 1.682720000000000049e-01 2.932350000000001344e-01 3.439410000000000167e+01 2.318465000000000146e+03
4.599999999999999922e-02 1.680685000000000096e-01 -2.388295000000000279e+00 2.717114999999999725e+01 2.316710000000000036e+03
4.700000000000000011e-02 1.678739999999999954e-01 -4.903003499999999626e+00 2.063150000000000261e+01 2.315019999999999982e+03
4.800000000000000100e-02 1.676969999999999850e-01 -7.144204999999999472e+00 1.500478499999999826e+01 2.313484999999999673e+03
4.900000000000000189e-02 1.675435000000000119e-01 -9.011649999999999494e+00 1.049155999999999977e+01 2.312150000000000091e+03
5.000000000000000278e-02 1.674209999999999865e-01 -1.041259499999999960e+01 7.277140000000000164e+00 2.311065000000000055e+03
5.100000000000000366e-02 1.673339999999999828e-01 -1.126740000000000030e+01 5.526543500000000719e+00 2.310289999999999964e+03
5.200000000000000455e-02 1.672879999999999923e-01 -1.151750000000000007e+01 5.363849999999999341e+00 2.309855000000000018e+03
5.300000000000000544e-02 1.672850000000000170e-01 -1.113374999999999915e+01 6.846065000000000289e+00 2.309795000000000073e+03
5.399999999999999939e-02 1.673260000000000025e-01 -1.012163999999999930e+01 9.941300000000000026e+00 2.310119999999999891e+03
5.500000000000000028e-02 1.674110000000000043e-01 -8.522874999999999091e+00 1.452014999999999922e+01 2.310815000000000055e+03
5.600000000000000117e-02 1.675349999999999895e-01 -6.411760000000000126e+00 2.036294999999999789e+01 2.311850000000000364e+03
5.700000000000000205e-02 1.676929999999999810e-01 -3.887790000000000301e+00 2.718140000000000001e+01 2.313180000000000291e+03
5.800000000000000294e-02 1.678759999999999974e-01 -1.066710000000000047e+00 3.464804999999999779e+01 2.314739999999999782e+03
5.900000000000000383e-02 1.680770000000000042e-01 1.929149999999999920e+00 4.242674999999999841e+01 2.316460000000000036e+03
6.000000000000000472e-02 1.682870000000000199e-01 4.978943499999999744e+00 5.019915000000000305e+01 2.318269999999999982e+03
6.099999999999999867e-02 1.684979999999999811e-01 7.970200000000000173e+00 5.768389999999999418e+01 2.320090000000000146e+03
6.199999999999999956e-02 1.687019999999999909e-01 1.080389999999999873e+01 6.464950000000000330e+01 2.321869999999999891e+03
6.300000000000000044e-02 1.688925000000000010e-01 1.339924499999999874e+01 7.092305000000000348e+01 2.323534999999999854e+03
6.400000000000000133e-02 1.690665000000000084e-01 1.569739999999999824e+01 7.639625000000000909e+01 2.325064999999999600e+03
6.500000000000000222e-02 1.692204999999999959e-01 1.766425000000000267e+01 8.102930000000000632e+01 2.326425000000000182e+03
6.600000000000000311e-02 1.693530000000000035e-01 1.929175000000000040e+01 8.485134999999999650e+01 2.327605000000000018e+03
6.700000000000000400e-02 1.694649999999999768e-01 2.059759999999999991e+01 8.795690000000000452e+01 2.328609999999999673e+03
6.800000000000000488e-02 1.695599999999999885e-01 2.162205000000000155e+01 9.049520000000001119e+01 2.329460000000000036e+03
6.900000000000000577e-02 1.696409999999999862e-01 2.242314999999999969e+01 9.265469999999999118e+01 2.330190000000000055e+03
7.000000000000000666e-02 1.697124999999999884e-01 2.306970000000000098e+01 9.464269999999999072e+01 2.330840000000000146e+03
7.100000000000000755e-02 1.697810000000000152e-01 2.363414999999999822e+01 9.666374999999999318e+01 2.331449999999999818e+03
7.200000000000000844e-02 1.698500000000000010e-01 2.418500000000000227e+01 9.889855000000000018e+01 2.332069999999999709e+03
7.300000000000000933e-02 1.699244999999999783e-01 2.478040000000000020e+01 1.014873499999999922e+02 2.332735000000000127e+03
7.399999999999999634e-02 1.700085000000000068e-01 2.546310000000000073e+01 1.045165000000000077e+02 2.333470000000000255e+03
7.499999999999999722e-02 1.701030000000000042e-01 2.625764999999999816e+01 1.080159999999999911e+02 2.334304999999999836e+03
7.599999999999999811e-02 1.702089999999999992e-01 2.716904999999999859e+01 1.119549999999999983e+02 2.335234999999999673e+03
7.699999999999999900e-02 1.703255000000000186e-01 2.818359999999999843e+01 1.162535000000000025e+02 2.336255000000000109e+03
7.799999999999999989e-02 1.704499999999999904e-01 2.927150000000000318e+01 1.207884999999999991e+02 2.337350000000000364e+03
7.900000000000000078e-02 1.705800000000000094e-01 3.039004999999999868e+01 1.254085000000000036e+02 2.338489999999999782e+03
8.000000000000000167e-02 1.707110000000000016e-01 3.148859999999999815e+01 1.299454999999999814e+02 2.339639999999999873e+03
8.100000000000000255e-02 1.708385000000000042e-01 3.251234999999999786e+01 1.342334999999999923e+02 2.340765000000000327e+03
8.200000000000000344e-02 1.709589999999999999e-01 3.340764999999999674e+01 1.381170000000000186e+02 2.341829999999999927e+03
8.300000000000000433e-02 1.710674999999999835e-01 3.412569999999999482e+01 1.414619999999999891e+02 2.342795000000000073e+03
8.400000000000000522e-02 1.711615000000000220e-01 3.462630000000000052e+01 1.441670000000000016e+02 2.343635000000000218e+03
8.500000000000000611e-02 1.712374999999999869e-01 3.488025000000000375e+01 1.461659999999999968e+02 2.344319999999999709e+03
8.600000000000000699e-02 1.712950000000000028e-01 3.487154999999999916e+01 1.474320000000000164e+02 2.344840000000000146e+03
8.700000000000000788e-02 1.713324999999999987e-01 3.459740000000000038e+01 1.479755000000000109e+02 2.345190000000000055e+03
8.800000000000000877e-02 1.713509999999999756e-01 3.406825000000000614e+01 1.478425000000000011e+02 2.345369999999999891e+03
8.899999999999999578e-02 1.713510000000000033e-01 3.330655000000000143e+01 1.471089999999999804e+02 2.345390000000000327e+03
8.999999999999999667e-02 1.713350000000000151e-01 3.234475000000000477e+01 1.458729999999999905e+02 2.345260000000000218e+03
9.099999999999999756e-02 1.713049999999999851e-01 3.122289999999999921e+01 1.442484999999999786e+02 2.345015000000000327e+03
9.199999999999999845e-02 1.712650000000000006e-01 2.998604999999999876e+01 1.423575000000000159e+02 2.344675000000000182e+03
9.299999999999999933e-02 1.712170000000000081e-01 2.868155000000000143e+01 1.403240000000000123e+02 2.344260000000000218e+03
9.400000000000000022e-02 1.711655000000000260e-01 2.735634999999999906e+01 1.382644999999999982e+02 2.343809999999999945e+03
9.500000000000000111e-02 1.711125000000000007e-01 2.605474999999999852e+01 1.362864999999999895e+02 2.343345000000000255e+03
9.600000000000000200e-02 1.710610000000000186e-01 2.481584999999999752e+01 1.344794999999999732e+02 2.342889999999999873e+03
9.700000000000000289e-02 1.710134999999999850e-01 2.367195000000000249e+01 1.329145000000000039e+02 2.342470000000000255e+03
9.800000000000000377e-02 1.709724999999999995e-01 2.264719999999999800e+01 1.316399999999999864e+02 2.342104999999999563e+03
9.900000000000000466e-02 1.709384999999999932e-01 2.175594999999999857e+01 1.306790000000000020e+02 2.341795000000000073e+03
1.000000000000000056e-01 1.709120000000000084e-01 2.100309999999999988e+01 1.300285000000000082e+02 2.341554999999999836e+03
1.010000000000000064e-01 1.708939999999999904e-01 2.038329999999999842e+01 1.296640000000000157e+02 2.341385000000000218e+03
1.020000000000000073e-01 1.708820000000000061e-01 1.988260000000000005e+01 1.295354999999999848e+02 2.341269999999999982e+03
1.030000000000000082e-01 1.708760000000000001e-01 1.947899999999999920e+01 1.295759999999999934e+02 2.341215000000000146e+03
1.040000000000000091e-01 1.708744999999999847e-01 1.914455000000000240e+01 1.297044999999999959e+02 2.341190000000000055e+03
1.050000000000000100e-01 1.708744999999999847e-01 1.884749999999999659e+01 1.298340000000000032e+02 2.341184999999999945e+03
1.059999999999999970e-01 1.708744999999999847e-01 1.855454999999999899e+01 1.298760000000000048e+02 2.341180000000000291e+03
1.069999999999999979e-01 1.708720000000000239e-01 1.823349999999999937e+01 1.297464999999999975e+02 2.341149999999999636e+03
1.079999999999999988e-01 1.708645000000000025e-01 1.785549999999999926e+01 1.293760000000000048e+02 2.341085000000000036e+03
1.089999999999999997e-01 1.708505000000000162e-01 1.739700000000000202e+01 1.287094999999999914e+02 2.340960000000000036e+03
1.100000000000000006e-01 1.708284999999999942e-01 1.684174999999999756e+01 1.277150000000000034e+02 2.340769999999999982e+03
1.110000000000000014e-01 1.707980000000000054e-01 1.618169999999999931e+01 1.263840000000000003e+02 2.340505000000000109e+03
1.120000000000000023e-01 1.707585000000000075e-01 1.541765000000000008e+01 1.247315000000000111e+02 2.340159999999999854e+03
1.130000000000000032e-01 1.707110000000000016e-01 1.455900000000000105e+01 1.227965000000000089e+02 2.339750000000000000e+03
1.140000000000000041e-01 1.706560000000000021e-01 1.362320000000000064e+01 1.206384999999999934e+02 2.339275000000000091e+03
1.150000000000000050e-01 1.705959999999999976e-01 1.263419999999999987e+01 1.183319999999999936e+02 2.338744999999999891e+03
1.160000000000000059e-01 1.705315000000000025e-01 1.162064999999999948e+01 1.159615000000000009e+02 2.338184999999999945e+03
1.170000000000000068e-01 1.704654999999999920e-01 1.061405500000000046e+01 1.136175000000000068e+02 2.337610000000000127e+03
1.180000000000000077e-01 1.704009999999999969e-01 9.646459999999999368e+00 1.113875000000000028e+02 2.337039999999999964e+03
1.190000000000000085e-01 1.703394999999999770e-01 8.748390000000000555e+00 1.093515000000000015e+02 2.336500000000000000e+03
1.200000000000000094e-01 1.702834999999999765e-01 7.947039999999999438e+00 1.075790000000000077e+02 2.336000000000000000e+03
1.209999999999999964e-01 1.702345000000000108e-01 7.264614999999999156e+00 1.061235000000000070e+02 2.335564999999999600e+03
1.219999999999999973e-01 1.701934999999999976e-01 6.717319999999999069e+00 1.050190000000000055e+02 2.335199999999999818e+03
1.229999999999999982e-01 1.701624999999999943e-01 6.314624999999999488e+00 1.042830000000000013e+02 2.334920000000000073e+03
1.239999999999999991e-01 1.701409999999999867e-01 6.058994999999999465e+00 1.039124999999999943e+02 2.334720000000000255e+03
1.250000000000000000e-01 1.701294999999999891e-01 5.946155000000000079e+00 1.038889999999999958e+02 2.334605000000000018e+03
1.260000000000000009e-01 1.701270000000000004e-01 5.965619999999999479e+00 1.041769999999999925e+02 2.334574999999999818e+03
1.270000000000000018e-01 1.701329999999999787e-01 6.101589999999999847e+00 1.047289999999999992e+02 2.334614999999999782e+03
1.280000000000000027e-01 1.701459999999999917e-01 6.334055000000000213e+00 1.054894999999999925e+02 2.334725000000000364e+03
1.290000000000000036e-01 1.701650000000000107e-01 6.640055000000000263e+00 1.063969999999999914e+02 2.334880000000000109e+03
1.300000000000000044e-01 1.701874999999999916e-01 6.994949999999999335e+00 1.073864999999999981e+02 2.335074999999999818e+03
1.310000000000000053e-01 1.702130000000000032e-01 7.373804999999999943e+00 1.083975000000000080e+02 2.335295000000000073e+03
1.320000000000000062e-01 1.702385000000000148e-01 7.752550000000000274e+00 1.093704999999999927e+02 2.335514999999999873e+03
1.330000000000000071e-01 1.702629999999999977e-01 8.109180000000000277e+00 1.102549999999999955e+02 2.335730000000000018e+03
1.340000000000000080e-01 1.702859999999999929e-01 8.424699999999999633e+00 1.110084999999999980e+02 2.335930000000000291e+03
1.350000000000000089e-01 1.703054999999999986e-01 8.683930000000000149e+00 1.115999999999999943e+02 2.336105000000000018e+03
1.360000000000000098e-01 1.703210000000000002e-01 8.876025000000000276e+00 1.120090000000000003e+02 2.336244999999999891e+03
1.370000000000000107e-01 1.703319999999999834e-01 8.994820000000000704e+00 1.122284999999999968e+02 2.336345000000000255e+03
1.380000000000000115e-01 1.703379999999999894e-01 9.038795000000000357e+00 1.122614999999999981e+02 2.336400000000000091e+03
1.390000000000000124e-01 1.703389999999999904e-01 9.010880000000000223e+00 1.121230000000000047e+02 2.336414999999999964e+03
1.400000000000000133e-01 1.703355000000000008e-01 8.917920000000000513e+00 1.118359999999999985e+02 2.336385000000000218e+03
1.410000000000000142e-01 1.703284999999999938e-01 8.769944999999999879e+00 1.114320000000000022e+02 2.336329999999999927e+03
1.420000000000000151e-01 1.703184999999999838e-01 8.579309999999999548e+00 1.109449999999999932e+02 2.336244999999999891e+03
1.430000000000000160e-01 1.703054999999999986e-01 8.359709999999999752e+00 1.104124999999999943e+02 2.336139999999999873e+03
1.440000000000000169e-01 1.702925000000000133e-01 8.125189999999999912e+00 1.098695000000000022e+02 2.336024999999999636e+03
1.450000000000000178e-01 1.702784999999999993e-01 7.889215000000000089e+00 1.093495000000000061e+02 2.335904999999999745e+03
1.459999999999999909e-01 1.702649999999999997e-01 7.663845000000000240e+00 1.088795000000000073e+02 2.335784999999999854e+03
1.469999999999999918e-01 1.702529999999999877e-01 7.459084999999999965e+00 1.084805000000000064e+02 2.335680000000000291e+03
1.479999999999999927e-01 1.702429999999999777e-01 7.282429999999999737e+00 1.081670000000000016e+02 2.335590000000000146e+03
1.489999999999999936e-01 1.702339999999999964e-01 7.138595000000000468e+00 1.079449999999999932e+02 2.335515000000000327e+03
1.499999999999999944e-01 1.702279999999999904e-01 7.029465000000000074e+00 1.078119999999999976e+02 2.335465000000000146e+03
1.509999999999999953e-01 1.702245000000000008e-01 6.954209999999999781e+00 1.077615000000000123e+02 2.335430000000000291e+03
1.519999999999999962e-01 1.702234999999999998e-01 6.909584999999999866e+00 1.077794999999999987e+02 2.335409999999999854e+03
1.529999999999999971e-01 1.702230000000000132e-01 6.890335000000000321e+00 1.078474999999999966e+02 2.335404999999999745e+03
1.539999999999999980e-01 1.702245000000000008e-01 6.889710000000000001e+00 1.079449999999999932e+02 2.335420000000000073e+03
1.549999999999999989e-01 1.702259999999999884e-01 6.900014999999999787e+00 1.080504999999999995e+02 2.335430000000000291e+03
1.559999999999999998e-01 1.702279999999999904e-01 6.913210000000000299e+00 1.081419999999999959e+02 2.335449999999999818e+03
1.570000000000000007e-01 1.702299999999999924e-01 6.921485000000000554e+00 1.081995000000000005e+02 2.335465000000000146e+03
1.580000000000000016e-01 1.702305000000000068e-01 6.917774999999999785e+00 1.082055000000000007e+02 2.335470000000000255e+03
1.590000000000000024e-01 1.702299999999999924e-01 6.896270000000000344e+00 1.081479999999999961e+02 2.335465000000000146e+03
