# t [s], A [cm^2], U [cm/s], P [cPa], c [cm/s]
1.000000000000000021e-03 5.654749999999999499e-01 3.046000000000000096e-03 9.105910000000000082e+01 1.510775000000000091e+03
2.000000000000000042e-03 5.654669999999999419e-01 -1.201390000000000097e-03 9.104184999999999661e+01 1.510769999999999982e+03
3.000000000000000062e-03 5.654974999999999863e-01 5.329475000000000184e-02 9.109295000000000186e+01 1.510779999999999973e+03
4.000000000000000083e-03 5.655445000000000055e-01 1.393649499999999875e-01 9.119684999999999775e+01 1.510809999999999945e+03
5.000000000000000104e-03 5.655514999999999848e-01 1.594548499999999813e-01 9.122259999999999991e+01 1.510820000000000164e+03
6.000000000000000125e-03 5.655170000000000474e-01 1.059200000000000003e-01 9.112855000000000416e+01 1.510799999999999955e+03
7.000000000000000146e-03 5.654779999999999252e-01 3.927449999999998997e-02 9.096979999999999222e+01 1.510759999999999991e+03
8.000000000000000167e-03 5.654379999999999962e-01 -3.396399999999999419e-02 9.076400000000001000e+01 1.510715000000000146e+03
9.000000000000001055e-03 5.653715000000000268e-01 -1.647000000000000131e-01 9.045579999999999643e+01 1.510640000000000100e+03
1.000000000000000194e-02 5.652629999999999599e-01 -3.803549999999999986e-01 8.999625000000000341e+01 1.510529999999999973e+03
1.099999999999999936e-02 5.651074999999999848e-01 -6.900449999999999084e-01 8.935049999999999670e+01 1.510375000000000000e+03
1.200000000000000025e-02 5.648940000000000072e-01 -1.107204999999999995e+00 8.847669999999999391e+01 1.510155000000000200e+03
1.300000000000000114e-02 5.646174999999999944e-01 -1.629144999999999843e+00 8.734895000000000209e+01 1.509869999999999891e+03
1.400000000000000203e-02 5.642949999999999910e-01 -2.210614999999999775e+00 8.599445000000000050e+01 1.509519999999999982e+03
1.499999999999999944e-02 5.639589999999999881e-01 -2.769340000000000135e+00 8.449975000000000591e+01 1.509125000000000000e+03
1.600000000000000033e-02 5.636455000000000215e-01 -3.217845000000000066e+00 8.297950000000000159e+01 1.508704999999999927e+03
1.700000000000000122e-02 5.633749999999999591e-01 -3.494765000000000121e+00 8.153450000000000841e+01 1.508289999999999964e+03
1.800000000000000211e-02 5.631525000000000558e-01 -3.579048000000000229e+00 8.022369999999999379e+01 1.507894999999999982e+03
1.900000000000000300e-02 5.629645000000000898e-01 -3.486677999999999944e+00 7.905684999999999718e+01 1.507525000000000091e+03
2.000000000000000042e-02 5.627925000000000288e-01 -3.257236999999999938e+00 7.800319999999999254e+01 1.507174999999999955e+03
2.100000000000000130e-02 5.626164999999999639e-01 -2.937671600000000272e+00 7.700979999999999848e+01 1.506840000000000146e+03
2.200000000000000219e-02 5.624204999999999899e-01 -2.568080000000000140e+00 7.602129999999999654e+01 1.506500000000000000e+03
2.299999999999999961e-02 5.621990000000000043e-01 -2.172717500000000079e+00 7.499630000000000507e+01 1.506154999999999973e+03
2.400000000000000050e-02 5.619530000000000358e-01 -1.757619999999999738e+00 7.391660000000000252e+01 1.505795000000000073e+03
2.500000000000000139e-02 5.616915000000000102e-01 -1.314940000000000220e+00 7.278735000000000355e+01 1.505420000000000073e+03
2.600000000000000228e-02 5.614244999999999930e-01 -8.316300000000003134e-01 7.162870000000000914e+01 1.505034999999999854e+03
2.700000000000000316e-02 5.611589999999999634e-01 -2.990699999999999470e-01 7.046410000000000196e+01 1.504654999999999973e+03
2.800000000000000058e-02 5.608974999999999378e-01 2.796650000000000524e-01 6.930844999999999345e+01 1.504264999999999873e+03
2.900000000000000147e-02 5.606364999999999821e-01 8.868250000000001965e-01 6.816025000000000489e+01 1.503880000000000109e+03
3.000000000000000236e-02 5.603655000000000719e-01 1.491449999999999720e+00 6.699975000000000591e+01 1.503494999999999891e+03
3.099999999999999978e-02 5.600735000000000019e-01 2.054395000000000415e+00 6.579205000000000325e+01 1.503094999999999800e+03
3.200000000000000067e-02 5.597469999999999946e-01 2.535450000000000426e+00 6.449479999999999791e+01 1.502670000000000073e+03
3.300000000000000155e-02 5.593779999999999308e-01 2.900880000000000347e+00 6.306804999999999950e+01 1.502220000000000027e+03
3.400000000000000244e-02 5.589615000000000000e-01 3.129764999999999464e+00 6.148429999999999751e+01 1.501730000000000018e+03
3.500000000000000333e-02 5.585010000000000252e-01 3.217800000000000438e+00 5.973645000000000493e+01 1.501200000000000045e+03
3.600000000000000422e-02 5.580069999999999197e-01 3.177785000000000526e+00 5.784159999999999968e+01 1.500640000000000100e+03
3.700000000000000511e-02 5.574924999999999464e-01 3.037005000000000177e+00 5.584049999999999869e+01 1.500045000000000073e+03
3.799999999999999906e-02 5.569775000000000142e-01 2.832035000000000302e+00 5.379240000000000066e+01 1.499434999999999945e+03
3.899999999999999994e-02 5.564789999999999459e-01 2.602899999999999991e+00 5.176779999999999404e+01 1.498829999999999927e+03
4.000000000000000083e-02 5.560159999999999547e-01 2.387920000000000265e+00 4.983984999999999843e+01 1.498240000000000009e+03
4.100000000000000172e-02 5.556015000000000814e-01 2.219689999999999941e+00 4.807715000000000316e+01 1.497700000000000045e+03
4.200000000000000261e-02 5.552470000000000461e-01 2.123230000000000395e+00 4.653815000000000168e+01 1.497210000000000036e+03
4.300000000000000350e-02 5.549595000000000500e-01 2.115905000000000147e+00 4.526859999999999928e+01 1.496784999999999854e+03
4.400000000000000439e-02 5.547434999999999450e-01 2.208544999999999980e+00 4.430055000000000121e+01 1.496450000000000045e+03
4.499999999999999833e-02 5.546010000000000106e-01 2.407366999999999813e+00 4.365390000000000015e+01 1.496194999999999936e+03
4.599999999999999922e-02 5.545324999999999838e-01 2.716051000000000215e+00 4.333849999999999625e+01 1.496039999999999964e+03
4.700000000000000011e-02 5.545379999999999754e-01 3.137439999999999785e+00 4.335734999999999673e+01 1.495974999999999909e+03
4.800000000000000100e-02 5.546180000000000554e-01 3.674554999999999794e+00 4.370879999999999654e+01 1.496014999999999873e+03
4.900000000000000189e-02 5.547714999999999730e-01 4.330820000000000114e+00 4.438824999999999932e+01 1.496155000000000200e+03
5.000000000000000278e-02 5.549969999999999626e-01 5.109539999999999971e+00 4.538944999999999652e+01 1.496384999999999991e+03
5.100000000000000366e-02 5.552945000000000242e-01 6.012895000000000323e+00 4.670380000000000109e+01 1.496704999999999927e+03
5.200000000000000455e-02 5.556615000000000304e-01 7.040745000000000253e+00 4.832000000000000028e+01 1.497125000000000000e+03
5.300000000000000544e-02 5.560939999999999772e-01 8.189635000000000886e+00 5.022299999999999898e+01 1.497634999999999991e+03
5.399999999999999939e-02 5.565869999999999429e-01 9.452170000000000627e+00 5.239300000000000068e+01 1.498224999999999909e+03
5.500000000000000028e-02 5.571344999999999770e-01 1.081686499999999995e+01 5.480535000000000423e+01 1.498884999999999991e+03
5.600000000000000117e-02 5.577290000000000303e-01 1.226855999999999902e+01 5.743045000000000044e+01 1.499619999999999891e+03
5.700000000000000205e-02 5.583614999999999551e-01 1.378928000000000154e+01 6.023489999999999611e+01 1.500420000000000073e+03
5.800000000000000294e-02 5.590245000000000353e-01 1.535917500000000047e+01 6.318229999999999791e+01 1.501269999999999982e+03
5.900000000000000383e-02 5.597079999999999833e-01 1.695792999999999751e+01 6.623550000000000182e+01 1.502150000000000091e+03
6.000000000000000472e-02 5.604040000000000132e-01 1.856579999999999941e+01 6.935784999999999911e+01 1.503070000000000164e+03
6.099999999999999867e-02 5.611055000000000348e-01 2.016454999999999842e+01 7.251519999999999300e+01 1.504009999999999991e+03
6.199999999999999956e-02 5.618064999999999864e-01 2.173835000000000051e+01 7.567740000000000578e+01 1.504954999999999927e+03
6.300000000000000044e-02 5.625014999999999876e-01 2.327405000000000257e+01 7.881895000000000095e+01 1.505909999999999854e+03
6.400000000000000133e-02 5.631874999999999520e-01 2.476144999999999996e+01 8.192005000000000337e+01 1.506860000000000127e+03
6.500000000000000222e-02 5.638619999999999743e-01 2.619309999999999761e+01 8.496649999999999636e+01 1.507799999999999955e+03
6.600000000000000311e-02 5.645240000000000258e-01 2.756430000000000291e+01 8.794970000000000709e+01 1.508730000000000018e+03
6.700000000000000400e-02 5.651730000000000365e-01 2.887229999999999919e+01 9.086494999999999322e+01 1.509644999999999982e+03
6.800000000000000488e-02 5.658090000000000064e-01 3.011619999999999919e+01 9.371309999999999718e+01 1.510545000000000073e+03
6.900000000000000577e-02 5.664344999999999519e-01 3.129629999999999868e+01 9.649629999999999086e+01 1.511430000000000064e+03
7.000000000000000666e-02 5.670494999999999841e-01 3.241375000000000028e+01 9.922050000000000125e+01 1.512299999999999955e+03
7.100000000000000755e-02 5.676554999999999795e-01 3.346994999999999720e+01 1.018909000000000020e+02 1.513154999999999973e+03
7.200000000000000844e-02 5.682534999999999670e-01 3.446629999999999683e+01 1.045128500000000003e+02 1.513994999999999891e+03
7.300000000000000933e-02 5.688435000000000574e-01 3.540399999999999636e+01 1.070923999999999978e+02 1.514825000000000045e+03
7.399999999999999634e-02 5.694269999999999055e-01 3.628345000000000198e+01 1.096320000000000050e+02 1.515639999999999873e+03
7.499999999999999722e-02 5.700034999999999963e-01 3.710450000000000159e+01 1.121324999999999932e+02 1.516450000000000045e+03
7.599999999999999811e-02 5.705715000000000092e-01 3.786619999999999919e+01 1.145925000000000011e+02 1.517244999999999891e+03
7.699999999999999900e-02 5.711299999999999155e-01 3.856680000000000064e+01 1.170090000000000003e+02 1.518025000000000091e+03
7.799999999999999989e-02 5.716775000000000606e-01 3.920394999999999897e+01 1.193744999999999976e+02 1.518799999999999955e+03
7.900000000000000078e-02 5.722114999999999840e-01 3.977479999999999905e+01 1.216814999999999998e+02 1.519550000000000182e+03
8.000000000000000167e-02 5.727295000000000025e-01 4.027635000000000076e+01 1.239194999999999993e+02 1.520285000000000082e+03
8.100000000000000255e-02 5.732289999999999885e-01 4.070550000000000068e+01 1.260790000000000077e+02 1.520994999999999891e+03
8.200000000000000344e-02 5.737079999999999957e-01 4.105949999999999989e+01 1.281469999999999914e+02 1.521680000000000064e+03
8.300000000000000433e-02 5.741635000000000488e-01 4.133579999999999899e+01 1.301134999999999877e+02 1.522335000000000036e+03
8.400000000000000522e-02 5.745930000000000204e-01 4.153260000000000218e+01 1.319680000000000177e+02 1.522960000000000036e+03
8.500000000000000611e-02 5.749949999999999228e-01 4.164884999999999593e+01 1.337019999999999982e+02 1.523545000000000073e+03
8.600000000000000699e-02 5.753684999999999494e-01 4.168410000000000082e+01 1.353075000000000045e+02 1.524099999999999909e+03
8.700000000000000788e-02 5.757120000000000015e-01 4.163885000000000502e+01 1.367785000000000082e+02 1.524610000000000127e+03
8.800000000000000877e-02 5.760239999999999805e-01 4.151435000000000031e+01 1.381115000000000066e+02 1.525079999999999927e+03
8.899999999999999578e-02 5.763050000000000672e-01 4.131269999999999953e+01 1.393050000000000068e+02 1.525500000000000000e+03
8.999999999999999667e-02 5.765549999999999287e-01 4.103700000000000614e+01 1.403580000000000041e+02 1.525880000000000109e+03
9.099999999999999756e-02 5.767744999999999678e-01 4.069084999999999752e+01 1.412735000000000127e+02 1.526224999999999909e+03
9.199999999999999845e-02 5.769644999999999913e-01 4.027880000000000393e+01 1.420550000000000068e+02 1.526519999999999982e+03
9.299999999999999933e-02 5.771254999999999580e-01 3.980604999999999905e+01 1.427084999999999866e+02 1.526775000000000091e+03
9.400000000000000022e-02 5.772604999999999542e-01 3.927844999999999942e+01 1.432404999999999973e+02 1.526994999999999891e+03
9.500000000000000111e-02 5.773705000000000087e-01 3.870234999999999559e+01 1.436599999999999966e+02 1.527170000000000073e+03
9.600000000000000200e-02 5.774580000000000268e-01 3.808474999999999966e+01 1.439770000000000039e+02 1.527315000000000055e+03
9.700000000000000289e-02 5.775244999999999962e-01 3.743269999999999698e+01 1.442015000000000100e+02 1.527424999999999955e+03
9.800000000000000377e-02 5.775734999999999619e-01 3.675359999999999872e+01 1.443444999999999823e+02 1.527514999999999873e+03
9.900000000000000466e-02 5.776074999999999404e-01 3.605474999999999852e+01 1.444184999999999945e+02 1.527569999999999936e+03
1.000000000000000056e-01 5.776280000000000303e-01 3.534329999999999927e+01 1.444339999999999975e+02 1.527609999999999900e+03
1.010000000000000064e-01 5.776390000000000136e-01 3.462590000000000146e+01 1.444025000000000034e+02 1.527630000000000109e+03
1.020000000000000073e-01 5.776409999999999600e-01 3.390859999999999985e+01 1.443340000000000032e+02 1.527630000000000109e+03
1.030000000000000082e-01 5.776369999999999560e-01 3.319674999999999443e+01 1.442375000000000114e+02 1.527619999999999891e+03
1.040000000000000091e-01 5.776284999999999892e-01 3.249465000000000003e+01 1.441225000000000023e+02 1.527599999999999909e+03
1.050000000000000100e-01 5.776155000000000594e-01 3.180564999999999998e+01 1.439934999999999832e+02 1.527575000000000045e+03
1.059999999999999970e-01 5.776000000000000023e-01 3.113204999999999956e+01 1.438550000000000182e+02 1.527545000000000073e+03
1.069999999999999979e-01 5.775824999999999987e-01 3.047504999999999598e+01 1.437115000000000009e+02 1.527505000000000109e+03
1.079999999999999988e-01 5.775624999999999787e-01 2.983474999999999966e+01 1.435625000000000000e+02 1.527465000000000146e+03
1.089999999999999997e-01 5.775394999999999834e-01 2.921049999999999969e+01 1.434089999999999918e+02 1.527420000000000073e+03
1.100000000000000006e-01 5.775139999999999718e-01 2.860060000000000002e+01 1.432479999999999905e+02 1.527375000000000000e+03
1.110000000000000014e-01 5.774839999999999973e-01 2.800290000000000035e+01 1.430765000000000100e+02 1.527319999999999936e+03
1.120000000000000023e-01 5.774494999999999489e-01 2.741474999999999795e+01 1.428910000000000196e+02 1.527264999999999873e+03
1.130000000000000032e-01 5.774090000000000611e-01 2.683299999999999841e+01 1.426865000000000236e+02 1.527200000000000045e+03
1.140000000000000041e-01 5.773619999999999308e-01 2.625459999999999994e+01 1.424594999999999914e+02 1.527130000000000109e+03
1.150000000000000050e-01 5.773070000000000146e-01 2.567630000000000123e+01 1.422044999999999959e+02 1.527055000000000064e+03
1.160000000000000059e-01 5.772435000000000205e-01 2.509519999999999840e+01 1.419164999999999850e+02 1.526964999999999918e+03
1.170000000000000068e-01 5.771705000000000307e-01 2.450854999999999961e+01 1.415930000000000177e+02 1.526869999999999891e+03
1.180000000000000077e-01 5.770874999999999755e-01 2.391414999999999935e+01 1.412305000000000064e+02 1.526755000000000109e+03
1.190000000000000085e-01 5.769949999999999246e-01 2.331009999999999849e+01 1.408265000000000100e+02 1.526634999999999991e+03
1.200000000000000094e-01 5.768919999999999604e-01 2.269529999999999959e+01 1.403809999999999718e+02 1.526505000000000109e+03
1.209999999999999964e-01 5.767790000000000417e-01 2.206925000000000026e+01 1.398935000000000173e+02 1.526359999999999900e+03
1.219999999999999973e-01 5.766569999999999752e-01 2.143209999999999837e+01 1.393659999999999854e+02 1.526200000000000045e+03
1.229999999999999982e-01 5.765259999999999829e-01 2.078450000000000131e+01 1.388004999999999995e+02 1.526029999999999973e+03
1.239999999999999991e-01 5.763869999999999827e-01 2.012815000000000154e+01 1.382010000000000218e+02 1.525849999999999909e+03
1.250000000000000000e-01 5.762424999999999908e-01 1.946509999999999962e+01 1.375724999999999909e+02 1.525659999999999854e+03
1.260000000000000009e-01 5.760929999999999662e-01 1.879804999999999993e+01 1.369205000000000041e+02 1.525465000000000146e+03
1.270000000000000018e-01 5.759400000000000075e-01 1.813034999999999997e+01 1.362520000000000095e+02 1.525259999999999991e+03
1.280000000000000027e-01 5.757855000000000611e-01 1.746555000000000035e+01 1.355740000000000123e+02 1.525054999999999836e+03
1.290000000000000036e-01 5.756304999999999339e-01 1.680764999999999887e+01 1.348944999999999936e+02 1.524845000000000027e+03
1.300000000000000044e-01 5.754785000000000039e-01 1.616075000000000017e+01 1.342199999999999989e+02 1.524634999999999991e+03
1.310000000000000053e-01 5.753295000000000492e-01 1.552904999999999980e+01 1.335604999999999905e+02 1.524429999999999836e+03
1.320000000000000062e-01 5.751865000000000450e-01 1.491655000000000086e+01 1.329209999999999923e+02 1.524230000000000018e+03
1.330000000000000071e-01 5.750505000000000200e-01 1.432710999999999935e+01 1.323104999999999905e+02 1.524034999999999854e+03
1.340000000000000080e-01 5.749225000000000030e-01 1.376422999999999952e+01 1.317344999999999970e+02 1.523849999999999909e+03
1.350000000000000089e-01 5.748045000000000515e-01 1.323088500000000067e+01 1.311984999999999957e+02 1.523674999999999955e+03
1.360000000000000098e-01 5.746964999999999435e-01 1.272957000000000072e+01 1.307059999999999889e+02 1.523514999999999873e+03
1.370000000000000107e-01 5.745994999999999298e-01 1.226205500000000015e+01 1.302609999999999957e+02 1.523360000000000127e+03
1.380000000000000115e-01 5.745135000000000103e-01 1.182952000000000048e+01 1.298650000000000091e+02 1.523224999999999909e+03
1.390000000000000124e-01 5.744385000000000741e-01 1.143237500000000040e+01 1.295180000000000007e+02 1.523099999999999909e+03
1.400000000000000133e-01 5.743745000000000100e-01 1.107052999999999976e+01 1.292199999999999989e+02 1.522994999999999891e+03
1.410000000000000142e-01 5.743205000000000116e-01 1.074306500000000142e+01 1.289685000000000059e+02 1.522900000000000091e+03
1.420000000000000151e-01 5.742760000000000087e-01 1.044861500000000021e+01 1.287609999999999957e+02 1.522825000000000045e+03
1.430000000000000160e-01 5.742404999999999315e-01 1.018541499999999900e+01 1.285935000000000059e+02 1.522755000000000109e+03
1.440000000000000169e-01 5.742119999999999447e-01 9.951180000000000803e+00 1.284615000000000009e+02 1.522695000000000164e+03
1.450000000000000178e-01 5.741899999999999782e-01 9.743479999999999919e+00 1.283609999999999900e+02 1.522654999999999973e+03
1.459999999999999909e-01 5.741739999999999622e-01 9.559699999999999420e+00 1.282860000000000014e+02 1.522615000000000009e+03
1.469999999999999918e-01 5.741614999999999913e-01 9.397054999999999936e+00 1.282315000000000111e+02 1.522589999999999918e+03
1.479999999999999927e-01 5.741524999999999546e-01 9.252905000000000157e+00 1.281924999999999955e+02 1.522565000000000055e+03
1.489999999999999936e-01 5.741450000000000164e-01 9.124674999999999869e+00 1.281659999999999968e+02 1.522545000000000073e+03
1.499999999999999944e-01 5.741389999999999549e-01 9.009879999999999001e+00 1.281454999999999984e+02 1.522525000000000091e+03
1.509999999999999953e-01 5.741340000000000332e-01 8.906290000000000262e+00 1.281295000000000073e+02 1.522514999999999873e+03
1.519999999999999962e-01 5.741290000000000004e-01 8.811944999999999695e+00 1.281140000000000043e+02 1.522500000000000000e+03
1.529999999999999971e-01 5.741230000000000500e-01 8.724959999999999383e+00 1.280960000000000036e+02 1.522490000000000009e+03
1.539999999999999980e-01 5.741165000000000296e-01 8.643744999999999123e+00 1.280749999999999886e+02 1.522474999999999909e+03
1.549999999999999989e-01 5.741089999999999804e-01 8.567015000000001379e+00 1.280484999999999900e+02 1.522465000000000146e+03
1.559999999999999998e-01 5.740999999999999437e-01 8.493615000000000137e+00 1.280165000000000077e+02 1.522450000000000045e+03
1.570000000000000007e-01 5.740895000000000303e-01 8.422554999999999126e+00 1.279780000000000086e+02 1.522440000000000055e+03
1.580000000000000016e-01 5.740779999999999772e-01 8.353069999999998885e+00 1.279330000000000069e+02 1.522425000000000182e+03
1.590000000000000024e-01 5.740644999999999776e-01 8.284534999999999982e+00 1.278810000000000002e+02 1.522405000000000200e+03
