# t [s], A [cm^2], U [cm/s], P [cPa], c [cm/s]
1.000000000000000021e-03 1.482534999999999825e-01 2.509730000000000016e-01 1.035314999999999941e+02 1.814054999999999836e+03
2.000000000000000042e-03 1.482334999999999903e-01 1.741416500000000145e+00 1.006496500000000083e+02 1.813869999999999891e+03
3.000000000000000062e-03 1.481434999999999835e-01 3.594346499999999889e+00 9.691765000000000896e+01 1.813099999999999909e+03
4.000000000000000083e-03 1.480024999999999813e-01 5.653185319999999514e+00 9.265285000000000082e+01 1.811920000000000073e+03
5.000000000000000104e-03 1.478349999999999942e-01 7.866604999999999848e+00 8.849514999999999532e+01 1.810529999999999973e+03
6.000000000000000125e-03 1.476589999999999847e-01 1.014914499999999897e+01 8.483854999999999791e+01 1.809085000000000036e+03
7.000000000000000146e-03 1.474860000000000060e-01 1.236718000000000117e+01 8.173489999999999611e+01 1.807675000000000182e+03
8.000000000000000167e-03 1.473210000000000075e-01 1.439759999999999884e+01 7.903034999999999854e+01 1.806345000000000027e+03
9.000000000000001055e-03 1.471660000000000190e-01 1.619063500000000033e+01 7.660060000000000002e+01 1.805115000000000009e+03
1.000000000000000194e-02 1.470239999999999880e-01 1.775795000000000101e+01 7.444365000000000521e+01 1.804005000000000109e+03
1.099999999999999936e-02 1.468975000000000142e-01 1.912065000000000126e+01 7.259309999999999263e+01 1.803029999999999973e+03
1.200000000000000025e-02 1.467880000000000018e-01 2.028989999999999938e+01 7.104510000000000502e+01 1.802184999999999945e+03
1.300000000000000114e-02 1.466939999999999911e-01 2.127280000000000015e+01 6.976430000000000575e+01 1.801470000000000027e+03
1.400000000000000203e-02 1.466144999999999810e-01 2.207515000000000072e+01 6.870149999999999579e+01 1.800869999999999891e+03
1.499999999999999944e-02 1.465474999999999972e-01 2.270239999999999725e+01 6.779784999999999684e+01 1.800369999999999891e+03
1.600000000000000033e-02 1.464900000000000091e-01 2.316955000000000098e+01 6.700620000000000687e+01 1.799954999999999927e+03
1.700000000000000122e-02 1.464420000000000166e-01 2.351565000000000083e+01 6.633150000000000546e+01 1.799605000000000018e+03
1.800000000000000211e-02 1.464030000000000054e-01 2.380570000000000164e+01 6.585575000000000045e+01 1.799329999999999927e+03
1.900000000000000300e-02 1.463774999999999937e-01 2.411520000000000152e+01 6.571684999999999377e+01 1.799154999999999973e+03
2.000000000000000042e-02 1.463685000000000125e-01 2.450464999999999804e+01 6.604749999999999943e+01 1.799099999999999909e+03
2.100000000000000130e-02 1.463784999999999947e-01 2.499844999999999828e+01 6.690899999999999181e+01 1.799184999999999945e+03
2.200000000000000219e-02 1.464074999999999960e-01 2.557789999999999964e+01 6.825180000000000291e+01 1.799414999999999964e+03
2.299999999999999961e-02 1.464524999999999855e-01 2.618854999999999933e+01 6.992015000000000668e+01 1.799775000000000091e+03
2.400000000000000050e-02 1.465084999999999860e-01 2.675865000000000293e+01 7.169159999999999400e+01 1.800204999999999927e+03
2.500000000000000139e-02 1.465675000000000172e-01 2.721994999999999720e+01 7.333440000000000225e+01 1.800679999999999836e+03
2.600000000000000228e-02 1.466244999999999910e-01 2.752410000000000068e+01 7.466219999999999857e+01 1.801130000000000109e+03
2.700000000000000316e-02 1.466724999999999834e-01 2.765189999999999770e+01 7.557049999999999557e+01 1.801514999999999873e+03
2.800000000000000058e-02 1.467094999999999927e-01 2.761314999999999742e+01 7.604675000000000296e+01 1.801820000000000164e+03
2.900000000000000147e-02 1.467344999999999899e-01 2.743874999999999886e+01 7.615694999999999482e+01 1.802029999999999973e+03
3.000000000000000236e-02 1.467490000000000183e-01 2.716929999999999978e+01 7.601324999999999932e+01 1.802159999999999854e+03
3.099999999999999978e-02 1.467565000000000119e-01 2.684254999999999924e+01 7.573609999999999332e+01 1.802224999999999909e+03
3.200000000000000067e-02 1.467574999999999852e-01 2.648445000000000249e+01 7.542154999999999632e+01 1.802244999999999891e+03
3.300000000000000155e-02 1.467565000000000119e-01 2.610549999999999926e+01 7.512160000000000082e+01 1.802240000000000009e+03
3.400000000000000244e-02 1.467529999999999946e-01 2.570230000000000103e+01 7.484104999999999563e+01 1.802215000000000146e+03
3.500000000000000333e-02 1.467475000000000029e-01 2.526275000000000048e+01 7.454845000000000255e+01 1.802179999999999836e+03
3.600000000000000422e-02 1.467394999999999949e-01 2.477385000000000304e+01 7.419650000000000034e+01 1.802125000000000000e+03
3.700000000000000511e-02 1.467275000000000107e-01 2.422869999999999990e+01 7.374450000000000216e+01 1.802034999999999854e+03
3.799999999999999906e-02 1.467120000000000091e-01 2.363204999999999956e+01 7.317725000000000080e+01 1.801920000000000073e+03
3.899999999999999994e-02 1.466919999999999891e-01 2.300189999999999912e+01 7.251609999999999445e+01 1.801775000000000091e+03
4.000000000000000083e-02 1.466695000000000082e-01 2.236844999999999928e+01 7.181960000000000832e+01 1.801599999999999909e+03
4.100000000000000172e-02 1.466459999999999986e-01 2.176944999999999908e+01 7.117400000000000659e+01 1.801424999999999955e+03
4.200000000000000261e-02 1.466250000000000053e-01 2.124329999999999785e+01 7.067654999999999177e+01 1.801259999999999991e+03
4.300000000000000350e-02 1.466085000000000027e-01 2.082240000000000180e+01 7.041595000000000937e+01 1.801134999999999991e+03
4.400000000000000439e-02 1.466004999999999947e-01 2.052734999999999843e+01 7.045349999999999113e+01 1.801065000000000055e+03
4.499999999999999833e-02 1.466020000000000101e-01 2.036294999999999789e+01 7.081094999999999118e+01 1.801069999999999936e+03
4.599999999999999922e-02 1.466135000000000077e-01 2.031820000000000093e+01 7.146510000000000673e+01 1.801154999999999973e+03
4.700000000000000011e-02 1.466350000000000153e-01 2.036749999999999972e+01 7.235169999999999391e+01 1.801315000000000055e+03
4.800000000000000100e-02 1.466640000000000166e-01 2.047540000000000049e+01 7.337520000000000664e+01 1.801530000000000200e+03
4.900000000000000189e-02 1.466979999999999951e-01 2.060105000000000075e+01 7.442345000000000255e+01 1.801779999999999973e+03
5.000000000000000278e-02 1.467330000000000023e-01 2.070380000000000109e+01 7.538290000000000646e+01 1.802049999999999955e+03
5.100000000000000366e-02 1.467650000000000066e-01 2.074739999999999895e+01 7.615264999999999418e+01 1.802300000000000182e+03
5.200000000000000455e-02 1.467924999999999924e-01 2.070304999999999751e+01 7.665440000000000964e+01 1.802510000000000218e+03
5.300000000000000544e-02 1.468109999999999971e-01 2.055120000000000147e+01 7.683840000000000714e+01 1.802654999999999973e+03
5.399999999999999939e-02 1.468194999999999917e-01 2.028160000000000096e+01 7.668385000000000673e+01 1.802730000000000018e+03
5.500000000000000028e-02 1.468174999999999897e-01 1.989225000000000065e+01 7.619644999999999868e+01 1.802715000000000146e+03
5.600000000000000117e-02 1.468030000000000168e-01 1.938814999999999955e+01 7.540234999999999843e+01 1.802610000000000127e+03
5.700000000000000205e-02 1.467785000000000062e-01 1.877925000000000111e+01 7.434184999999999377e+01 1.802424999999999955e+03
5.800000000000000294e-02 1.467434999999999989e-01 1.807860000000000156e+01 7.306280000000000996e+01 1.802160000000000082e+03
5.900000000000000383e-02 1.466995000000000104e-01 1.730134999999999934e+01 7.161539999999999395e+01 1.801825000000000045e+03
6.000000000000000472e-02 1.466490000000000016e-01 1.646385000000000076e+01 7.004914999999999736e+01 1.801434999999999945e+03
6.099999999999999867e-02 1.465925000000000145e-01 1.558309999999999995e+01 6.841060000000000230e+01 1.801000000000000000e+03
6.199999999999999956e-02 1.465319999999999956e-01 1.467715000000000103e+01 6.674394999999999811e+01 1.800535000000000082e+03
6.300000000000000044e-02 1.464690000000000158e-01 1.376490000000000080e+01 6.509180000000000632e+01 1.800054999999999836e+03
6.400000000000000133e-02 1.464055000000000217e-01 1.286659000000000042e+01 6.349649999999999750e+01 1.799559999999999945e+03
6.500000000000000222e-02 1.463430000000000009e-01 1.200385999999999953e+01 6.200124999999999886e+01 1.799079999999999927e+03
6.600000000000000311e-02 1.462835000000000107e-01 1.119947000000000159e+01 6.065104999999999791e+01 1.798619999999999891e+03
6.700000000000000400e-02 1.462284999999999835e-01 1.047703500000000076e+01 5.949240000000000350e+01 1.798190000000000055e+03
6.800000000000000488e-02 1.461804999999999910e-01 9.860139999999999461e+00 5.857215000000000060e+01 1.797809999999999945e+03
6.900000000000000577e-02 1.461405000000000065e-01 9.371684999999999377e+00 5.793599999999999994e+01 1.797494999999999891e+03
7.000000000000000666e-02 1.461100000000000176e-01 9.032664999999999722e+00 5.762630000000000052e+01 1.797255000000000109e+03
7.100000000000000755e-02 1.460925000000000140e-01 8.861394999999999911e+00 5.767954999999999899e+01 1.797110000000000127e+03
7.200000000000000844e-02 1.460874999999999813e-01 8.872334999999999638e+00 5.812430000000000518e+01 1.797059999999999945e+03
7.300000000000000933e-02 1.460974999999999913e-01 9.075565000000000992e+00 5.897919999999999874e+01 1.797130000000000109e+03
7.399999999999999634e-02 1.461230000000000029e-01 9.476184999999999192e+00 6.025175000000000125e+01 1.797315000000000055e+03
7.499999999999999722e-02 1.461640000000000161e-01 1.007423499999999983e+01 6.193800000000000239e+01 1.797619999999999891e+03
7.599999999999999811e-02 1.462215000000000042e-01 1.086462000000000039e+01 6.402240000000000464e+01 1.798049999999999955e+03
7.699999999999999900e-02 1.462944999999999940e-01 1.183748999999999896e+01 6.647925000000000750e+01 1.798599999999999909e+03
7.799999999999999989e-02 1.463820000000000121e-01 1.297894999999999932e+01 6.927400000000000091e+01 1.799269999999999982e+03
7.900000000000000078e-02 1.464834999999999887e-01 1.427164999999999928e+01 7.236510000000001241e+01 1.800039999999999964e+03
8.000000000000000167e-02 1.465974999999999917e-01 1.569575000000000031e+01 7.570650000000000546e+01 1.800914999999999964e+03
8.100000000000000255e-02 1.467220000000000191e-01 1.722970000000000113e+01 7.924989999999999668e+01 1.801875000000000000e+03
8.200000000000000344e-02 1.468565000000000009e-01 1.885139999999999816e+01 8.294704999999999018e+01 1.802909999999999854e+03
8.300000000000000433e-02 1.469980000000000175e-01 2.053885000000000005e+01 8.675190000000000623e+01 1.804005000000000109e+03
8.400000000000000522e-02 1.471459999999999990e-01 2.227100000000000080e+01 9.062245000000000061e+01 1.805150000000000091e+03
8.500000000000000611e-02 1.472974999999999979e-01 2.402844999999999942e+01 9.452174999999999727e+01 1.806329999999999927e+03
8.600000000000000699e-02 1.474519999999999997e-01 2.579400000000000048e+01 9.842019999999999413e+01 1.807539999999999964e+03
8.700000000000000788e-02 1.476080000000000170e-01 2.755284999999999940e+01 1.022941000000000003e+02 1.808759999999999991e+03
8.800000000000000877e-02 1.477649999999999797e-01 2.929279999999999973e+01 1.061265500000000088e+02 1.809985000000000127e+03
8.899999999999999578e-02 1.479219999999999979e-01 3.100430000000000064e+01 1.099074999999999989e+02 1.811220000000000027e+03
8.999999999999999667e-02 1.480770000000000142e-01 3.268019999999999925e+01 1.136320000000000050e+02 1.812440000000000055e+03
9.099999999999999756e-02 1.482320000000000026e-01 3.431530000000000058e+01 1.173004999999999995e+02 1.813664999999999964e+03
9.199999999999999845e-02 1.483849999999999891e-01 3.590619999999999834e+01 1.209149999999999920e+02 1.814875000000000000e+03
9.299999999999999933e-02 1.485374999999999890e-01 3.745085000000000264e+01 1.244795000000000016e+02 1.816075000000000045e+03
9.400000000000000022e-02 1.486879999999999868e-01 3.894800000000000040e+01 1.280000000000000000e+02 1.817269999999999982e+03
9.500000000000000111e-02 1.488369999999999971e-01 4.039660000000000650e+01 1.314799999999999898e+02 1.818450000000000045e+03
9.600000000000000200e-02 1.489844999999999919e-01 4.179599999999999937e+01 1.349214999999999804e+02 1.819625000000000000e+03
9.700000000000000289e-02 1.491310000000000136e-01 4.314499999999999602e+01 1.383255000000000052e+02 1.820789999999999964e+03
9.800000000000000377e-02 1.492759999999999920e-01 4.444209999999999638e+01 1.416884999999999764e+02 1.821944999999999936e+03
9.900000000000000466e-02 1.494194999999999829e-01 4.568520000000000181e+01 1.450054999999999836e+02 1.823089999999999918e+03
1.000000000000000056e-01 1.495615000000000139e-01 4.687149999999999750e+01 1.482690000000000055e+02 1.824224999999999909e+03
1.010000000000000064e-01 1.497010000000000007e-01 4.799774999999999636e+01 1.514679999999999893e+02 1.825340000000000146e+03
1.020000000000000073e-01 1.498384999999999856e-01 4.906005000000000393e+01 1.545910000000000082e+02 1.826440000000000055e+03
1.030000000000000082e-01 1.499729999999999952e-01 5.005409999999999826e+01 1.576239999999999952e+02 1.827514999999999873e+03
1.040000000000000091e-01 1.501035000000000008e-01 5.097530000000000427e+01 1.605525000000000091e+02 1.828570000000000164e+03
1.050000000000000100e-01 1.502304999999999890e-01 5.181900000000000261e+01 1.633615000000000066e+02 1.829589999999999918e+03
1.059999999999999970e-01 1.503530000000000144e-01 5.258039999999999736e+01 1.660364999999999895e+02 1.830570000000000164e+03
1.069999999999999979e-01 1.504699999999999926e-01 5.325515000000000043e+01 1.685639999999999930e+02 1.831519999999999982e+03
1.079999999999999988e-01 1.505819999999999936e-01 5.383894999999999698e+01 1.709310000000000116e+02 1.832424999999999955e+03
1.089999999999999997e-01 1.506875000000000020e-01 5.432800000000000296e+01 1.731245000000000118e+02 1.833275000000000091e+03
1.100000000000000006e-01 1.507860000000000034e-01 5.471940000000000026e+01 1.751360000000000241e+02 1.834075000000000045e+03
1.110000000000000014e-01 1.508774999999999977e-01 5.501059999999999661e+01 1.769565000000000055e+02 1.834815000000000055e+03
1.120000000000000023e-01 1.509619999999999851e-01 5.520015000000000072e+01 1.785799999999999841e+02 1.835500000000000000e+03
1.130000000000000032e-01 1.510380000000000056e-01 5.528744999999999976e+01 1.800024999999999977e+02 1.836119999999999891e+03
1.140000000000000041e-01 1.511065000000000047e-01 5.527289999999999992e+01 1.812224999999999966e+02 1.836684999999999945e+03
1.150000000000000050e-01 1.511664999999999814e-01 5.515824999999999534e+01 1.822420000000000186e+02 1.837170000000000073e+03
1.160000000000000059e-01 1.512189999999999923e-01 5.494615000000000293e+01 1.830634999999999764e+02 1.837605000000000018e+03
1.170000000000000068e-01 1.512624999999999942e-01 5.464065000000000083e+01 1.836945000000000050e+02 1.837970000000000027e+03
1.180000000000000077e-01 1.512989999999999891e-01 5.424675000000000580e+01 1.841424999999999841e+02 1.838264999999999873e+03
1.190000000000000085e-01 1.513275000000000037e-01 5.377065000000000339e+01 1.844200000000000159e+02 1.838505000000000109e+03
1.200000000000000094e-01 1.513490000000000113e-01 5.321940000000000026e+01 1.845389999999999873e+02 1.838690000000000055e+03
1.209999999999999964e-01 1.513634999999999842e-01 5.260085000000000122e+01 1.845149999999999864e+02 1.838815000000000055e+03
1.219999999999999973e-01 1.513714999999999922e-01 5.192345000000000255e+01 1.843634999999999877e+02 1.838885000000000218e+03
1.229999999999999982e-01 1.513745000000000229e-01 5.119590000000000174e+01 1.841020000000000039e+02 1.838914999999999964e+03
1.239999999999999991e-01 1.513724999999999932e-01 5.042730000000000246e+01 1.837465000000000259e+02 1.838904999999999973e+03
1.250000000000000000e-01 1.513649999999999995e-01 4.962630000000000052e+01 1.833139999999999930e+02 1.838855000000000018e+03
1.260000000000000009e-01 1.513550000000000173e-01 4.880150000000000432e+01 1.828199999999999932e+02 1.838775000000000091e+03
1.270000000000000018e-01 1.513410000000000033e-01 4.796079999999999899e+01 1.822794999999999845e+02 1.838670000000000073e+03
1.280000000000000027e-01 1.513249999999999873e-01 4.711145000000000493e+01 1.817049999999999841e+02 1.838539999999999964e+03
1.290000000000000036e-01 1.513059999999999961e-01 4.625979999999999848e+01 1.811064999999999827e+02 1.838389999999999873e+03
1.300000000000000044e-01 1.512855000000000172e-01 4.541119999999999379e+01 1.804939999999999998e+02 1.838230000000000018e+03
1.310000000000000053e-01 1.512645000000000239e-01 4.457004999999999484e+01 1.798734999999999786e+02 1.838059999999999945e+03
1.320000000000000062e-01 1.512419999999999876e-01 4.373959999999999582e+01 1.792489999999999952e+02 1.837880000000000109e+03
1.330000000000000071e-01 1.512185000000000057e-01 4.292194999999999538e+01 1.786225000000000023e+02 1.837695000000000164e+03
1.340000000000000080e-01 1.511949999999999961e-01 4.211830000000000496e+01 1.779945000000000164e+02 1.837505000000000109e+03
1.350000000000000089e-01 1.511704999999999854e-01 4.132880000000000109e+01 1.773634999999999877e+02 1.837304999999999836e+03
1.360000000000000098e-01 1.511454999999999882e-01 4.055275000000000318e+01 1.767259999999999991e+02 1.837105000000000018e+03
1.370000000000000107e-01 1.511200000000000043e-01 3.978870000000000573e+01 1.760769999999999982e+02 1.836894999999999982e+03
1.380000000000000115e-01 1.510945000000000205e-01 3.903464999999999918e+01 1.754120000000000061e+02 1.836684999999999945e+03
1.390000000000000124e-01 1.510670000000000068e-01 3.828794999999999504e+01 1.747239999999999895e+02 1.836469999999999800e+03
1.400000000000000133e-01 1.510390000000000066e-01 3.754585000000000150e+01 1.740074999999999932e+02 1.836240000000000009e+03
1.410000000000000142e-01 1.510095000000000187e-01 3.680530000000000257e+01 1.732560000000000002e+02 1.836009999999999991e+03
1.420000000000000151e-01 1.509790000000000021e-01 3.606334999999999980e+01 1.724630000000000223e+02 1.835759999999999991e+03
1.430000000000000160e-01 1.509464999999999835e-01 3.531704999999999472e+01 1.716234999999999786e+02 1.835494999999999891e+03
1.440000000000000169e-01 1.509125000000000050e-01 3.456385000000000218e+01 1.707330000000000041e+02 1.835220000000000027e+03
1.450000000000000178e-01 1.508760000000000101e-01 3.380150000000000432e+01 1.697875000000000227e+02 1.834930000000000064e+03
1.459999999999999909e-01 1.508379999999999999e-01 3.302830000000000155e+01 1.687855000000000132e+02 1.834625000000000000e+03
1.469999999999999918e-01 1.507975000000000010e-01 3.224314999999999998e+01 1.677259999999999991e+02 1.834295000000000073e+03
1.479999999999999927e-01 1.507550000000000001e-01 3.144565000000000055e+01 1.666090000000000089e+02 1.833954999999999927e+03
1.489999999999999936e-01 1.507094999999999962e-01 3.063609999999999900e+01 1.654379999999999882e+02 1.833594999999999800e+03
1.499999999999999944e-01 1.506624999999999770e-01 2.981544999999999845e+01 1.642164999999999964e+02 1.833215000000000146e+03
1.509999999999999953e-01 1.506129999999999969e-01 2.898550000000000182e+01 1.629499999999999886e+02 1.832819999999999936e+03
1.519999999999999962e-01 1.505620000000000014e-01 2.814874999999999972e+01 1.616449999999999818e+02 1.832414999999999964e+03
1.529999999999999971e-01 1.505090000000000039e-01 2.730845000000000056e+01 1.603109999999999786e+02 1.831985000000000127e+03
1.539999999999999980e-01 1.504550000000000054e-01 2.646824999999999761e+01 1.589565000000000055e+02 1.831554999999999836e+03
1.549999999999999989e-01 1.503999999999999782e-01 2.563239999999999696e+01 1.575919999999999845e+02 1.831115000000000009e+03
1.559999999999999998e-01 1.503440000000000054e-01 2.480550000000000210e+01 1.562275000000000205e+02 1.830670000000000073e+03
1.570000000000000007e-01 1.502880000000000049e-01 2.399245000000000161e+01 1.548765000000000214e+02 1.830220000000000027e+03
1.580000000000000016e-01 1.502320000000000044e-01 2.319814999999999827e+01 1.535484999999999900e+02 1.829775000000000091e+03
1.590000000000000024e-01 1.501775000000000193e-01 2.242745000000000033e+01 1.522549999999999955e+02 1.829335000000000036e+03
