# t [s], A [cm^2], U [cm/s], P [cPa], c [cm/s]
1.000000000000000021e-03 4.700919999999999543e-01 3.786949999999997263e-03 9.393444999999999823e+01 1.572105000000000018e+03
2.000000000000000042e-03 4.700854999999999895e-01 1.505199999999999073e-04 9.391104999999998881e+01 1.572099999999999909e+03
3.000000000000000062e-03 4.701265000000000027e-01 9.636379999999999946e-02 9.400865000000000293e+01 1.572119999999999891e+03
4.000000000000000083e-03 4.701624999999999832e-01 1.882820500000000064e-01 9.412109999999999843e+01 1.572150000000000091e+03
5.000000000000000104e-03 4.701445000000000207e-01 1.636050500000000019e-01 9.407160000000000366e+01 1.572144999999999982e+03
6.000000000000000125e-03 4.700975000000000015e-01 6.622400000000000508e-02 9.386740000000000350e+01 1.572099999999999909e+03
7.000000000000000146e-03 4.700535000000000130e-01 -3.231450000000002376e-02 9.359409999999999741e+01 1.572034999999999854e+03
8.000000000000000167e-03 4.699864999999999737e-01 -1.943099999999999827e-01 9.319294999999999618e+01 1.571945000000000164e+03
9.000000000000001055e-03 4.698740000000000139e-01 -4.749049999999999105e-01 9.257665000000000077e+01 1.571799999999999955e+03
1.000000000000000194e-02 4.697135000000000060e-01 -8.766450000000000076e-01 9.170449999999999591e+01 1.571599999999999909e+03
1.099999999999999936e-02 4.694945000000000368e-01 -1.413935000000000164e+00 9.052355000000000018e+01 1.571320000000000164e+03
1.200000000000000025e-02 4.692064999999999708e-01 -2.093789999999999818e+00 8.898519999999999186e+01 1.570944999999999936e+03
1.300000000000000114e-02 4.688660000000000050e-01 -2.856279999999999930e+00 8.712494999999999834e+01 1.570490000000000009e+03
1.400000000000000203e-02 4.685175000000000312e-01 -3.571059999999999679e+00 8.509135000000000559e+01 1.569970000000000027e+03
1.499999999999999944e-02 4.682065000000000254e-01 -4.095551500000000011e+00 8.308899999999999864e+01 1.569440000000000055e+03
1.600000000000000033e-02 4.679605000000000015e-01 -4.337563899999999251e+00 8.129110000000000014e+01 1.568940000000000055e+03
1.700000000000000122e-02 4.677790000000000559e-01 -4.281960500000000280e+00 7.978085000000000093e+01 1.568480000000000018e+03
1.800000000000000211e-02 4.676394999999999857e-01 -3.980659000000000169e+00 7.854050000000000864e+01 1.568079999999999927e+03
1.900000000000000300e-02 4.675110000000000099e-01 -3.522342000000000084e+00 7.747669999999999391e+01 1.567719999999999800e+03
2.000000000000000042e-02 4.673640000000000017e-01 -2.997572499999999973e+00 7.646495000000000175e+01 1.567375000000000000e+03
2.100000000000000130e-02 4.671810000000000129e-01 -2.470244999999999802e+00 7.539584999999999582e+01 1.567014999999999873e+03
2.200000000000000219e-02 4.669605000000000006e-01 -1.963244999999999907e+00 7.420849999999998658e+01 1.566634999999999991e+03
2.299999999999999961e-02 4.667129999999999890e-01 -1.462210000000000010e+00 7.290109999999999957e+01 1.566224999999999909e+03
2.400000000000000050e-02 4.664559999999999818e-01 -9.339100000000000179e-01 7.151599999999999113e+01 1.565805000000000064e+03
2.500000000000000139e-02 4.662040000000000073e-01 -3.499499999999997613e-01 7.011019999999999186e+01 1.565375000000000000e+03
2.600000000000000228e-02 4.659625000000000572e-01 2.944599999999999440e-01 6.872450000000000614e+01 1.564940000000000055e+03
2.700000000000000316e-02 4.657255000000000145e-01 9.722499999999998366e-01 6.736250000000001137e+01 1.564514999999999873e+03
2.800000000000000058e-02 4.654785000000000172e-01 1.627559999999999896e+00 6.598429999999999040e+01 1.564079999999999927e+03
2.900000000000000147e-02 4.652009999999999756e-01 2.187355000000000160e+00 6.451465000000000316e+01 1.563630000000000109e+03
3.000000000000000236e-02 4.648745000000000238e-01 2.577889999999999571e+00 6.286169999999999902e+01 1.563130000000000109e+03
3.099999999999999978e-02 4.644840000000000080e-01 2.741800000000000015e+00 6.094199999999999307e+01 1.562579999999999927e+03
3.200000000000000067e-02 4.640265000000000084e-01 2.651769999999999516e+00 5.870465000000000089e+01 1.561954999999999927e+03
3.300000000000000155e-02 4.635089999999999488e-01 2.317399999999999682e+00 5.614860000000000184e+01 1.561259999999999991e+03
3.400000000000000244e-02 4.629489999999999994e-01 1.782974999999999977e+00 5.332880000000000109e+01 1.560490000000000009e+03
3.500000000000000333e-02 4.623740000000000072e-01 1.118459999999999788e+00 5.034895000000000209e+01 1.559674999999999955e+03
3.600000000000000422e-02 4.618120000000000003e-01 4.056049999999995492e-01 4.734560000000000457e+01 1.558849999999999909e+03
3.700000000000000511e-02 4.612904999999999922e-01 -2.755349999999996413e-01 4.446710000000000207e+01 1.558045000000000073e+03
3.799999999999999906e-02 4.608324999999999783e-01 -8.568149999999996602e-01 4.185425000000000040e+01 1.557295000000000073e+03
3.899999999999999994e-02 4.604535000000000156e-01 -1.287774999999999892e+00 3.962510000000000332e+01 1.556630000000000109e+03
4.000000000000000083e-02 4.601635000000000031e-01 -1.536784999999999846e+00 3.786625000000000085e+01 1.556079999999999927e+03
4.100000000000000172e-02 4.599680000000000435e-01 -1.588650000000000118e+00 3.663060000000000116e+01 1.555654999999999973e+03
4.200000000000000261e-02 4.598654999999999826e-01 -1.440166999999999975e+00 3.594034999999999513e+01 1.555375000000000000e+03
4.300000000000000350e-02 4.598539999999999850e-01 -1.095030500000000018e+00 3.579305000000000092e+01 1.555244999999999891e+03
4.400000000000000439e-02 4.599290000000000322e-01 -5.594069999999999876e-01 3.616984999999999673e+01 1.555250000000000000e+03
4.499999999999999833e-02 4.600865000000000093e-01 1.608549999999999702e-01 3.704274999999999807e+01 1.555400000000000091e+03
4.599999999999999922e-02 4.603205000000000213e-01 1.061049999999999827e+00 3.837960000000000349e+01 1.555684999999999945e+03
4.700000000000000011e-02 4.606284999999999963e-01 2.136624999999999996e+00 4.014710000000000178e+01 1.556094999999999800e+03
4.800000000000000100e-02 4.610044999999999837e-01 3.381164999999999754e+00 4.231034999999999968e+01 1.556619999999999891e+03
4.900000000000000189e-02 4.614429999999999921e-01 4.784105000000000274e+00 4.483190000000000452e+01 1.557255000000000109e+03
5.000000000000000278e-02 4.619354999999999434e-01 6.329004999999999548e+00 4.766955000000000098e+01 1.557985000000000127e+03
5.100000000000000366e-02 4.624734999999999818e-01 7.993047000000000679e+00 5.077495000000000402e+01 1.558795000000000073e+03
5.200000000000000455e-02 4.630469999999999864e-01 9.747461000000001263e+00 5.409354999999999336e+01 1.559680000000000064e+03
5.300000000000000544e-02 4.636439999999999451e-01 1.155935999999999986e+01 5.756595000000000084e+01 1.560619999999999891e+03
5.399999999999999939e-02 4.642540000000000000e-01 1.339385500000000029e+01 6.113044999999999618e+01 1.561589999999999918e+03
5.500000000000000028e-02 4.648660000000000014e-01 1.521667499999999862e+01 6.472615000000000407e+01 1.562594999999999800e+03
5.600000000000000117e-02 4.654705000000000092e-01 1.699658499999999961e+01 6.829689999999999372e+01 1.563595000000000027e+03
5.700000000000000205e-02 4.660590000000000011e-01 1.870690000000000097e+01 7.179399999999999693e+01 1.564594999999999800e+03
5.800000000000000294e-02 4.666279999999999872e-01 2.032695000000000007e+01 7.517889999999999873e+01 1.565574999999999818e+03
5.900000000000000383e-02 4.671724999999999905e-01 2.184250000000000114e+01 7.842474999999998886e+01 1.566525000000000091e+03
6.000000000000000472e-02 4.676915000000000378e-01 2.324540000000000006e+01 8.151650000000000773e+01 1.567445000000000164e+03
6.099999999999999867e-02 4.681859999999999911e-01 2.453304999999999936e+01 8.445029999999999859e+01 1.568320000000000164e+03
6.199999999999999956e-02 4.686569999999999903e-01 2.570785000000000053e+01 8.723230000000000928e+01 1.569164999999999964e+03
6.300000000000000044e-02 4.691085000000000393e-01 2.677560000000000073e+01 8.987669999999999959e+01 1.569974999999999909e+03
6.400000000000000133e-02 4.695435000000000025e-01 2.774504999999999910e+01 9.240340000000000487e+01 1.570755000000000109e+03
6.500000000000000222e-02 4.699659999999999949e-01 2.862655000000000172e+01 9.483625000000000682e+01 1.571505000000000109e+03
6.600000000000000311e-02 4.703815000000000079e-01 2.943140000000000001e+01 9.719950000000000045e+01 1.572240000000000009e+03
6.700000000000000400e-02 4.707919999999999883e-01 3.017074999999999818e+01 9.951885000000000048e+01 1.572954999999999927e+03
6.800000000000000488e-02 4.712020000000000097e-01 3.085484999999999900e+01 1.018144499999999937e+02 1.573659999999999854e+03
6.900000000000000577e-02 4.716130000000000044e-01 3.149260000000000304e+01 1.041052999999999997e+02 1.574360000000000127e+03
7.000000000000000666e-02 4.720274999999999888e-01 3.209059999999999491e+01 1.064020000000000010e+02 1.575059999999999945e+03
7.100000000000000755e-02 4.724450000000000038e-01 3.265269999999999584e+01 1.087110000000000127e+02 1.575764999999999873e+03
7.200000000000000844e-02 4.728645000000000209e-01 3.318019999999999925e+01 1.110294999999999987e+02 1.576465000000000146e+03
7.300000000000000933e-02 4.732839999999999825e-01 3.367130000000000223e+01 1.133495000000000061e+02 1.577164999999999964e+03
7.399999999999999634e-02 4.737005000000000243e-01 3.412165000000000248e+01 1.156555000000000035e+02 1.577869999999999891e+03
7.499999999999999722e-02 4.741100000000000314e-01 3.452499999999999858e+01 1.179279999999999973e+02 1.578554999999999836e+03
7.599999999999999811e-02 4.745074999999999710e-01 3.487340000000000373e+01 1.201415000000000077e+02 1.579235000000000127e+03
7.699999999999999900e-02 4.748890000000000056e-01 3.515820000000000078e+01 1.222700000000000102e+02 1.579884999999999991e+03
7.799999999999999989e-02 4.752494999999999914e-01 3.537080000000000268e+01 1.242864999999999895e+02 1.580510000000000218e+03
7.900000000000000078e-02 4.755844999999999656e-01 3.550300000000000011e+01 1.261649999999999920e+02 1.581099999999999909e+03
8.000000000000000167e-02 4.758900000000000352e-01 3.554784999999999684e+01 1.278814999999999884e+02 1.581644999999999982e+03
8.100000000000000255e-02 4.761634999999999618e-01 3.550005000000000166e+01 1.294175000000000182e+02 1.582140000000000100e+03
8.200000000000000344e-02 4.764024999999999510e-01 3.535614999999999952e+01 1.307560000000000002e+02 1.582585000000000036e+03
8.300000000000000433e-02 4.766054999999999597e-01 3.511484999999999701e+01 1.318890000000000100e+02 1.582970000000000027e+03
8.400000000000000522e-02 4.767719999999999736e-01 3.477709999999999724e+01 1.328109999999999786e+02 1.583295000000000073e+03
8.500000000000000611e-02 4.769025000000000070e-01 3.434619999999999607e+01 1.335230000000000246e+02 1.583554999999999836e+03
8.600000000000000699e-02 4.769980000000000331e-01 3.382739999999999725e+01 1.340320000000000107e+02 1.583764999999999873e+03
8.700000000000000788e-02 4.770610000000000128e-01 3.322825000000000273e+01 1.343480000000000132e+02 1.583909999999999854e+03
8.800000000000000877e-02 4.770940000000000181e-01 3.255765000000000242e+01 1.344870000000000232e+02 1.584009999999999991e+03
8.899999999999999578e-02 4.771004999999999829e-01 3.182639999999999958e+01 1.344685000000000059e+02 1.584055000000000064e+03
8.999999999999999667e-02 4.770845000000000224e-01 3.104615000000000080e+01 1.343125000000000000e+02 1.584054999999999836e+03
9.099999999999999756e-02 4.770499999999999741e-01 3.022944999999999993e+01 1.340440000000000111e+02 1.584019999999999982e+03
9.199999999999999845e-02 4.770005000000000495e-01 2.938905000000000101e+01 1.336870000000000118e+02 1.583954999999999927e+03
9.299999999999999933e-02 4.769404999999999895e-01 2.853750000000000142e+01 1.332655000000000030e+02 1.583865000000000009e+03
9.400000000000000022e-02 4.768740000000000201e-01 2.768674999999999997e+01 1.328034999999999854e+02 1.583750000000000000e+03
9.500000000000000111e-02 4.768044999999999645e-01 2.684785000000000110e+01 1.323220000000000027e+02 1.583634999999999991e+03
9.600000000000000200e-02 4.767349999999999643e-01 2.603000000000000114e+01 1.318405000000000200e+02 1.583505000000000109e+03
9.700000000000000289e-02 4.766679999999999806e-01 2.524099999999999966e+01 1.313750000000000000e+02 1.583380000000000109e+03
9.800000000000000377e-02 4.766055000000000152e-01 2.448639999999999972e+01 1.309370000000000118e+02 1.583255000000000109e+03
9.900000000000000466e-02 4.765475000000000128e-01 2.376964999999999861e+01 1.305349999999999966e+02 1.583139999999999873e+03
1.000000000000000056e-01 4.764964999999999895e-01 2.309210000000000207e+01 1.301730000000000018e+02 1.583025000000000091e+03
1.010000000000000064e-01 4.764500000000000401e-01 2.245275000000000176e+01 1.298509999999999991e+02 1.582929999999999836e+03
1.020000000000000073e-01 4.764089999999999714e-01 2.184884999999999877e+01 1.295649999999999977e+02 1.582835000000000036e+03
1.030000000000000082e-01 4.763709999999999889e-01 2.127615000000000123e+01 1.293085000000000093e+02 1.582750000000000000e+03
1.040000000000000091e-01 4.763349999999999529e-01 2.072889999999999944e+01 1.290720000000000027e+02 1.582675000000000182e+03
1.050000000000000100e-01 4.762979999999999992e-01 2.020040000000000191e+01 1.288435000000000059e+02 1.582595000000000027e+03
1.059999999999999970e-01 4.762589999999999879e-01 1.968349999999999866e+01 1.286109999999999900e+02 1.582519999999999982e+03
1.069999999999999979e-01 4.762155000000000138e-01 1.917079999999999984e+01 1.283625000000000114e+02 1.582440000000000055e+03
1.079999999999999988e-01 4.761649999999999494e-01 1.865525000000000233e+01 1.280844999999999914e+02 1.582355000000000018e+03
1.089999999999999997e-01 4.761060000000000292e-01 1.813009999999999877e+01 1.277655000000000030e+02 1.582259999999999991e+03
1.100000000000000006e-01 4.760380000000000167e-01 1.758970000000000056e+01 1.273965000000000032e+02 1.582154999999999973e+03
1.110000000000000014e-01 4.759584999999999511e-01 1.702939999999999898e+01 1.269694999999999965e+02 1.582030000000000200e+03
1.120000000000000023e-01 4.758674999999999988e-01 1.644604999999999961e+01 1.264799999999999898e+02 1.581894999999999982e+03
1.130000000000000032e-01 4.757655000000000634e-01 1.583784999999999954e+01 1.259254999999999995e+02 1.581735000000000127e+03
1.140000000000000041e-01 4.756520000000000192e-01 1.520469999999999899e+01 1.253064999999999998e+02 1.581565000000000055e+03
1.150000000000000050e-01 4.755285000000000206e-01 1.454800000000000004e+01 1.246274999999999977e+02 1.581375000000000000e+03
1.160000000000000059e-01 4.753955000000000264e-01 1.387082999999999977e+01 1.238940000000000055e+02 1.581170000000000073e+03
1.170000000000000068e-01 4.752560000000000118e-01 1.317756999999999934e+01 1.231165000000000020e+02 1.580954999999999927e+03
1.180000000000000077e-01 4.751115000000000199e-01 1.247402500000000103e+01 1.223059999999999974e+02 1.580724999999999909e+03
1.190000000000000085e-01 4.749645000000000117e-01 1.176693000000000033e+01 1.214754999999999967e+02 1.580494999999999891e+03
1.200000000000000094e-01 4.748180000000000178e-01 1.106373999999999924e+01 1.206400000000000006e+02 1.580250000000000000e+03
1.209999999999999964e-01 4.746735000000000260e-01 1.037246500000000005e+01 1.198145000000000095e+02 1.580014999999999873e+03
1.219999999999999973e-01 4.745354999999999990e-01 9.701105000000000089e+00 1.190150000000000006e+02 1.579780000000000200e+03
1.229999999999999982e-01 4.744049999999999656e-01 9.057555000000000689e+00 1.182545000000000073e+02 1.579554999999999836e+03
1.239999999999999991e-01 4.742850000000000121e-01 8.449159999999999116e+00 1.175485000000000042e+02 1.579344999999999800e+03
1.250000000000000000e-01 4.741770000000000151e-01 7.882475000000000342e+00 1.169080000000000013e+02 1.579144999999999982e+03
1.260000000000000009e-01 4.740829999999999766e-01 7.362870000000000914e+00 1.163429999999999893e+02 1.578970000000000027e+03
1.270000000000000018e-01 4.740035000000000220e-01 6.894510000000000360e+00 1.158609999999999900e+02 1.578815000000000055e+03
1.280000000000000027e-01 4.739395000000000135e-01 6.480209999999999582e+00 1.154659999999999940e+02 1.578680000000000064e+03
1.290000000000000036e-01 4.738910000000000067e-01 6.121204999999999785e+00 1.151604999999999990e+02 1.578575000000000045e+03
1.300000000000000044e-01 4.738580000000000014e-01 5.817280000000000229e+00 1.149424999999999955e+02 1.578490000000000009e+03
1.310000000000000053e-01 4.738384999999999958e-01 5.566805000000000447e+00 1.148085000000000093e+02 1.578429999999999836e+03
1.320000000000000062e-01 4.738319999999999754e-01 5.366864999999999775e+00 1.147524999999999977e+02 1.578389999999999873e+03
1.330000000000000071e-01 4.738375000000000226e-01 5.213420000000000165e+00 1.147665000000000077e+02 1.578369999999999891e+03
1.340000000000000080e-01 4.738519999999999954e-01 5.101560000000000095e+00 1.148395000000000010e+02 1.578375000000000000e+03
1.350000000000000089e-01 4.738740000000000174e-01 5.025705000000000311e+00 1.149615000000000009e+02 1.578389999999999873e+03
1.360000000000000098e-01 4.739019999999999344e-01 4.979874999999999829e+00 1.151204999999999927e+02 1.578414999999999964e+03
1.370000000000000107e-01 4.739335000000000075e-01 4.957919999999999661e+00 1.153050000000000068e+02 1.578454999999999927e+03
1.380000000000000115e-01 4.739664999999999573e-01 4.953759999999999941e+00 1.155039999999999907e+02 1.578500000000000000e+03
1.390000000000000124e-01 4.740005000000000468e-01 4.961574999999999847e+00 1.157069999999999936e+02 1.578550000000000182e+03
1.400000000000000133e-01 4.740320000000000089e-01 4.975975000000000037e+00 1.159045000000000130e+02 1.578599999999999909e+03
1.410000000000000142e-01 4.740615000000000245e-01 4.992150000000000531e+00 1.160879999999999939e+02 1.578644999999999982e+03
1.420000000000000151e-01 4.740870000000000362e-01 5.005955000000000155e+00 1.162520000000000095e+02 1.578684999999999945e+03
1.430000000000000160e-01 4.741080000000000294e-01 5.013975000000000293e+00 1.163905000000000030e+02 1.578724999999999909e+03
1.440000000000000169e-01 4.741239999999999899e-01 5.013560000000000016e+00 1.165020000000000095e+02 1.578760000000000218e+03
1.450000000000000178e-01 4.741350000000000287e-01 5.002850000000000463e+00 1.165825000000000102e+02 1.578784999999999854e+03
1.459999999999999909e-01 4.741414999999999935e-01 4.980700000000000571e+00 1.166329999999999956e+02 1.578804999999999836e+03
1.469999999999999918e-01 4.741429999999999811e-01 4.946680000000000632e+00 1.166544999999999987e+02 1.578815000000000055e+03
1.479999999999999927e-01 4.741394999999999915e-01 4.900985000000000369e+00 1.166484999999999985e+02 1.578815000000000055e+03
1.489999999999999936e-01 4.741329999999999711e-01 4.844335000000000058e+00 1.166179999999999950e+02 1.578809999999999945e+03
1.499999999999999944e-01 4.741229999999999611e-01 4.777915000000000134e+00 1.165674999999999955e+02 1.578805000000000064e+03
1.509999999999999953e-01 4.741099999999999759e-01 4.703219999999999956e+00 1.164989999999999952e+02 1.578785000000000082e+03
1.519999999999999962e-01 4.740959999999999619e-01 4.621974999999999945e+00 1.164180000000000064e+02 1.578769999999999982e+03
1.529999999999999971e-01 4.740805000000000158e-01 4.536025000000000418e+00 1.163285000000000053e+02 1.578744999999999891e+03
1.539999999999999980e-01 4.740650000000000142e-01 4.447205000000000297e+00 1.162334999999999923e+02 1.578724999999999909e+03
1.549999999999999989e-01 4.740490000000000537e-01 4.357244999999999813e+00 1.161359999999999957e+02 1.578695000000000164e+03
1.559999999999999998e-01 4.740334999999999965e-01 4.267705000000000304e+00 1.160399999999999920e+02 1.578674999999999955e+03
1.570000000000000007e-01 4.740185000000000093e-01 4.179890000000000327e+00 1.159465000000000003e+02 1.578650000000000091e+03
1.580000000000000016e-01 4.740044999999999953e-01 4.094809999999999839e+00 1.158569999999999993e+02 1.578619999999999891e+03
1.590000000000000024e-01 4.739910000000000512e-01 4.013180000000000192e+00 1.157725000000000080e+02 1.578599999999999909e+03
