# t [s], A [cm^2], U [cm/s], P [cPa], c [cm/s]
1.000000000000000021e-03 1.248664999999999914e-01 3.360974999999999935e-01 8.932864999999999611e+01 1.979230000000000018e+03
2.000000000000000042e-03 1.248374999999999901e-01 1.787456499999999782e+00 8.625374999999999659e+01 1.978875000000000000e+03
3.000000000000000062e-03 1.247550000000000048e-01 3.547055999999999987e+00 8.215000000000000568e+01 1.977864999999999782e+03
4.000000000000000083e-03 1.246384999999999993e-01 5.505836000000000396e+00 7.775504999999999711e+01 1.976474999999999909e+03
5.000000000000000104e-03 1.245114999999999972e-01 7.604130000000000500e+00 7.385030000000000427e+01 1.974970000000000027e+03
6.000000000000000125e-03 1.243874999999999981e-01 9.691205000000000069e+00 7.068774999999999409e+01 1.973509999999999991e+03
7.000000000000000146e-03 1.242699999999999916e-01 1.157661500000000032e+01 6.803515000000000157e+01 1.972159999999999854e+03
8.000000000000000167e-03 1.241614999999999941e-01 1.317771499999999918e+01 6.564775000000000205e+01 1.970925000000000182e+03
9.000000000000001055e-03 1.240644999999999942e-01 1.452630000000000088e+01 6.354585000000000150e+01 1.969839999999999918e+03
1.000000000000000194e-02 1.239804999999999935e-01 1.565819999999999901e+01 6.180660000000000309e+01 1.968909999999999854e+03
1.099999999999999936e-02 1.239105000000000067e-01 1.658534999999999826e+01 6.041425000000000267e+01 1.968144999999999982e+03
1.200000000000000025e-02 1.238535000000000053e-01 1.731815000000000282e+01 5.931260000000000332e+01 1.967519999999999982e+03
1.300000000000000114e-02 1.238065000000000138e-01 1.786264999999999858e+01 5.842799999999999727e+01 1.967030000000000200e+03
1.400000000000000203e-02 1.237685000000000035e-01 1.822370000000000090e+01 5.766590000000000060e+01 1.966625000000000000e+03
1.499999999999999944e-02 1.237360000000000126e-01 1.843860000000000099e+01 5.698839999999999861e+01 1.966289999999999964e+03
1.600000000000000033e-02 1.237110000000000015e-01 1.860259999999999891e+01 5.651855000000000473e+01 1.966039999999999964e+03
1.700000000000000122e-02 1.236974999999999880e-01 1.884645000000000081e+01 5.653320000000000078e+01 1.965910000000000082e+03
1.800000000000000211e-02 1.237014999999999920e-01 1.927485000000000070e+01 5.731394999999999840e+01 1.965964999999999918e+03
1.900000000000000300e-02 1.237270000000000036e-01 1.991049999999999898e+01 5.896195000000000164e+01 1.966255000000000109e+03
2.000000000000000042e-02 1.237724999999999936e-01 2.067905000000000015e+01 6.129860000000000042e+01 1.966759999999999991e+03
2.100000000000000130e-02 1.238315000000000110e-01 2.143800000000000239e+01 6.390464999999999662e+01 1.967409999999999854e+03
2.200000000000000219e-02 1.238935000000000036e-01 2.203049999999999997e+01 6.626260000000000616e+01 1.968110000000000127e+03
2.299999999999999961e-02 1.239480000000000026e-01 2.233885000000000076e+01 6.792995000000000516e+01 1.968735000000000127e+03
2.400000000000000050e-02 1.239875000000000005e-01 2.231804999999999950e+01 6.867090000000000316e+01 1.969190000000000055e+03
2.500000000000000139e-02 1.240064999999999917e-01 2.199990000000000023e+01 6.850475000000000136e+01 1.969440000000000055e+03
2.600000000000000228e-02 1.240084999999999937e-01 2.147160000000000224e+01 6.766365000000000407e+01 1.969474999999999909e+03
2.700000000000000316e-02 1.239964999999999956e-01 2.083919999999999817e+01 6.648695000000000732e+01 1.969360000000000127e+03
2.800000000000000058e-02 1.239775000000000044e-01 2.019160000000000110e+01 6.529670000000000130e+01 1.969164999999999964e+03
2.900000000000000147e-02 1.239570000000000116e-01 1.957685000000000031e+01 6.430244999999999322e+01 1.968940000000000055e+03
3.000000000000000236e-02 1.239385000000000070e-01 1.899749999999999872e+01 6.355995000000000061e+01 1.968735000000000127e+03
3.099999999999999978e-02 1.239220000000000044e-01 1.842164999999999964e+01 6.298919999999999675e+01 1.968549999999999955e+03
3.200000000000000067e-02 1.239060000000000022e-01 1.780425000000000324e+01 6.243390000000000128e+01 1.968369999999999891e+03
3.300000000000000155e-02 1.238879999999999981e-01 1.710989999999999966e+01 6.173774999999999835e+01 1.968174999999999955e+03
3.400000000000000244e-02 1.238660000000000039e-01 1.633119999999999905e+01 6.081210000000000093e+01 1.967934999999999945e+03
3.500000000000000333e-02 1.238385000000000041e-01 1.549685000000000024e+01 5.967640000000000100e+01 1.967644999999999982e+03
3.600000000000000422e-02 1.238080000000000014e-01 1.466804999999999914e+01 5.846179999999999666e+01 1.967305000000000064e+03
3.700000000000000511e-02 1.237774999999999848e-01 1.392464999999999975e+01 5.737800000000000011e+01 1.966965000000000146e+03
3.799999999999999906e-02 1.237520000000000009e-01 1.334520000000000017e+01 5.665599999999999881e+01 1.966679999999999836e+03
3.899999999999999994e-02 1.237364999999999993e-01 1.298724999999999952e+01 5.648315000000000197e+01 1.966500000000000000e+03
4.000000000000000083e-02 1.237339999999999968e-01 1.287239999999999895e+01 5.695130000000000337e+01 1.966465000000000146e+03
4.100000000000000172e-02 1.237469999999999959e-01 1.298134999999999906e+01 5.803005000000000280e+01 1.966585000000000036e+03
4.200000000000000261e-02 1.237734999999999946e-01 1.325744999999999862e+01 5.957094999999999629e+01 1.966865000000000009e+03
4.300000000000000350e-02 1.238100000000000034e-01 1.361800000000000033e+01 6.133719999999999573e+01 1.967259999999999991e+03
4.400000000000000439e-02 1.238515000000000033e-01 1.396894999999999953e+01 6.305004999999999882e+01 1.967704999999999927e+03
4.499999999999999833e-02 1.238904999999999867e-01 1.422015000000000029e+01 6.443789999999999907e+01 1.968144999999999982e+03
4.599999999999999922e-02 1.239220000000000044e-01 1.429749999999999943e+01 6.527854999999999563e+01 1.968500000000000000e+03
4.700000000000000011e-02 1.239409999999999956e-01 1.415075000000000038e+01 6.542670000000001096e+01 1.968710000000000036e+03
4.800000000000000100e-02 1.239435000000000120e-01 1.375590000000000046e+01 6.482460000000000377e+01 1.968750000000000000e+03
4.900000000000000189e-02 1.239280000000000104e-01 1.311345000000000027e+01 6.349595000000000766e+01 1.968585000000000036e+03
5.000000000000000278e-02 1.238950000000000051e-01 1.224382499999999929e+01 6.152859999999999729e+01 1.968235000000000127e+03
5.100000000000000366e-02 1.238459999999999978e-01 1.118083500000000008e+01 5.905105000000000359e+01 1.967695000000000164e+03
5.200000000000000455e-02 1.237830000000000041e-01 9.965830000000000410e+00 5.620955000000000013e+01 1.967005000000000109e+03
5.300000000000000544e-02 1.237100000000000005e-01 8.643005000000000493e+00 5.314920000000000044e+01 1.966199999999999818e+03
5.399999999999999939e-02 1.236299999999999899e-01 7.256414999999999615e+00 5.000220000000000198e+01 1.965315000000000055e+03
5.500000000000000028e-02 1.235459999999999892e-01 5.848600000000000243e+00 4.688335000000000008e+01 1.964384999999999991e+03
5.600000000000000117e-02 1.234610000000000013e-01 4.460881999999999792e+00 4.389130000000000109e+01 1.963450000000000045e+03
5.700000000000000205e-02 1.233785000000000021e-01 3.133737999999999690e+00 4.111234999999999928e+01 1.962525000000000091e+03
5.800000000000000294e-02 1.233005000000000073e-01 1.907455000000000123e+00 3.862630000000000052e+01 1.961654999999999973e+03
5.900000000000000383e-02 1.232290000000000052e-01 8.221799999999999109e-01 3.650990000000000180e+01 1.960860000000000127e+03
6.000000000000000472e-02 1.231669999999999987e-01 -8.270500000000002849e-02 3.483809999999999718e+01 1.960160000000000082e+03
6.099999999999999867e-02 1.231165000000000037e-01 -7.699829999999999730e-01 3.368314999999999770e+01 1.959595000000000027e+03
6.199999999999999956e-02 1.230799999999999950e-01 -1.206521500000000024e+00 3.311045000000000016e+01 1.959175000000000182e+03
6.300000000000000044e-02 1.230590000000000017e-01 -1.365380999999999956e+00 3.317334999999999923e+01 1.958925000000000182e+03
6.400000000000000133e-02 1.230549999999999977e-01 -1.227842499999999948e+00 3.390805000000000291e+01 1.958865000000000009e+03
6.500000000000000222e-02 1.230700000000000127e-01 -7.849175000000000457e-01 3.532864999999999611e+01 1.959005000000000109e+03
6.600000000000000311e-02 1.231030000000000041e-01 -3.818999999999994621e-02 3.742480000000000473e+01 1.959355000000000018e+03
6.700000000000000400e-02 1.231545000000000001e-01 1.000154999999999905e+00 4.016115000000000634e+01 1.959904999999999973e+03
6.800000000000000488e-02 1.232240000000000002e-01 2.308022000000000240e+00 4.347889999999999588e+01 1.960654999999999973e+03
6.900000000000000577e-02 1.233100000000000029e-01 3.854784999999999684e+00 4.729975000000000307e+01 1.961590000000000146e+03
7.000000000000000666e-02 1.234105000000000063e-01 5.603089999999999904e+00 5.153090000000000259e+01 1.962684999999999945e+03
7.100000000000000755e-02 1.235229999999999939e-01 7.510909999999999975e+00 5.607059999999999889e+01 1.963925000000000182e+03
7.200000000000000844e-02 1.236450000000000049e-01 9.533735000000000070e+00 6.081425000000000125e+01 1.965275000000000091e+03
7.300000000000000933e-02 1.237744999999999956e-01 1.162666500000000092e+01 6.565999999999999659e+01 1.966704999999999927e+03
7.399999999999999634e-02 1.239080000000000042e-01 1.374655499999999897e+01 7.051349999999999341e+01 1.968194999999999936e+03
7.499999999999999722e-02 1.240435000000000010e-01 1.585369999999999990e+01 7.529250000000000398e+01 1.969704999999999927e+03
7.599999999999999811e-02 1.241784999999999972e-01 1.791335000000000122e+01 7.992995000000000516e+01 1.971220000000000027e+03
7.699999999999999900e-02 1.243104999999999905e-01 1.989730000000000132e+01 8.437645000000000550e+01 1.972704999999999927e+03
7.799999999999999989e-02 1.244394999999999946e-01 2.178405000000000058e+01 8.860120000000000573e+01 1.974155000000000200e+03
7.900000000000000078e-02 1.245634999999999937e-01 2.355969999999999942e+01 9.259205000000000041e+01 1.975559999999999945e+03
8.000000000000000167e-02 1.246819999999999873e-01 2.521734999999999971e+01 9.635345000000000937e+01 1.976904999999999973e+03
8.100000000000000255e-02 1.247949999999999893e-01 2.675700000000000145e+01 9.990585000000000093e+01 1.978195000000000164e+03
8.200000000000000344e-02 1.249030000000000140e-01 2.818384999999999962e+01 1.032796500000000037e+02 1.979429999999999836e+03
8.300000000000000433e-02 1.250064999999999926e-01 2.950760000000000005e+01 1.065130000000000052e+02 1.980615000000000009e+03
8.400000000000000522e-02 1.251070000000000237e-01 3.074044999999999916e+01 1.096475000000000080e+02 1.981760000000000218e+03
8.500000000000000611e-02 1.252039999999999820e-01 3.189594999999999914e+01 1.127224999999999966e+02 1.982875000000000000e+03
8.600000000000000699e-02 1.252995000000000081e-01 3.298745000000000260e+01 1.157719999999999914e+02 1.983969999999999800e+03
8.700000000000000788e-02 1.253940000000000055e-01 3.402680000000000149e+01 1.188250000000000028e+02 1.985054999999999836e+03
8.800000000000000877e-02 1.254885000000000028e-01 3.502344999999999686e+01 1.218979999999999961e+02 1.986139999999999873e+03
8.899999999999999578e-02 1.255824999999999858e-01 3.598389999999999844e+01 1.249995000000000118e+02 1.987220000000000027e+03
8.999999999999999667e-02 1.256774999999999975e-01 3.691084999999999638e+01 1.281245000000000118e+02 1.988304999999999836e+03
9.099999999999999756e-02 1.257719999999999949e-01 3.780379999999999541e+01 1.312595000000000027e+02 1.989394999999999982e+03
9.199999999999999845e-02 1.258670000000000067e-01 3.865874999999999773e+01 1.343820000000000050e+02 1.990485000000000127e+03
9.299999999999999933e-02 1.259609999999999896e-01 3.946890000000000498e+01 1.374639999999999986e+02 1.991570000000000164e+03
9.400000000000000022e-02 1.260534999999999850e-01 4.022494999999999976e+01 1.404685000000000059e+02 1.992634999999999991e+03
9.500000000000000111e-02 1.261444999999999927e-01 4.091590000000000060e+01 1.433605000000000018e+02 1.993680000000000064e+03
9.600000000000000200e-02 1.262314999999999965e-01 4.152989999999999782e+01 1.461005000000000109e+02 1.994690000000000055e+03
9.700000000000000289e-02 1.263150000000000106e-01 4.205454999999999899e+01 1.486530000000000200e+02 1.995650000000000091e+03
9.800000000000000377e-02 1.263925000000000187e-01 4.247825000000000273e+01 1.509830000000000041e+02 1.996549999999999955e+03
9.900000000000000466e-02 1.264644999999999797e-01 4.279035000000000366e+01 1.530615000000000236e+02 1.997389999999999873e+03
1.000000000000000056e-01 1.265294999999999892e-01 4.298189999999999600e+01 1.548644999999999925e+02 1.998144999999999982e+03
1.010000000000000064e-01 1.265870000000000051e-01 4.304625000000000057e+01 1.563750000000000000e+02 1.998815000000000055e+03
1.020000000000000073e-01 1.266364999999999852e-01 4.297930000000000206e+01 1.575824999999999818e+02 1.999389999999999873e+03
1.030000000000000082e-01 1.266774999999999984e-01 4.277994999999999948e+01 1.584844999999999970e+02 1.999875000000000000e+03
1.040000000000000091e-01 1.267095000000000027e-01 4.245024999999999693e+01 1.590865000000000009e+02 2.000259999999999991e+03
1.050000000000000100e-01 1.267334999999999989e-01 4.199500000000000455e+01 1.594005000000000223e+02 2.000545000000000073e+03
1.059999999999999970e-01 1.267494999999999872e-01 4.142239999999999611e+01 1.594454999999999814e+02 2.000740000000000009e+03
1.069999999999999979e-01 1.267574999999999952e-01 4.074304999999999666e+01 1.592475000000000023e+02 2.000845000000000027e+03
1.079999999999999988e-01 1.267584999999999962e-01 3.996979999999999933e+01 1.588360000000000127e+02 2.000869999999999891e+03
1.089999999999999997e-01 1.267530000000000046e-01 3.911744999999999806e+01 1.582450000000000045e+02 2.000815000000000055e+03
1.100000000000000006e-01 1.267419999999999936e-01 3.820190000000000197e+01 1.575090000000000146e+02 2.000699999999999818e+03
1.110000000000000014e-01 1.267264999999999919e-01 3.723955000000000126e+01 1.566649999999999920e+02 2.000525000000000091e+03
1.120000000000000023e-01 1.267075000000000007e-01 3.624699999999999989e+01 1.557475000000000023e+02 2.000315000000000055e+03
1.130000000000000032e-01 1.266855000000000064e-01 3.523989999999999867e+01 1.547894999999999754e+02 2.000070000000000164e+03
1.140000000000000041e-01 1.266619999999999968e-01 3.423290000000000077e+01 1.538205000000000098e+02 1.999800000000000182e+03
1.150000000000000050e-01 1.266375000000000139e-01 3.323915000000000219e+01 1.528665000000000020e+02 1.999519999999999982e+03
1.160000000000000059e-01 1.266124999999999889e-01 3.226955000000000240e+01 1.519474999999999909e+02 1.999230000000000018e+03
1.170000000000000068e-01 1.265880000000000061e-01 3.133290000000000219e+01 1.510774999999999864e+02 1.998954999999999927e+03
1.180000000000000077e-01 1.265640000000000098e-01 3.043534999999999968e+01 1.502665000000000077e+02 1.998674999999999955e+03
1.190000000000000085e-01 1.265419999999999878e-01 2.958075000000000188e+01 1.495169999999999959e+02 1.998409999999999854e+03
1.200000000000000094e-01 1.265205000000000080e-01 2.877024999999999721e+01 1.488280000000000030e+02 1.998159999999999854e+03
1.209999999999999964e-01 1.265000000000000013e-01 2.800264999999999915e+01 1.481920000000000073e+02 1.997925000000000182e+03
1.219999999999999973e-01 1.264810000000000101e-01 2.727479999999999905e+01 1.475985000000000014e+02 1.997704999999999927e+03
1.229999999999999982e-01 1.264629999999999921e-01 2.658160000000000167e+01 1.470324999999999989e+02 1.997490000000000009e+03
1.239999999999999991e-01 1.264450000000000018e-01 2.591635000000000133e+01 1.464759999999999991e+02 1.997285000000000082e+03
1.250000000000000000e-01 1.264279999999999848e-01 2.527149999999999963e+01 1.459120000000000061e+02 1.997085000000000036e+03
1.260000000000000009e-01 1.264105000000000090e-01 2.463889999999999958e+01 1.453199999999999932e+02 1.996880000000000109e+03
1.270000000000000018e-01 1.263920000000000043e-01 2.401000000000000156e+01 1.446814999999999998e+02 1.996660000000000082e+03
1.280000000000000027e-01 1.263724999999999987e-01 2.337664999999999793e+01 1.439795000000000016e+02 1.996440000000000055e+03
1.290000000000000036e-01 1.263509999999999911e-01 2.273150000000000048e+01 1.431979999999999791e+02 1.996190000000000055e+03
1.300000000000000044e-01 1.263279999999999959e-01 2.206804999999999950e+01 1.423254999999999768e+02 1.995920000000000073e+03
1.310000000000000053e-01 1.263019999999999976e-01 2.138145000000000095e+01 1.413530000000000086e+02 1.995625000000000000e+03
1.320000000000000062e-01 1.262735000000000107e-01 2.066825000000000045e+01 1.402780000000000200e+02 1.995300000000000182e+03
1.330000000000000071e-01 1.262425000000000075e-01 1.992699999999999960e+01 1.390994999999999777e+02 1.994944999999999936e+03
1.340000000000000080e-01 1.262089999999999879e-01 1.915820000000000078e+01 1.378224999999999909e+02 1.994555000000000064e+03
1.350000000000000089e-01 1.261724999999999930e-01 1.836425000000000196e+01 1.364569999999999936e+02 1.994134999999999991e+03
1.360000000000000098e-01 1.261329999999999951e-01 1.754954999999999998e+01 1.350169999999999959e+02 1.993690000000000055e+03
1.370000000000000107e-01 1.260924999999999963e-01 1.671995000000000076e+01 1.335180000000000007e+02 1.993220000000000027e+03
1.380000000000000115e-01 1.260489999999999944e-01 1.588294999999999924e+01 1.319825000000000159e+02 1.992735000000000127e+03
1.390000000000000124e-01 1.260054999999999925e-01 1.504720000000000013e+01 1.304314999999999998e+02 1.992230000000000018e+03
1.400000000000000133e-01 1.259609999999999896e-01 1.422189999999999976e+01 1.288890000000000100e+02 1.991720000000000027e+03
1.410000000000000142e-01 1.259160000000000001e-01 1.341680000000000028e+01 1.273780000000000143e+02 1.991210000000000036e+03
1.420000000000000151e-01 1.258724999999999983e-01 1.264140000000000086e+01 1.259224999999999994e+02 1.990710000000000036e+03
1.430000000000000160e-01 1.258305000000000118e-01 1.190490499999999940e+01 1.245424999999999898e+02 1.990220000000000027e+03
1.440000000000000169e-01 1.257900000000000129e-01 1.121551000000000009e+01 1.232570000000000050e+02 1.989755000000000109e+03
1.450000000000000178e-01 1.257515000000000160e-01 1.058033500000000160e+01 1.220810000000000031e+02 1.989315000000000055e+03
1.459999999999999909e-01 1.257159999999999944e-01 1.000500500000000059e+01 1.210264999999999986e+02 1.988904999999999973e+03
1.469999999999999918e-01 1.256839999999999902e-01 9.493539999999999424e+00 1.201009999999999991e+02 1.988534999999999854e+03
1.479999999999999927e-01 1.256545000000000023e-01 9.048339999999999606e+00 1.193075000000000045e+02 1.988200000000000045e+03
1.489999999999999936e-01 1.256295000000000051e-01 8.669920000000001181e+00 1.186460000000000008e+02 1.987904999999999973e+03
1.499999999999999944e-01 1.256075000000000108e-01 8.357269999999999754e+00 1.181115000000000066e+02 1.987650000000000091e+03
1.509999999999999953e-01 1.255894999999999928e-01 8.107775000000000176e+00 1.176970000000000027e+02 1.987434999999999945e+03
1.519999999999999962e-01 1.255744999999999778e-01 7.917430000000000412e+00 1.173919999999999959e+02 1.987259999999999991e+03
1.529999999999999971e-01 1.255630000000000079e-01 7.781094999999999651e+00 1.171839999999999975e+02 1.987119999999999891e+03
1.539999999999999980e-01 1.255539999999999989e-01 7.692700000000000315e+00 1.170579999999999927e+02 1.987014999999999873e+03
1.549999999999999989e-01 1.255469999999999919e-01 7.645524999999999238e+00 1.170000000000000000e+02 1.986934999999999945e+03
1.559999999999999998e-01 1.255425000000000013e-01 7.632484999999999076e+00 1.169934999999999974e+02 1.986875000000000000e+03
1.570000000000000007e-01 1.255400000000000127e-01 7.646330000000000737e+00 1.170240000000000009e+02 1.986835000000000036e+03
1.580000000000000016e-01 1.255384999999999973e-01 7.679959999999999454e+00 1.170775000000000006e+02 1.986815000000000055e+03
1.590000000000000024e-01 1.255380000000000107e-01 7.726589999999999847e+00 1.171400000000000006e+02 1.986809999999999945e+03
