# t [s], A [cm^2], U [cm/s], P [cPa], c [cm/s]
1.000000000000000021e-03 5.742119999999999447e-01 4.905100000000002514e-03 9.979075000000000273e+01 1.569659999999999854e+03
2.000000000000000042e-03 5.742024999999999491e-01 -2.974425000000000159e-03 9.976609999999999445e+01 1.569650000000000091e+03
3.000000000000000062e-03 5.742420000000000302e-01 6.955849999999999533e-02 9.984050000000000580e+01 1.569674999999999955e+03
4.000000000000000083e-03 5.742909999999999959e-01 1.660753000000000090e-01 9.995929999999999893e+01 1.569704999999999927e+03
5.000000000000000104e-03 5.742834999999999468e-01 1.696995000000000031e-01 9.995239999999999725e+01 1.569704999999999927e+03
6.000000000000000125e-03 5.742309999999999359e-01 8.727899999999999547e-02 9.978785000000000593e+01 1.569664999999999964e+03
7.000000000000000146e-03 5.741819999999999702e-01 6.482500000000002149e-03 9.956329999999999814e+01 1.569615000000000009e+03
8.000000000000000167e-03 5.741235000000000088e-01 -1.019339999999999691e-01 9.926400000000001000e+01 1.569539999999999964e+03
9.000000000000001055e-03 5.740210000000000035e-01 -3.057900000000000063e-01 9.880330000000000723e+01 1.569429999999999836e+03
1.000000000000000194e-02 5.738685000000000036e-01 -6.166200000000000570e-01 9.813765000000000782e+01 1.569269999999999982e+03
1.099999999999999936e-02 5.736580000000000013e-01 -1.043670000000000098e+00 9.722414999999999452e+01 1.569045000000000073e+03
1.200000000000000025e-02 5.733725000000000627e-01 -1.605525000000000091e+00 9.600414999999999566e+01 1.568740000000000009e+03
1.300000000000000114e-02 5.730180000000000273e-01 -2.276455000000000339e+00 9.446940000000000737e+01 1.568355000000000018e+03
1.400000000000000203e-02 5.726320000000000299e-01 -2.959600000000000009e+00 9.271020000000000039e+01 1.567894999999999982e+03
1.499999999999999944e-02 5.722674999999999290e-01 -3.523590000000000444e+00 9.089215000000000089e+01 1.567404999999999973e+03
1.600000000000000033e-02 5.719640000000000279e-01 -3.862760999999999445e+00 8.917959999999999354e+01 1.566920000000000073e+03
1.700000000000000122e-02 5.717320000000000180e-01 -3.934139999999999748e+00 8.767425000000000068e+01 1.566470000000000027e+03
1.800000000000000211e-02 5.715540000000000065e-01 -3.759505500000000389e+00 8.639150000000000773e+01 1.566059999999999945e+03
1.900000000000000300e-02 5.713960000000000150e-01 -3.403995999999999800e+00 8.527405000000000257e+01 1.565690000000000055e+03
2.000000000000000042e-02 5.712270000000000403e-01 -2.946628000000000025e+00 8.422464999999999691e+01 1.565325000000000045e+03
2.100000000000000130e-02 5.710199999999999720e-01 -2.453327499999999883e+00 8.314549999999999841e+01 1.564960000000000036e+03
2.200000000000000219e-02 5.707685000000000120e-01 -1.959510000000000085e+00 8.197024999999999295e+01 1.564574999999999818e+03
2.299999999999999961e-02 5.704780000000000406e-01 -1.466175000000000006e+00 8.068094999999999573e+01 1.564159999999999854e+03
2.400000000000000050e-02 5.701684999999999670e-01 -9.495050000000002655e-01 7.930490000000000350e+01 1.563720000000000027e+03
2.500000000000000139e-02 5.698579999999999757e-01 -3.790750000000002728e-01 7.789525000000000432e+01 1.563269999999999982e+03
2.600000000000000228e-02 5.695599999999999552e-01 2.635950000000000237e-01 7.650440000000000396e+01 1.562825000000000045e+03
2.700000000000000316e-02 5.692779999999999507e-01 9.725199999999998290e-01 7.516149999999998954e+01 1.562389999999999873e+03
2.800000000000000058e-02 5.690025000000000777e-01 1.713814999999999866e+00 7.385925000000000296e+01 1.561960000000000036e+03
2.900000000000000147e-02 5.687140000000000528e-01 2.430719999999999992e+00 7.255344999999999800e+01 1.561529999999999973e+03
3.000000000000000236e-02 5.683914999999999385e-01 3.054819999999999425e+00 7.117259999999998854e+01 1.561085000000000036e+03
3.099999999999999978e-02 5.680134999999999490e-01 3.520350000000000534e+00 6.963569999999999993e+01 1.560610000000000127e+03
3.200000000000000067e-02 5.675664999999999738e-01 3.778414999999999857e+00 6.787314999999999543e+01 1.560079999999999927e+03
3.300000000000000155e-02 5.670490000000000252e-01 3.807669999999999888e+00 6.584665000000001100e+01 1.559490000000000009e+03
3.400000000000000244e-02 5.664715000000000167e-01 3.619049999999999656e+00 6.356150000000000233e+01 1.558829999999999927e+03
3.500000000000000333e-02 5.658555000000000668e-01 3.252485000000000070e+00 6.106945000000000334e+01 1.558119999999999891e+03
3.600000000000000422e-02 5.652285000000000226e-01 2.768174999999999830e+00 5.846105000000000018e+01 1.557380000000000109e+03
3.700000000000000511e-02 5.646210000000000395e-01 2.234574999999999978e+00 5.585060000000000002e+01 1.556630000000000109e+03
3.799999999999999906e-02 5.640604999999999647e-01 1.717130000000000045e+00 5.335914999999999964e+01 1.555904999999999973e+03
3.899999999999999994e-02 5.635689999999999866e-01 1.270275000000000265e+00 5.109874999999999545e+01 1.555230000000000018e+03
4.000000000000000083e-02 5.631614999999999815e-01 9.332699999999998219e-01 4.916134999999999877e+01 1.554634999999999991e+03
4.100000000000000172e-02 5.628459999999999575e-01 7.298899999999997057e-01 4.761294999999999789e+01 1.554139999999999873e+03
4.200000000000000261e-02 5.626269999999999882e-01 6.709450000000001246e-01 4.649259999999999593e+01 1.553750000000000000e+03
4.300000000000000350e-02 5.625009999999999177e-01 7.583149999999999613e-01 4.581589999999999918e+01 1.553490000000000009e+03
4.400000000000000439e-02 5.624660000000000215e-01 9.894342999999998778e-01 4.558050000000000068e+01 1.553344999999999800e+03
4.499999999999999833e-02 5.625189999999999912e-01 1.361057999999999879e+00 4.577270000000000039e+01 1.553324999999999818e+03
4.599999999999999922e-02 5.626544999999999463e-01 1.871614500000000181e+00 4.637344999999999828e+01 1.553429999999999836e+03
4.700000000000000011e-02 5.628710000000000102e-01 2.521831500000000226e+00 4.736254999999999882e+01 1.553644999999999982e+03
4.800000000000000100e-02 5.631650000000000267e-01 3.313684999999999992e+00 4.872019999999999840e+01 1.553974999999999909e+03
4.900000000000000189e-02 5.635345000000000493e-01 4.248361000000000054e+00 5.042655000000000598e+01 1.554404999999999973e+03
5.000000000000000278e-02 5.639745000000000452e-01 5.323885499999999382e+00 5.246000000000000085e+01 1.554940000000000055e+03
5.100000000000000366e-02 5.644799999999999818e-01 6.533108999999999611e+00 5.479464999999999719e+01 1.555559999999999945e+03
5.200000000000000455e-02 5.650425000000000031e-01 7.862866499999999981e+00 5.739889999999999759e+01 1.556269999999999982e+03
5.300000000000000544e-02 5.656535000000000313e-01 9.293874999999999886e+00 6.023409999999999798e+01 1.557054999999999836e+03
5.399999999999999939e-02 5.663004999999999844e-01 1.080184500000000014e+01 6.325554999999999950e+01 1.557900000000000091e+03
5.500000000000000028e-02 5.669735000000000191e-01 1.235933999999999955e+01 6.641405000000000314e+01 1.558789999999999964e+03
5.600000000000000117e-02 5.676605000000000123e-01 1.393797500000000156e+01 6.965874999999999773e+01 1.559720000000000027e+03
5.700000000000000205e-02 5.683495000000000630e-01 1.551031500000000030e+01 7.293990000000000862e+01 1.560670000000000073e+03
5.800000000000000294e-02 5.690334999999999699e-01 1.705194499999999991e+01 7.621219999999999573e+01 1.561625000000000000e+03
5.900000000000000383e-02 5.697039999999999882e-01 1.854265000000000185e+01 7.943704999999999927e+01 1.562579999999999927e+03
6.000000000000000472e-02 5.703564999999999330e-01 1.996699999999999875e+01 8.258435000000000059e+01 1.563525000000000091e+03
6.099999999999999867e-02 5.709874999999999812e-01 2.131490000000000151e+01 8.563355000000001382e+01 1.564449999999999818e+03
6.199999999999999956e-02 5.715965000000000629e-01 2.258060000000000045e+01 8.857325000000000159e+01 1.565349999999999909e+03
6.300000000000000044e-02 5.721844999999999848e-01 2.376270000000000238e+01 9.140070000000000050e+01 1.566220000000000027e+03
6.400000000000000133e-02 5.727519999999999278e-01 2.486285000000000167e+01 9.412014999999999532e+01 1.567065000000000055e+03
6.500000000000000222e-02 5.733034999999999659e-01 2.588499999999999801e+01 9.674190000000000111e+01 1.567884999999999991e+03
6.600000000000000311e-02 5.738410000000000455e-01 2.683484999999999943e+01 9.927960000000000207e+01 1.568684999999999945e+03
6.700000000000000400e-02 5.743679999999999897e-01 2.771865000000000023e+01 1.017496000000000009e+02 1.569460000000000036e+03
6.800000000000000488e-02 5.748880000000000656e-01 2.854295000000000115e+01 1.041666000000000025e+02 1.570220000000000027e+03
6.900000000000000577e-02 5.754034999999999567e-01 2.931349999999999767e+01 1.065465000000000089e+02 1.570970000000000027e+03
7.000000000000000666e-02 5.759159999999999835e-01 3.003529999999999944e+01 1.089014999999999986e+02 1.571710000000000036e+03
7.100000000000000755e-02 5.764270000000000227e-01 3.071180000000000021e+01 1.112385000000000019e+02 1.572445000000000164e+03
7.200000000000000844e-02 5.769370000000000331e-01 3.134465000000000146e+01 1.135625000000000000e+02 1.573174999999999955e+03
7.300000000000000933e-02 5.774440000000000683e-01 3.193379999999999797e+01 1.158725000000000023e+02 1.573900000000000091e+03
7.399999999999999634e-02 5.779465000000000297e-01 3.247720000000000340e+01 1.181610000000000014e+02 1.574615000000000009e+03
7.499999999999999722e-02 5.784420000000000117e-01 3.297135000000000105e+01 1.204175000000000040e+02 1.575325000000000045e+03
7.599999999999999811e-02 5.789259999999999406e-01 3.341140000000000043e+01 1.226289999999999907e+02 1.576025000000000091e+03
7.699999999999999900e-02 5.793954999999999522e-01 3.379175000000000040e+01 1.247764999999999986e+02 1.576704999999999927e+03
7.799999999999999989e-02 5.798459999999999726e-01 3.410649999999999693e+01 1.268414999999999964e+02 1.577360000000000127e+03
7.900000000000000078e-02 5.802730000000000388e-01 3.434994999999999976e+01 1.288054999999999950e+02 1.577990000000000009e+03
8.000000000000000167e-02 5.806735000000000646e-01 3.451689999999999969e+01 1.306494999999999891e+02 1.578585000000000036e+03
8.100000000000000255e-02 5.810440000000000049e-01 3.460325000000000273e+01 1.323559999999999945e+02 1.579144999999999982e+03
8.200000000000000344e-02 5.813810000000000366e-01 3.460590000000000543e+01 1.339120000000000061e+02 1.579659999999999854e+03
8.300000000000000433e-02 5.816835000000000200e-01 3.452335000000000065e+01 1.353064999999999998e+02 1.580125000000000000e+03
8.400000000000000522e-02 5.819490000000000496e-01 3.435545000000000471e+01 1.365300000000000011e+02 1.580545000000000073e+03
8.500000000000000611e-02 5.821784999999999322e-01 3.410354999999999848e+01 1.375799999999999841e+02 1.580909999999999854e+03
8.600000000000000699e-02 5.823705000000000132e-01 3.377049999999999841e+01 1.384565000000000055e+02 1.581224999999999909e+03
8.700000000000000788e-02 5.825279999999999347e-01 3.336055000000000348e+01 1.391624999999999943e+02 1.581490000000000009e+03
8.800000000000000877e-02 5.826504999999999601e-01 3.287939999999999685e+01 1.397040000000000077e+02 1.581704999999999927e+03
8.899999999999999578e-02 5.827415000000000234e-01 3.233384999999999820e+01 1.400905000000000200e+02 1.581869999999999891e+03
8.999999999999999667e-02 5.828035000000000299e-01 3.173194999999999766e+01 1.403360000000000127e+02 1.581990000000000009e+03
9.099999999999999756e-02 5.828385000000000371e-01 3.108244999999999791e+01 1.404540000000000077e+02 1.582065000000000055e+03
9.199999999999999845e-02 5.828514999999999668e-01 3.039499999999999957e+01 1.404604999999999961e+02 1.582105000000000018e+03
9.299999999999999933e-02 5.828459999999999752e-01 2.967944999999999922e+01 1.403729999999999905e+02 1.582115000000000009e+03
9.400000000000000022e-02 5.828244999999999676e-01 2.894590000000000174e+01 1.402110000000000127e+02 1.582099999999999909e+03
9.500000000000000111e-02 5.827919999999999767e-01 2.820425000000000182e+01 1.399909999999999854e+02 1.582059999999999945e+03
9.600000000000000200e-02 5.827520000000000477e-01 2.746365000000000123e+01 1.397309999999999945e+02 1.582000000000000000e+03
9.700000000000000289e-02 5.827074999999999338e-01 2.673254999999999981e+01 1.394484999999999957e+02 1.581934999999999945e+03
9.800000000000000377e-02 5.826609999999999845e-01 2.601805000000000234e+01 1.391560000000000059e+02 1.581860000000000127e+03
9.900000000000000466e-02 5.826149999999999940e-01 2.532594999999999885e+01 1.388665000000000020e+02 1.581784999999999854e+03
1.000000000000000056e-01 5.825709999999999500e-01 2.466029999999999944e+01 1.385889999999999986e+02 1.581704999999999927e+03
1.010000000000000064e-01 5.825299999999999923e-01 2.402345000000000041e+01 1.383310000000000173e+02 1.581625000000000000e+03
1.020000000000000073e-01 5.824924999999999686e-01 2.341600000000000037e+01 1.380945000000000107e+02 1.581549999999999955e+03
1.030000000000000082e-01 5.824584999999999901e-01 2.283695000000000164e+01 1.378799999999999955e+02 1.581485000000000127e+03
1.040000000000000091e-01 5.824270000000000280e-01 2.228385000000000105e+01 1.376860000000000070e+02 1.581420000000000073e+03
1.050000000000000100e-01 5.823964999999999836e-01 2.175294999999999845e+01 1.375074999999999932e+02 1.581360000000000127e+03
1.059999999999999970e-01 5.823660000000000503e-01 2.123959999999999937e+01 1.373374999999999773e+02 1.581299999999999955e+03
1.069999999999999979e-01 5.823340000000000183e-01 2.073850000000000193e+01 1.371680000000000064e+02 1.581240000000000009e+03
1.079999999999999988e-01 5.822975000000000234e-01 2.024394999999999811e+01 1.369909999999999854e+02 1.581184999999999945e+03
1.089999999999999997e-01 5.822559999999999958e-01 1.975019999999999953e+01 1.367975000000000136e+02 1.581119999999999891e+03
1.100000000000000006e-01 5.822070000000000300e-01 1.925179999999999936e+01 1.365784999999999911e+02 1.581050000000000182e+03
1.110000000000000014e-01 5.821494999999999864e-01 1.874365000000000236e+01 1.363269999999999982e+02 1.580974999999999909e+03
1.120000000000000023e-01 5.820825000000000582e-01 1.822149999999999892e+01 1.360349999999999966e+02 1.580884999999999991e+03
1.130000000000000032e-01 5.820049999999999946e-01 1.768209999999999837e+01 1.356995000000000005e+02 1.580789999999999964e+03
1.140000000000000041e-01 5.819164999999999477e-01 1.712314999999999898e+01 1.353174999999999955e+02 1.580674999999999955e+03
1.150000000000000050e-01 5.818179999999999463e-01 1.654359999999999786e+01 1.348870000000000005e+02 1.580550000000000182e+03
1.160000000000000059e-01 5.817090000000000316e-01 1.594364999999999988e+01 1.344110000000000014e+02 1.580409999999999854e+03
1.170000000000000068e-01 5.815915000000000390e-01 1.532489999999999952e+01 1.338919999999999959e+02 1.580264999999999873e+03
1.180000000000000077e-01 5.814669999999999561e-01 1.469010000000000105e+01 1.333375000000000057e+02 1.580099999999999909e+03
1.190000000000000085e-01 5.813375000000000625e-01 1.404307000000000016e+01 1.327545000000000073e+02 1.579934999999999945e+03
1.200000000000000094e-01 5.812049999999999716e-01 1.338877000000000095e+01 1.321535000000000082e+02 1.579759999999999991e+03
1.209999999999999964e-01 5.810714999999999630e-01 1.273290000000000077e+01 1.315450000000000159e+02 1.579579999999999927e+03
1.219999999999999973e-01 5.809409999999999297e-01 1.208181000000000083e+01 1.309410000000000025e+02 1.579400000000000091e+03
1.229999999999999982e-01 5.808154999999999291e-01 1.144210999999999956e+01 1.303545000000000016e+02 1.579220000000000027e+03
1.239999999999999991e-01 5.806974999999999776e-01 1.082057499999999983e+01 1.297980000000000018e+02 1.579049999999999955e+03
1.250000000000000000e-01 5.805899999999999395e-01 1.022374500000000097e+01 1.292824999999999989e+02 1.578894999999999982e+03
1.260000000000000009e-01 5.804949999999999832e-01 9.657754999999999868e+00 1.288209999999999980e+02 1.578744999999999891e+03
1.270000000000000018e-01 5.804145000000000554e-01 9.127990000000000492e+00 1.284205000000000041e+02 1.578615000000000009e+03
1.280000000000000027e-01 5.803494999999999626e-01 8.638965000000000671e+00 1.280914999999999964e+02 1.578505000000000109e+03
1.290000000000000036e-01 5.803015000000000256e-01 8.194185000000000940e+00 1.278375000000000057e+02 1.578414999999999964e+03
1.300000000000000044e-01 5.802709999999999813e-01 7.795925000000000438e+00 1.276640000000000157e+02 1.578349999999999909e+03
1.310000000000000053e-01 5.802579999999999405e-01 7.445254999999999512e+00 1.275699999999999932e+02 1.578304999999999836e+03
1.320000000000000062e-01 5.802614999999999856e-01 7.141994999999999649e+00 1.275545000000000044e+02 1.578280000000000200e+03
1.330000000000000071e-01 5.802810000000000468e-01 6.884779999999999234e+00 1.276154999999999973e+02 1.578284999999999854e+03
1.340000000000000080e-01 5.803149999999999142e-01 6.671184999999999476e+00 1.277450000000000045e+02 1.578305000000000064e+03
1.350000000000000089e-01 5.803610000000000158e-01 6.497835000000000250e+00 1.279375000000000000e+02 1.578344999999999800e+03
1.360000000000000098e-01 5.804175000000000306e-01 6.360619999999999941e+00 1.281825000000000045e+02 1.578400000000000091e+03
1.370000000000000107e-01 5.804825000000000124e-01 6.254879999999999995e+00 1.284710000000000036e+02 1.578474999999999909e+03
1.380000000000000115e-01 5.805534999999999446e-01 6.175615000000000521e+00 1.287934999999999945e+02 1.578554999999999836e+03
1.390000000000000124e-01 5.806290000000000617e-01 6.117675000000000196e+00 1.291374999999999886e+02 1.578650000000000091e+03
1.400000000000000133e-01 5.807054999999999856e-01 6.075980000000000381e+00 1.294945000000000164e+02 1.578744999999999891e+03
1.410000000000000142e-01 5.807824999999999793e-01 6.045645000000000380e+00 1.298545000000000016e+02 1.578845000000000027e+03
1.420000000000000151e-01 5.808575000000000266e-01 6.022140000000000271e+00 1.302085000000000150e+02 1.578950000000000045e+03
1.430000000000000160e-01 5.809290000000000287e-01 6.001390000000000668e+00 1.305490000000000066e+02 1.579049999999999955e+03
1.440000000000000169e-01 5.809965000000000268e-01 5.979860000000000397e+00 1.308704999999999927e+02 1.579144999999999982e+03
1.450000000000000178e-01 5.810580000000000744e-01 5.954599999999999227e+00 1.311680000000000064e+02 1.579235000000000127e+03
1.459999999999999909e-01 5.811139999999999084e-01 5.923249999999999460e+00 1.314375000000000000e+02 1.579315000000000055e+03
1.469999999999999918e-01 5.811629999999999852e-01 5.884055000000000035e+00 1.316759999999999877e+02 1.579394999999999982e+03
1.479999999999999927e-01 5.812060000000000004e-01 5.835855000000000459e+00 1.318835000000000264e+02 1.579460000000000036e+03
1.489999999999999936e-01 5.812424999999999953e-01 5.778019999999999712e+00 1.320600000000000023e+02 1.579519999999999982e+03
1.499999999999999944e-01 5.812734999999999985e-01 5.710424999999999862e+00 1.322060000000000173e+02 1.579569999999999936e+03
1.509999999999999953e-01 5.812979999999999814e-01 5.633379999999999832e+00 1.323229999999999791e+02 1.579610000000000127e+03
1.519999999999999962e-01 5.813174999999999315e-01 5.547579999999999956e+00 1.324139999999999873e+02 1.579644999999999982e+03
1.529999999999999971e-01 5.813319999999999599e-01 5.454019999999999868e+00 1.324805000000000064e+02 1.579670000000000073e+03
1.539999999999999980e-01 5.813435000000000130e-01 5.353915000000000646e+00 1.325269999999999868e+02 1.579694999999999936e+03
1.549999999999999989e-01 5.813504999999999923e-01 5.248644999999999783e+00 1.325550000000000068e+02 1.579704999999999927e+03
1.559999999999999998e-01 5.813555000000000250e-01 5.139649999999999608e+00 1.325685000000000002e+02 1.579714999999999918e+03
1.570000000000000007e-01 5.813580000000000414e-01 5.028364999999999974e+00 1.325699999999999932e+02 1.579720000000000027e+03
1.580000000000000016e-01 5.813589999999999591e-01 4.916179999999999772e+00 1.325620000000000118e+02 1.579724999999999909e+03
1.590000000000000024e-01 5.813585000000000003e-01 4.804325000000000401e+00 1.325464999999999804e+02 1.579724999999999909e+03
