# t [s], A [cm^2], U [cm/s], P [cPa], c [cm/s]
1.000000000000000021e-03 5.775820000000000398e-01 3.644150000000005718e-03 1.031949999999999932e+02 1.511610000000000127e+03
2.000000000000000042e-03 5.775740000000000318e-01 -2.252099999999999935e-04 1.031769999999999925e+02 1.511605000000000018e+03
3.000000000000000062e-03 5.776105000000000267e-01 6.201359999999999512e-02 1.032379999999999995e+02 1.511619999999999891e+03
4.000000000000000083e-03 5.776589999999999225e-01 1.480160999999999838e-01 1.033449999999999989e+02 1.511650000000000091e+03
5.000000000000000104e-03 5.776609999999999800e-01 1.582359999999999878e-01 1.033584999999999923e+02 1.511654999999999973e+03
6.000000000000000125e-03 5.776225000000000387e-01 9.625899999999998347e-02 1.032460000000000093e+02 1.511634999999999991e+03
7.000000000000000146e-03 5.775814999999999699e-01 2.566350000000000575e-02 1.030679999999999978e+02 1.511595000000000027e+03
8.000000000000000167e-03 5.775345000000000617e-01 -6.056699999999998196e-02 1.028285000000000053e+02 1.511539999999999964e+03
9.000000000000001055e-03 5.774524999999999242e-01 -2.174854999999999983e-01 1.024625000000000057e+02 1.511454999999999927e+03
1.000000000000000194e-02 5.773234999999999895e-01 -4.676600000000000756e-01 1.019219999999999970e+02 1.511324999999999818e+03
1.099999999999999936e-02 5.771414999999999740e-01 -8.190600000000000103e-01 1.011672499999999957e+02 1.511140000000000100e+03
1.200000000000000025e-02 5.768925000000000303e-01 -1.283930000000000238e+00 1.001549499999999995e+02 1.510894999999999982e+03
1.300000000000000114e-02 5.765755000000000186e-01 -1.851180000000000270e+00 9.886384999999999934e+01 1.510575000000000045e+03
1.400000000000000203e-02 5.762130000000000862e-01 -2.461610000000000298e+00 9.733724999999999739e+01 1.510180000000000064e+03
1.499999999999999944e-02 5.758434999999999526e-01 -3.020799999999999930e+00 9.567865000000000464e+01 1.509740000000000009e+03
1.600000000000000033e-02 5.755029999999999868e-01 -3.436325000000000074e+00 9.401560000000000628e+01 1.509284999999999854e+03
1.700000000000000122e-02 5.752129999999999743e-01 -3.649674500000000155e+00 9.245140000000000668e+01 1.508835000000000036e+03
1.800000000000000211e-02 5.749720000000000386e-01 -3.647807499999999870e+00 9.103974999999999795e+01 1.508409999999999854e+03
1.900000000000000300e-02 5.747645000000000115e-01 -3.456502849999999682e+00 8.978000000000000114e+01 1.508005000000000109e+03
2.000000000000000042e-02 5.745679999999999676e-01 -3.124109499999999873e+00 8.862999999999999545e+01 1.507619999999999891e+03
2.100000000000000130e-02 5.743595000000000228e-01 -2.703211500000000100e+00 8.752729999999999677e+01 1.507250000000000000e+03
2.200000000000000219e-02 5.741260000000000252e-01 -2.235599999999999810e+00 8.641225000000000023e+01 1.506869999999999891e+03
2.299999999999999961e-02 5.738615000000000244e-01 -1.743630000000000013e+00 8.524459999999999127e+01 1.506480000000000018e+03
2.400000000000000050e-02 5.735715000000000119e-01 -1.229690000000000172e+00 8.401194999999999879e+01 1.506074999999999818e+03
2.500000000000000139e-02 5.732665000000000122e-01 -6.829850000000001753e-01 8.272655000000000314e+01 1.505654999999999973e+03
2.600000000000000228e-02 5.729569999999999386e-01 -9.032499999999998863e-02 8.141419999999999391e+01 1.505224999999999909e+03
2.700000000000000316e-02 5.726499999999999924e-01 5.533199999999998120e-01 8.009975000000000023e+01 1.504795000000000073e+03
2.800000000000000058e-02 5.723464999999999803e-01 1.238080000000000069e+00 7.879480000000000928e+01 1.504360000000000127e+03
2.900000000000000147e-02 5.720389999999999642e-01 1.937644999999999840e+00 7.749089999999999634e+01 1.503929999999999836e+03
3.000000000000000236e-02 5.717155000000000431e-01 2.612600000000000477e+00 7.615940000000000509e+01 1.503490000000000009e+03
3.099999999999999978e-02 5.713614999999999666e-01 3.217329999999999579e+00 7.475719999999999743e+01 1.503034999999999854e+03
3.200000000000000067e-02 5.709649999999999448e-01 3.708590000000000053e+00 7.323669999999999902e+01 1.502554999999999836e+03
3.300000000000000155e-02 5.705179999999999696e-01 4.053760000000000474e+00 7.155790000000000362e+01 1.502029999999999973e+03
3.400000000000000244e-02 5.700184999999999835e-01 4.237124999999999808e+00 6.969889999999999475e+01 1.501464999999999918e+03
3.500000000000000333e-02 5.694730000000000070e-01 4.262760000000000105e+00 6.766370000000000573e+01 1.500860000000000127e+03
3.600000000000000422e-02 5.688969999999999860e-01 4.153325000000000600e+00 6.548439999999999372e+01 1.500219999999999800e+03
3.700000000000000511e-02 5.683089999999999531e-01 3.945894999999999708e+00 6.321809999999999974e+01 1.499555000000000064e+03
3.799999999999999906e-02 5.677309999999999857e-01 3.685235000000000483e+00 6.094010000000000105e+01 1.498884999999999991e+03
3.899999999999999994e-02 5.671829999999999927e-01 3.417405000000000026e+00 5.873389999999999844e+01 1.498230000000000018e+03
4.000000000000000083e-02 5.666860000000000230e-01 3.184154999999999625e+00 5.668229999999999791e+01 1.497610000000000127e+03
4.100000000000000172e-02 5.662525000000000475e-01 3.019474999999999465e+00 5.485925000000000296e+01 1.497034999999999854e+03
4.200000000000000261e-02 5.658950000000000369e-01 2.948320000000000718e+00 5.332529999999999859e+01 1.496545000000000073e+03
4.300000000000000350e-02 5.656189999999999829e-01 2.986939999999999706e+00 5.212469999999999715e+01 1.496139999999999873e+03
4.400000000000000439e-02 5.654289999999999594e-01 3.144865999999999939e+00 5.128605000000000302e+01 1.495829999999999927e+03
4.499999999999999833e-02 5.653250000000000774e-01 3.427049499999999860e+00 5.082424999999999926e+01 1.495625000000000000e+03
4.599999999999999922e-02 5.653080000000000327e-01 3.836110000000000131e+00 5.074375000000000568e+01 1.495529999999999973e+03
4.700000000000000011e-02 5.653764999999999485e-01 4.373990000000000045e+00 5.104149999999999920e+01 1.495535000000000082e+03
4.800000000000000100e-02 5.655280000000000307e-01 5.042709999999999582e+00 5.171000000000000085e+01 1.495659999999999854e+03
4.900000000000000189e-02 5.657630000000000159e-01 5.844305000000000305e+00 5.273874999999999602e+01 1.495889999999999873e+03
5.000000000000000278e-02 5.660779999999999701e-01 6.779989999999999739e+00 5.411495000000000033e+01 1.496220000000000027e+03
5.100000000000000366e-02 5.664694999999999592e-01 7.849099999999999966e+00 5.582319999999999993e+01 1.496654999999999973e+03
5.200000000000000455e-02 5.669349999999999667e-01 9.047750000000000625e+00 5.784469999999999601e+01 1.497184999999999945e+03
5.300000000000000544e-02 5.674675000000000136e-01 1.036822999999999873e+01 6.015649999999999409e+01 1.497805000000000064e+03
5.399999999999999939e-02 5.680604999999999682e-01 1.179844499999999918e+01 6.273059999999999548e+01 1.498505000000000109e+03
5.500000000000000028e-02 5.687054999999999749e-01 1.332252000000000081e+01 6.553444999999999254e+01 1.499279999999999973e+03
5.600000000000000117e-02 5.693924999999999681e-01 1.492111000000000054e+01 6.853139999999999077e+01 1.500119999999999891e+03
5.700000000000000205e-02 5.701129999999999809e-01 1.657307000000000130e+01 7.168195000000000050e+01 1.501014999999999873e+03
5.800000000000000294e-02 5.708564999999999889e-01 1.825628000000000029e+01 7.494559999999999889e+01 1.501954999999999927e+03
5.900000000000000383e-02 5.716145000000000254e-01 1.994934999999999903e+01 7.828264999999998963e+01 1.502925000000000182e+03
6.000000000000000472e-02 5.723785000000000123e-01 2.163234999999999886e+01 8.165619999999999834e+01 1.503920000000000073e+03
6.099999999999999867e-02 5.731420000000000403e-01 2.328829999999999956e+01 8.503364999999999441e+01 1.504920000000000073e+03
6.199999999999999956e-02 5.738995000000000068e-01 2.490294999999999703e+01 8.838805000000000689e+01 1.505930000000000064e+03
6.300000000000000044e-02 5.746465000000000600e-01 2.646560000000000201e+01 9.169839999999999236e+01 1.506930000000000064e+03
6.400000000000000133e-02 5.753820000000000601e-01 2.796859999999999857e+01 9.495064999999999600e+01 1.507924999999999955e+03
6.500000000000000222e-02 5.761039999999999495e-01 2.940739999999999910e+01 9.813609999999999900e+01 1.508909999999999854e+03
6.600000000000000311e-02 5.768130000000000202e-01 3.077984999999999971e+01 1.012523999999999944e+02 1.509880000000000109e+03
6.700000000000000400e-02 5.775095000000000089e-01 3.208570000000000277e+01 1.043010999999999910e+02 1.510829999999999927e+03
6.800000000000000488e-02 5.781954999999999734e-01 3.332634999999999792e+01 1.072870000000000061e+02 1.511769999999999982e+03
6.900000000000000577e-02 5.788720000000000532e-01 3.450379999999999825e+01 1.102175000000000011e+02 1.512694999999999936e+03
7.000000000000000666e-02 5.795414999999999317e-01 3.562039999999999651e+01 1.130999999999999943e+02 1.513605000000000018e+03
7.100000000000000755e-02 5.802045000000000119e-01 3.667865000000000464e+01 1.159424999999999955e+02 1.514509999999999991e+03
7.200000000000000844e-02 5.808625000000000593e-01 3.768035000000000423e+01 1.187514999999999930e+02 1.515400000000000091e+03
7.300000000000000933e-02 5.815155000000000740e-01 3.862675000000000125e+01 1.215319999999999965e+02 1.516284999999999854e+03
7.399999999999999634e-02 5.821644999999999737e-01 3.951789999999999736e+01 1.242845000000000084e+02 1.517164999999999964e+03
7.499999999999999722e-02 5.828074999999999228e-01 4.035304999999999609e+01 1.270079999999999956e+02 1.518034999999999854e+03
7.599999999999999811e-02 5.834440000000000737e-01 4.113025000000000375e+01 1.296980000000000075e+02 1.518894999999999982e+03
7.699999999999999900e-02 5.840705000000000480e-01 4.184675000000000011e+01 1.323474999999999966e+02 1.519740000000000009e+03
7.799999999999999989e-02 5.846854999999999691e-01 4.249890000000000612e+01 1.349449999999999932e+02 1.520574999999999818e+03
7.900000000000000078e-02 5.852849999999999442e-01 4.308250000000000313e+01 1.374800000000000182e+02 1.521389999999999873e+03
8.000000000000000167e-02 5.858659999999999979e-01 4.359340000000000259e+01 1.399370000000000118e+02 1.522190000000000055e+03
8.100000000000000255e-02 5.864260000000000028e-01 4.402724999999999511e+01 1.423019999999999925e+02 1.522960000000000036e+03
8.200000000000000344e-02 5.869599999999999262e-01 4.437995000000000090e+01 1.445609999999999786e+02 1.523700000000000045e+03
8.300000000000000433e-02 5.874665000000000026e-01 4.464835000000000065e+01 1.466999999999999886e+02 1.524409999999999854e+03
8.400000000000000522e-02 5.879415000000000058e-01 4.482975000000000421e+01 1.487069999999999936e+02 1.525079999999999927e+03
8.500000000000000611e-02 5.883834999999999482e-01 4.492235000000000156e+01 1.505705000000000098e+02 1.525710000000000036e+03
8.600000000000000699e-02 5.887909999999999533e-01 4.492555000000000121e+01 1.522819999999999823e+02 1.526289999999999964e+03
8.700000000000000788e-02 5.891625000000000334e-01 4.483974999999999511e+01 1.538369999999999891e+02 1.526829999999999927e+03
8.800000000000000877e-02 5.894969999999999377e-01 4.466649999999999920e+01 1.552305000000000064e+02 1.527315000000000055e+03
8.899999999999999578e-02 5.897944999999999993e-01 4.440834999999999866e+01 1.564624999999999773e+02 1.527755000000000109e+03
8.999999999999999667e-02 5.900560000000000249e-01 4.406915000000000049e+01 1.575339999999999918e+02 1.528150000000000091e+03
9.099999999999999756e-02 5.902825000000000433e-01 4.365364999999999895e+01 1.584495000000000005e+02 1.528490000000000009e+03
9.199999999999999845e-02 5.904749999999999721e-01 4.316769999999999641e+01 1.592164999999999964e+02 1.528784999999999854e+03
9.299999999999999933e-02 5.906359999999999388e-01 4.261795000000000044e+01 1.598425000000000011e+02 1.529034999999999854e+03
9.400000000000000022e-02 5.907679999999999598e-01 4.201184999999999548e+01 1.603385000000000105e+02 1.529244999999999891e+03
9.500000000000000111e-02 5.908729999999999816e-01 4.135750000000000171e+01 1.607164999999999964e+02 1.529410000000000082e+03
9.600000000000000200e-02 5.909545000000000492e-01 4.066349999999999909e+01 1.609895000000000209e+02 1.529545000000000073e+03
9.700000000000000289e-02 5.910159999999999858e-01 3.993845000000000312e+01 1.611719999999999970e+02 1.529644999999999982e+03
9.800000000000000377e-02 5.910600000000000298e-01 3.919115000000000038e+01 1.612775000000000034e+02 1.529715000000000146e+03
9.900000000000000466e-02 5.910904999999999632e-01 3.843009999999999593e+01 1.613209999999999980e+02 1.529765000000000100e+03
1.000000000000000056e-01 5.911089999999999955e-01 3.766310000000000002e+01 1.613145000000000095e+02 1.529795000000000073e+03
1.010000000000000064e-01 5.911199999999999788e-01 3.689744999999999919e+01 1.612724999999999795e+02 1.529809999999999945e+03
1.020000000000000073e-01 5.911239999999999828e-01 3.613920000000000243e+01 1.612055000000000007e+02 1.529809999999999945e+03
1.030000000000000082e-01 5.911245000000000527e-01 3.539339999999999975e+01 1.611220000000000141e+02 1.529799999999999955e+03
1.040000000000000091e-01 5.911219999999999253e-01 3.466375000000000028e+01 1.610294999999999845e+02 1.529784999999999854e+03
1.050000000000000100e-01 5.911180000000000323e-01 3.395260000000000389e+01 1.609335000000000093e+02 1.529769999999999982e+03
1.059999999999999970e-01 5.911115000000000119e-01 3.326100000000000279e+01 1.608365000000000009e+02 1.529744999999999891e+03
1.069999999999999979e-01 5.911045000000000327e-01 3.258859999999999957e+01 1.607384999999999877e+02 1.529720000000000027e+03
1.079999999999999988e-01 5.910940000000000083e-01 3.193404999999999916e+01 1.606385000000000218e+02 1.529695000000000164e+03
1.089999999999999997e-01 5.910815000000000374e-01 3.129495000000000005e+01 1.605330000000000155e+02 1.529659999999999854e+03
1.100000000000000006e-01 5.910640000000000338e-01 3.066815000000000069e+01 1.604180000000000064e+02 1.529625000000000000e+03
1.110000000000000014e-01 5.910409999999999275e-01 3.004990000000000094e+01 1.602864999999999895e+02 1.529585000000000036e+03
1.120000000000000023e-01 5.910119999999999818e-01 2.943629999999999924e+01 1.601330000000000098e+02 1.529545000000000073e+03
1.130000000000000032e-01 5.909735000000000404e-01 2.882329999999999970e+01 1.599515000000000100e+02 1.529485000000000127e+03
1.140000000000000041e-01 5.909260000000000623e-01 2.820700000000000074e+01 1.597350000000000136e+02 1.529425000000000182e+03
1.150000000000000050e-01 5.908670000000000311e-01 2.758379999999999654e+01 1.594789999999999850e+02 1.529344999999999800e+03
1.160000000000000059e-01 5.907974999999999755e-01 2.695080000000000098e+01 1.591775000000000091e+02 1.529255000000000109e+03
1.170000000000000068e-01 5.907154999999999490e-01 2.630559999999999832e+01 1.588294999999999959e+02 1.529155000000000200e+03
1.180000000000000077e-01 5.906215000000000215e-01 2.564669999999999916e+01 1.584325000000000045e+02 1.529039999999999964e+03
1.190000000000000085e-01 5.905154999999999710e-01 2.497334999999999994e+01 1.579855000000000018e+02 1.528909999999999854e+03
1.200000000000000094e-01 5.903985000000000483e-01 2.428565000000000040e+01 1.574909999999999854e+02 1.528764999999999873e+03
1.209999999999999964e-01 5.902709999999999901e-01 2.358464999999999989e+01 1.569515000000000100e+02 1.528605000000000018e+03
1.219999999999999973e-01 5.901345000000000063e-01 2.287229999999999919e+01 1.563720000000000141e+02 1.528440000000000055e+03
1.229999999999999982e-01 5.899900000000000144e-01 2.215125000000000099e+01 1.557584999999999980e+02 1.528255000000000109e+03
1.239999999999999991e-01 5.898404999999999898e-01 2.142484999999999928e+01 1.551184999999999832e+02 1.528065000000000055e+03
1.250000000000000000e-01 5.896865000000000023e-01 2.069709999999999894e+01 1.544600000000000080e+02 1.527869999999999891e+03
1.260000000000000009e-01 5.895314999999999861e-01 1.997254999999999825e+01 1.537914999999999850e+02 1.527664999999999964e+03
1.270000000000000018e-01 5.893770000000000397e-01 1.925580000000000069e+01 1.531229999999999905e+02 1.527460000000000036e+03
1.280000000000000027e-01 5.892254999999999576e-01 1.855195000000000149e+01 1.524635000000000105e+02 1.527259999999999991e+03
1.290000000000000036e-01 5.890790000000000193e-01 1.786589999999999989e+01 1.518230000000000075e+02 1.527059999999999945e+03
1.300000000000000044e-01 5.889400000000000190e-01 1.720250000000000057e+01 1.512094999999999914e+02 1.526869999999999891e+03
1.310000000000000053e-01 5.888090000000000268e-01 1.656615000000000038e+01 1.506320000000000050e+02 1.526690000000000055e+03
1.320000000000000062e-01 5.886894999999999767e-01 1.596095000000000041e+01 1.500980000000000132e+02 1.526514999999999873e+03
1.330000000000000071e-01 5.885814999999999797e-01 1.539034999999999975e+01 1.496125000000000114e+02 1.526355000000000018e+03
1.340000000000000080e-01 5.884859999999999536e-01 1.485715000000000074e+01 1.491814999999999998e+02 1.526210000000000036e+03
1.350000000000000089e-01 5.884040000000000381e-01 1.436350000000000193e+01 1.488070000000000164e+02 1.526079999999999927e+03
1.360000000000000098e-01 5.883355000000000112e-01 1.391054999999999886e+01 1.484919999999999902e+02 1.525970000000000027e+03
1.370000000000000107e-01 5.882804999999999840e-01 1.349874999999999936e+01 1.482355000000000018e+02 1.525880000000000109e+03
1.380000000000000115e-01 5.882389999999999564e-01 1.312784999999999869e+01 1.480375000000000227e+02 1.525799999999999955e+03
1.390000000000000124e-01 5.882100000000000106e-01 1.279674999999999940e+01 1.478950000000000102e+02 1.525735000000000127e+03
1.400000000000000133e-01 5.881925000000000070e-01 1.250375000000000014e+01 1.478045000000000186e+02 1.525695000000000164e+03
1.410000000000000142e-01 5.881849999999999579e-01 1.224644999999999939e+01 1.477604999999999791e+02 1.525659999999999854e+03
1.420000000000000151e-01 5.881864999999999455e-01 1.202219999999999978e+01 1.477579999999999814e+02 1.525644999999999982e+03
1.430000000000000160e-01 5.881954999999999822e-01 1.182774999999999999e+01 1.477909999999999968e+02 1.525639999999999873e+03
1.440000000000000169e-01 5.882110000000000394e-01 1.165995000000000026e+01 1.478530000000000086e+02 1.525644999999999982e+03
1.450000000000000178e-01 5.882309999999999484e-01 1.151524999999999999e+01 1.479375000000000000e+02 1.525654999999999973e+03
1.459999999999999909e-01 5.882545000000000135e-01 1.139025499999999980e+01 1.480384999999999991e+02 1.525670000000000073e+03
1.469999999999999918e-01 5.882789999999999964e-01 1.128171500000000016e+01 1.481504999999999939e+02 1.525700000000000045e+03
1.479999999999999927e-01 5.883054999999999257e-01 1.118646499999999833e+01 1.482674999999999841e+02 1.525724999999999909e+03
1.489999999999999936e-01 5.883315000000000072e-01 1.110166500000000056e+01 1.483849999999999909e+02 1.525755000000000109e+03
1.499999999999999944e-01 5.883565000000000600e-01 1.102480999999999867e+01 1.484995000000000118e+02 1.525785000000000082e+03
1.509999999999999953e-01 5.883795000000000552e-01 1.095366500000000087e+01 1.486075000000000159e+02 1.525809999999999945e+03
1.519999999999999962e-01 5.884009999999999518e-01 1.088640499999999989e+01 1.487069999999999936e+02 1.525835000000000036e+03
1.529999999999999971e-01 5.884199999999999431e-01 1.082150999999999996e+01 1.487969999999999970e+02 1.525860000000000127e+03
1.539999999999999980e-01 5.884369999999999878e-01 1.075781500000000079e+01 1.488745000000000118e+02 1.525880000000000109e+03
1.549999999999999989e-01 5.884515000000000162e-01 1.069449999999999967e+01 1.489420000000000073e+02 1.525904999999999973e+03
1.559999999999999998e-01 5.884629999999999583e-01 1.063107000000000113e+01 1.489975000000000023e+02 1.525920000000000073e+03
1.570000000000000007e-01 5.884730000000000238e-01 1.056724999999999959e+01 1.490434999999999945e+02 1.525934999999999945e+03
1.580000000000000016e-01 5.884810000000000318e-01 1.050296999999999947e+01 1.490799999999999841e+02 1.525949999999999818e+03
1.590000000000000024e-01 5.884880000000000111e-01 1.043835499999999961e+01 1.491090000000000089e+02 1.525954999999999927e+03
