# t [s], A [cm^2], U [cm/s], P [cPa], c [cm/s]
1.000000000000000021e-03 5.835245000000000015e-01 4.023849999999995486e-03 1.039555000000000007e+02 1.546110000000000127e+03
2.000000000000000042e-03 5.835164999999999935e-01 6.246000000000007622e-05 1.039350000000000023e+02 1.546105000000000018e+03
3.000000000000000062e-03 5.835620000000000251e-01 8.088634999999999575e-02 1.040169999999999959e+02 1.546125000000000000e+03
4.000000000000000083e-03 5.836090000000000444e-01 1.700860999999999901e-01 1.041289999999999907e+02 1.546155000000000200e+03
5.000000000000000104e-03 5.835980000000000611e-01 1.612635000000000041e-01 1.041099999999999994e+02 1.546154999999999973e+03
6.000000000000000125e-03 5.835485000000000255e-01 8.019850000000000589e-02 1.039480000000000075e+02 1.546125000000000000e+03
7.000000000000000146e-03 5.835010000000000474e-01 -3.006000000000008665e-03 1.037199999999999989e+02 1.546074999999999818e+03
8.000000000000000167e-03 5.834354999999999958e-01 -1.264884999999999482e-01 1.033960000000000008e+02 1.546000000000000000e+03
9.000000000000001055e-03 5.833215000000000483e-01 -3.496799999999999908e-01 1.028940000000000055e+02 1.545889999999999873e+03
1.000000000000000194e-02 5.831520000000000037e-01 -6.841200000000000614e-01 1.021670000000000016e+02 1.545735000000000127e+03
1.099999999999999936e-02 5.829170000000000185e-01 -1.139629999999999921e+00 1.011692000000000036e+02 1.545505000000000109e+03
1.200000000000000025e-02 5.826029999999999820e-01 -1.725795000000000190e+00 9.985085000000000832e+01 1.545200000000000045e+03
1.300000000000000114e-02 5.822195000000000009e-01 -2.406269999999999687e+00 9.821764999999999191e+01 1.544820000000000164e+03
1.400000000000000203e-02 5.818054999999999755e-01 -3.083315000000000250e+00 9.636609999999998877e+01 1.544369999999999891e+03
1.499999999999999944e-02 5.814114999999999700e-01 -3.634099999999999664e+00 9.445390000000000441e+01 1.543884999999999991e+03
1.600000000000000033e-02 5.810739999999999794e-01 -3.962291500000000077e+00 9.263589999999999236e+01 1.543410000000000082e+03
1.700000000000000122e-02 5.808024999999999993e-01 -4.028506000000000142e+00 9.101175000000000637e+01 1.542960000000000036e+03
1.800000000000000211e-02 5.805835000000000301e-01 -3.851361499999999882e+00 8.960349999999999682e+01 1.542539999999999964e+03
1.900000000000000300e-02 5.803890000000000438e-01 -3.488965499999999942e+00 8.836634999999999707e+01 1.542154999999999973e+03
2.000000000000000042e-02 5.801880000000000370e-01 -3.013210350000000037e+00 8.721649999999999636e+01 1.541789999999999964e+03
2.100000000000000130e-02 5.799575000000000147e-01 -2.486026999999999987e+00 8.606479999999999109e+01 1.541424999999999955e+03
2.200000000000000219e-02 5.796885000000000510e-01 -1.943624999999999936e+00 8.484590000000000032e+01 1.541039999999999964e+03
2.299999999999999961e-02 5.793844999999999690e-01 -1.392635000000000067e+00 8.353419999999999845e+01 1.540639999999999873e+03
2.400000000000000050e-02 5.790595000000000603e-01 -8.182500000000001439e-01 8.214260000000000161e+01 1.540224999999999909e+03
2.500000000000000139e-02 5.787280000000000202e-01 -1.997999999999997556e-01 8.070670000000001210e+01 1.539789999999999964e+03
2.600000000000000228e-02 5.784009999999999430e-01 4.732549999999999812e-01 7.926279999999999859e+01 1.539360000000000127e+03
2.700000000000000316e-02 5.780790000000000095e-01 1.190675000000000150e+00 7.782874999999999943e+01 1.538920000000000073e+03
2.800000000000000058e-02 5.777520000000000433e-01 1.918809999999999905e+00 7.639269999999999072e+01 1.538480000000000018e+03
2.900000000000000147e-02 5.774044999999999872e-01 2.605465000000000142e+00 7.491315000000000168e+01 1.538034999999999854e+03
3.000000000000000236e-02 5.770159999999999734e-01 3.189964999999999939e+00 7.332750000000000057e+01 1.537565000000000055e+03
3.099999999999999978e-02 5.765700000000000269e-01 3.615715000000000234e+00 7.156745000000000800e+01 1.537054999999999836e+03
3.200000000000000067e-02 5.760555000000000536e-01 3.842064999999999841e+00 6.957689999999999486e+01 1.536494999999999891e+03
3.300000000000000155e-02 5.754719999999999835e-01 3.853210000000000246e+00 6.732804999999999040e+01 1.535880000000000109e+03
3.400000000000000244e-02 5.748299999999999521e-01 3.661040000000000294e+00 6.483174999999999955e+01 1.535210000000000036e+03
3.500000000000000333e-02 5.741494999999999793e-01 3.302940000000000431e+00 6.213915000000000077e+01 1.534484999999999900e+03
3.600000000000000422e-02 5.734574999999999534e-01 2.833954999999999558e+00 5.933594999999999686e+01 1.533735000000000127e+03
3.700000000000000511e-02 5.727820000000000134e-01 2.317074999999999552e+00 5.652974999999999994e+01 1.532974999999999909e+03
3.799999999999999906e-02 5.721505000000000063e-01 1.813555000000000472e+00 5.383549999999999613e+01 1.532240000000000009e+03
3.899999999999999994e-02 5.715854999999999686e-01 1.376105000000000356e+00 5.136185000000000400e+01 1.531545000000000073e+03
4.000000000000000083e-02 5.711034999999999862e-01 1.044615000000000293e+00 4.920094999999999885e+01 1.530920000000000073e+03
4.100000000000000172e-02 5.707140000000000546e-01 8.455899999999996197e-01 4.742199999999999704e+01 1.530389999999999873e+03
4.200000000000000261e-02 5.704240000000000421e-01 7.937549999999999883e-01 4.607019999999999982e+01 1.529954999999999927e+03
4.300000000000000350e-02 5.702335000000000598e-01 8.951950000000001850e-01 4.516809999999999548e+01 1.529640000000000100e+03
4.400000000000000439e-02 5.701420000000000377e-01 1.150835499999999900e+00 4.472034999999999627e+01 1.529440000000000055e+03
4.499999999999999833e-02 5.701465000000000005e-01 1.559525000000000050e+00 4.471859999999999502e+01 1.529365000000000009e+03
4.599999999999999922e-02 5.702435000000000143e-01 2.119920000000000027e+00 4.514674999999999727e+01 1.529394999999999982e+03
4.700000000000000011e-02 5.704290000000000749e-01 2.831122500000000208e+00 4.598434999999999917e+01 1.529545000000000073e+03
4.800000000000000100e-02 5.706999999999999851e-01 3.691985999999999990e+00 4.720870000000000033e+01 1.529805000000000064e+03
4.900000000000000189e-02 5.710509999999999753e-01 4.699721499999999885e+00 4.879495000000000005e+01 1.530160000000000082e+03
5.000000000000000278e-02 5.714764999999999429e-01 5.848245999999999611e+00 5.071529999999999916e+01 1.530619999999999891e+03
5.100000000000000366e-02 5.719695000000000196e-01 7.126954000000000455e+00 5.293770000000000664e+01 1.531159999999999854e+03
5.200000000000000455e-02 5.725210000000000576e-01 8.519894999999999996e+00 5.542510000000000048e+01 1.531784999999999854e+03
5.300000000000000544e-02 5.731209999999999916e-01 1.000637000000000043e+01 5.813495000000000346e+01 1.532470000000000027e+03
5.399999999999999939e-02 5.737569999999999615e-01 1.156161999999999956e+01 6.102044999999999675e+01 1.533215000000000146e+03
5.500000000000000028e-02 5.744190000000000129e-01 1.315850499999999990e+01 6.403170000000000073e+01 1.534005000000000109e+03
5.600000000000000117e-02 5.750930000000000764e-01 1.476950000000000074e+01 6.711840000000000828e+01 1.534820000000000164e+03
5.700000000000000205e-02 5.757704999999999629e-01 1.636811999999999756e+01 7.023234999999999673e+01 1.535664999999999964e+03
5.800000000000000294e-02 5.764415000000000511e-01 1.793104999999999905e+01 7.333010000000000161e+01 1.536505000000000109e+03
5.900000000000000383e-02 5.770990000000000286e-01 1.943880000000000052e+01 7.637505000000000166e+01 1.537345000000000027e+03
6.000000000000000472e-02 5.777375000000000149e-01 2.087650000000000006e+01 7.933879999999999200e+01 1.538174999999999955e+03
6.099999999999999867e-02 5.783549999999999525e-01 2.223434999999999917e+01 8.220230000000000814e+01 1.538990000000000009e+03
6.199999999999999956e-02 5.789495000000000058e-01 2.350690000000000168e+01 8.495550000000000068e+01 1.539780000000000200e+03
6.300000000000000044e-02 5.795224999999999405e-01 2.469294999999999973e+01 8.759675000000000011e+01 1.540539999999999964e+03
6.400000000000000133e-02 5.800750000000000073e-01 2.579460000000000264e+01 9.013165000000000759e+01 1.541284999999999854e+03
6.500000000000000222e-02 5.806115000000000581e-01 2.681640000000000157e+01 9.257160000000000366e+01 1.542000000000000000e+03
6.600000000000000311e-02 5.811344999999999983e-01 2.776484999999999914e+01 9.493164999999999054e+01 1.542700000000000045e+03
6.700000000000000400e-02 5.816479999999999428e-01 2.864724999999999966e+01 9.722990000000000066e+01 1.543375000000000000e+03
6.800000000000000488e-02 5.821555000000000479e-01 2.947109999999999985e+01 9.948359999999999559e+01 1.544039999999999964e+03
6.900000000000000577e-02 5.826605000000000256e-01 3.024365000000000236e+01 1.017098000000000013e+02 1.544700000000000045e+03
7.000000000000000666e-02 5.831659999999999622e-01 3.097099999999999653e+01 1.039223499999999945e+02 1.545355000000000018e+03
7.100000000000000755e-02 5.836725000000000385e-01 3.165800000000000125e+01 1.061315000000000026e+02 1.546009999999999991e+03
7.200000000000000844e-02 5.841815000000000202e-01 3.230750000000000455e+01 1.083439999999999941e+02 1.546654999999999973e+03
7.300000000000000933e-02 5.846925000000000594e-01 3.292054999999999865e+01 1.105594999999999999e+02 1.547304999999999836e+03
7.399999999999999634e-02 5.852030000000000287e-01 3.349604999999999677e+01 1.127744999999999891e+02 1.547954999999999927e+03
7.499999999999999722e-02 5.857109999999999816e-01 3.403119999999999834e+01 1.149784999999999968e+02 1.548605000000000018e+03
7.599999999999999811e-02 5.862135000000000540e-01 3.452150000000000318e+01 1.171589999999999918e+02 1.549244999999999891e+03
7.699999999999999900e-02 5.867050000000000320e-01 3.496139999999999759e+01 1.192985000000000042e+02 1.549875000000000000e+03
7.799999999999999989e-02 5.871819999999999817e-01 3.534444999999999482e+01 1.213770000000000095e+02 1.550490000000000009e+03
7.900000000000000078e-02 5.876394999999999813e-01 3.566405000000000314e+01 1.233745000000000118e+02 1.551090000000000146e+03
8.000000000000000167e-02 5.880729999999999569e-01 3.591379999999999484e+01 1.252709999999999866e+02 1.551655000000000200e+03
8.100000000000000255e-02 5.884789999999999743e-01 3.608794999999999931e+01 1.270465000000000089e+02 1.552195000000000164e+03
8.200000000000000344e-02 5.888529999999999598e-01 3.618160000000000309e+01 1.286845000000000141e+02 1.552699999999999818e+03
8.300000000000000433e-02 5.891919999999999380e-01 3.619124999999999659e+01 1.301690000000000111e+02 1.553164999999999964e+03
8.400000000000000522e-02 5.894939999999999625e-01 3.611464999999999748e+01 1.314900000000000091e+02 1.553585000000000036e+03
8.500000000000000611e-02 5.897590000000000332e-01 3.595120000000000005e+01 1.326390000000000100e+02 1.553954999999999927e+03
8.600000000000000699e-02 5.899845000000000228e-01 3.570210000000000150e+01 1.336134999999999877e+02 1.554279999999999973e+03
8.700000000000000788e-02 5.901715000000000710e-01 3.536984999999999957e+01 1.344130000000000109e+02 1.554559999999999945e+03
8.800000000000000877e-02 5.903214999999999435e-01 3.495879999999999654e+01 1.350419999999999732e+02 1.554784999999999854e+03
8.899999999999999578e-02 5.904355000000000020e-01 3.447460000000000235e+01 1.355074999999999932e+02 1.554969999999999800e+03
8.999999999999999667e-02 5.905169999999999586e-01 3.392430000000000234e+01 1.358209999999999980e+02 1.555105000000000018e+03
9.099999999999999756e-02 5.905679999999999819e-01 3.331624999999999659e+01 1.359939999999999998e+02 1.555200000000000045e+03
9.199999999999999845e-02 5.905925000000000757e-01 3.265950000000000131e+01 1.360439999999999827e+02 1.555255000000000109e+03
9.299999999999999933e-02 5.905940000000000634e-01 3.196395000000000408e+01 1.359869999999999948e+02 1.555279999999999973e+03
9.400000000000000022e-02 5.905770000000000186e-01 3.123965000000000103e+01 1.358410000000000082e+02 1.555275000000000091e+03
9.500000000000000111e-02 5.905445000000000277e-01 3.049690000000000367e+01 1.356245000000000118e+02 1.555250000000000000e+03
9.600000000000000200e-02 5.905015000000000125e-01 2.974544999999999817e+01 1.353555000000000064e+02 1.555204999999999927e+03
9.700000000000000289e-02 5.904504999999999892e-01 2.899449999999999861e+01 1.350509999999999877e+02 1.555139999999999873e+03
9.800000000000000377e-02 5.903954999999999620e-01 2.825230000000000175e+01 1.347269999999999754e+02 1.555065000000000055e+03
9.900000000000000466e-02 5.903380000000000294e-01 2.752575000000000216e+01 1.343960000000000150e+02 1.554985000000000127e+03
1.000000000000000056e-01 5.902819999999999734e-01 2.682029999999999959e+01 1.340690000000000168e+02 1.554904999999999973e+03
1.010000000000000064e-01 5.902275000000000160e-01 2.613969999999999771e+01 1.337535000000000025e+02 1.554824999999999818e+03
1.020000000000000073e-01 5.901754999999999640e-01 2.548620000000000019e+01 1.334549999999999841e+02 1.554739999999999782e+03
1.030000000000000082e-01 5.901264999999999983e-01 2.486005000000000109e+01 1.331745000000000232e+02 1.554659999999999854e+03
1.040000000000000091e-01 5.900794999999999790e-01 2.426015000000000299e+01 1.329110000000000014e+02 1.554585000000000036e+03
1.050000000000000100e-01 5.900339999999999474e-01 2.368394999999999939e+01 1.326605000000000132e+02 1.554509999999999991e+03
1.059999999999999970e-01 5.899879999999999569e-01 2.312770000000000081e+01 1.324164999999999850e+02 1.554434999999999945e+03
1.069999999999999979e-01 5.899389999999999912e-01 2.258684999999999832e+01 1.321719999999999970e+02 1.554360000000000127e+03
1.079999999999999988e-01 5.898870000000000502e-01 2.205604999999999905e+01 1.319180000000000064e+02 1.554284999999999854e+03
1.089999999999999997e-01 5.898280000000000189e-01 2.153000000000000114e+01 1.316444999999999936e+02 1.554210000000000036e+03
1.100000000000000006e-01 5.897605000000000208e-01 2.100309999999999988e+01 1.313414999999999964e+02 1.554119999999999891e+03
1.110000000000000014e-01 5.896839999999999860e-01 2.047019999999999840e+01 1.310010000000000048e+02 1.554019999999999982e+03
1.120000000000000023e-01 5.895949999999999802e-01 1.992674999999999841e+01 1.306150000000000091e+02 1.553914999999999964e+03
1.130000000000000032e-01 5.894939999999999625e-01 1.936895000000000167e+01 1.301769999999999925e+02 1.553795000000000073e+03
1.140000000000000041e-01 5.893795000000000561e-01 1.879394999999999882e+01 1.296829999999999927e+02 1.553659999999999854e+03
1.150000000000000050e-01 5.892509999999999692e-01 1.820015000000000072e+01 1.291295000000000073e+02 1.553505000000000109e+03
1.160000000000000059e-01 5.891089999999999938e-01 1.758699999999999974e+01 1.285180000000000007e+02 1.553340000000000146e+03
1.170000000000000068e-01 5.889544999999999364e-01 1.695524999999999949e+01 1.278499999999999943e+02 1.553164999999999964e+03
1.180000000000000077e-01 5.887890000000000068e-01 1.630705000000000027e+01 1.271310000000000002e+02 1.552964999999999918e+03
1.190000000000000085e-01 5.886135000000000117e-01 1.564545000000000030e+01 1.263669999999999902e+02 1.552759999999999991e+03
1.200000000000000094e-01 5.884314999999999962e-01 1.497500000000000142e+01 1.255669999999999931e+02 1.552539999999999964e+03
1.209999999999999964e-01 5.882450000000000179e-01 1.430076999999999998e+01 1.247419999999999902e+02 1.552315000000000055e+03
1.219999999999999973e-01 5.880554999999999533e-01 1.362887999999999877e+01 1.239039999999999964e+02 1.552079999999999927e+03
1.229999999999999982e-01 5.878674999999999873e-01 1.296580499999999958e+01 1.230655000000000001e+02 1.551849999999999909e+03
1.239999999999999991e-01 5.876839999999999842e-01 1.231832999999999956e+01 1.222394999999999925e+02 1.551609999999999900e+03
1.250000000000000000e-01 5.875064999999999316e-01 1.169333500000000114e+01 1.214394999999999953e+02 1.551384999999999991e+03
1.260000000000000009e-01 5.873390000000000555e-01 1.109745500000000007e+01 1.206779999999999973e+02 1.551164999999999964e+03
1.270000000000000018e-01 5.871834999999999694e-01 1.053670499999999954e+01 1.199664999999999964e+02 1.550960000000000036e+03
1.280000000000000027e-01 5.870420000000000638e-01 1.001665000000000028e+01 1.193155000000000001e+02 1.550759999999999991e+03
1.290000000000000036e-01 5.869165000000000632e-01 9.541685000000001082e+00 1.187330000000000041e+02 1.550585000000000036e+03
1.300000000000000044e-01 5.868084999999999551e-01 9.115355000000000985e+00 1.182259999999999991e+02 1.550425000000000182e+03
1.310000000000000053e-01 5.867175000000000029e-01 8.739934999999999121e+00 1.177984999999999900e+02 1.550289999999999964e+03
1.320000000000000062e-01 5.866455000000000419e-01 8.416484999999999772e+00 1.174519999999999982e+02 1.550175000000000182e+03
1.330000000000000071e-01 5.865909999999999735e-01 8.144940000000000069e+00 1.171869999999999976e+02 1.550079999999999927e+03
1.340000000000000080e-01 5.865534999999999499e-01 7.923994999999999678e+00 1.169994999999999976e+02 1.550005000000000109e+03
1.350000000000000089e-01 5.865314999999999834e-01 7.751299999999999635e+00 1.168864999999999981e+02 1.549949999999999818e+03
1.360000000000000098e-01 5.865240000000000453e-01 7.623594999999999899e+00 1.168410000000000082e+02 1.549920000000000073e+03
1.370000000000000107e-01 5.865289999999999671e-01 7.536839999999999762e+00 1.168549999999999898e+02 1.549904999999999973e+03
1.380000000000000115e-01 5.865439999999999543e-01 7.486449999999999605e+00 1.169200000000000017e+02 1.549900000000000091e+03
1.390000000000000124e-01 5.865679999999999783e-01 7.467470000000000496e+00 1.170275000000000034e+02 1.549914999999999964e+03
1.400000000000000133e-01 5.865979999999999528e-01 7.474745000000000417e+00 1.171674999999999898e+02 1.549940000000000055e+03
1.410000000000000142e-01 5.866325000000000012e-01 7.503135000000000332e+00 1.173309999999999889e+02 1.549970000000000027e+03
1.420000000000000151e-01 5.866704999999999837e-01 7.547670000000000101e+00 1.175100000000000051e+02 1.550005000000000109e+03
1.430000000000000160e-01 5.867085000000000772e-01 7.603669999999999263e+00 1.176955000000000098e+02 1.550045000000000073e+03
1.440000000000000169e-01 5.867465000000000597e-01 7.666864999999999597e+00 1.178810000000000002e+02 1.550095000000000027e+03
1.450000000000000178e-01 5.867830000000000545e-01 7.733489999999999753e+00 1.180614999999999952e+02 1.550139999999999873e+03
1.459999999999999909e-01 5.868170000000000330e-01 7.800304999999999822e+00 1.182309999999999945e+02 1.550180000000000064e+03
1.469999999999999918e-01 5.868480000000000363e-01 7.864659999999999762e+00 1.183864999999999981e+02 1.550220000000000027e+03
1.479999999999999927e-01 5.868754999999999944e-01 7.924484999999999779e+00 1.185270000000000010e+02 1.550255000000000109e+03
1.489999999999999936e-01 5.868995000000000184e-01 7.978249999999999176e+00 1.186500000000000057e+02 1.550295000000000073e+03
1.499999999999999944e-01 5.869199999999999973e-01 8.024979999999999336e+00 1.187565000000000026e+02 1.550324999999999818e+03
1.509999999999999953e-01 5.869370000000000420e-01 8.064189999999999969e+00 1.188460000000000036e+02 1.550349999999999909e+03
1.519999999999999962e-01 5.869510000000000005e-01 8.095819999999999794e+00 1.189209999999999923e+02 1.550375000000000000e+03
1.529999999999999971e-01 5.869630000000000125e-01 8.120179999999999509e+00 1.189830000000000041e+02 1.550394999999999982e+03
1.539999999999999980e-01 5.869725000000000081e-01 8.137895000000000323e+00 1.190339999999999918e+02 1.550409999999999854e+03
1.549999999999999989e-01 5.869815000000000449e-01 8.149829999999999686e+00 1.190765000000000100e+02 1.550424999999999955e+03
1.559999999999999998e-01 5.869889999999999830e-01 8.157019999999999271e+00 1.191140000000000043e+02 1.550440000000000055e+03
1.570000000000000007e-01 5.869965000000000321e-01 8.160579999999999501e+00 1.191490000000000009e+02 1.550450000000000045e+03
1.580000000000000016e-01 5.870044999999999291e-01 8.161670000000000869e+00 1.191825000000000045e+02 1.550465000000000146e+03
1.590000000000000024e-01 5.870130000000000070e-01 8.161410000000000053e+00 1.192185000000000059e+02 1.550474999999999909e+03
