# t [s], A [cm^2], U [cm/s], P [cPa], c [cm/s]
1.000000000000000021e-03 1.416129999999999889e-01 2.493650000000000033e-01 8.757380000000000564e+01 1.917365000000000009e+03
2.000000000000000042e-03 1.415890000000000204e-01 1.558417500000000011e+00 8.491714999999999236e+01 1.917089999999999918e+03
3.000000000000000062e-03 1.415069999999999939e-01 3.171651000000000220e+00 8.136929999999999552e+01 1.916190000000000055e+03
4.000000000000000083e-03 1.413860000000000117e-01 4.969009250000000044e+00 7.740610000000000923e+01 1.914890000000000100e+03
5.000000000000000104e-03 1.412484999999999991e-01 6.905440000000000467e+00 7.369579999999999131e+01 1.913420000000000073e+03
6.000000000000000125e-03 1.411104999999999998e-01 8.880105000000000359e+00 7.057649999999999579e+01 1.911954999999999927e+03
7.000000000000000146e-03 1.409785000000000066e-01 1.073755500000000040e+01 6.798295000000000243e+01 1.910574999999999818e+03
8.000000000000000167e-03 1.408535000000000204e-01 1.236533499999999997e+01 6.569490000000000407e+01 1.909295000000000073e+03
9.000000000000001055e-03 1.407395000000000174e-01 1.375313500000000033e+01 6.363915000000000077e+01 1.908139999999999873e+03
1.000000000000000194e-02 1.406390000000000140e-01 1.493325000000000102e+01 6.187340000000000373e+01 1.907130000000000109e+03
1.099999999999999936e-02 1.405524999999999969e-01 1.592440000000000033e+01 6.042574999999999363e+01 1.906275000000000091e+03
1.200000000000000025e-02 1.404805000000000081e-01 1.673489999999999966e+01 5.926744999999999663e+01 1.905570000000000164e+03
1.300000000000000114e-02 1.404210000000000180e-01 1.737084999999999724e+01 5.834629999999999939e+01 1.904994999999999891e+03
1.400000000000000203e-02 1.403725000000000112e-01 1.783385000000000176e+01 5.758975000000000222e+01 1.904529999999999973e+03
1.499999999999999944e-02 1.403314999999999979e-01 1.813230000000000075e+01 5.692354999999999876e+01 1.904144999999999982e+03
1.600000000000000033e-02 1.402964999999999907e-01 1.830715000000000003e+01 5.633944999999999936e+01 1.903835000000000036e+03
1.700000000000000122e-02 1.402705000000000202e-01 1.844160000000000110e+01 5.595265000000000555e+01 1.903599999999999909e+03
1.800000000000000211e-02 1.402569999999999928e-01 1.863875000000000171e+01 5.597565000000000168e+01 1.903480000000000018e+03
1.900000000000000300e-02 1.402599999999999958e-01 1.897814999999999941e+01 5.661275000000000546e+01 1.903525000000000091e+03
2.000000000000000042e-02 1.402840000000000198e-01 1.948049999999999926e+01 5.794124999999999659e+01 1.903769999999999982e+03
2.100000000000000130e-02 1.403280000000000083e-01 2.009785000000000110e+01 5.984919999999999618e+01 1.904210000000000036e+03
2.200000000000000219e-02 1.403860000000000108e-01 2.073210000000000264e+01 6.205670000000000641e+01 1.904789999999999964e+03
2.299999999999999961e-02 1.404509999999999925e-01 2.126934999999999931e+01 6.420089999999999009e+01 1.905450000000000045e+03
2.400000000000000050e-02 1.405129999999999990e-01 2.161560000000000059e+01 6.594514999999999816e+01 1.906075000000000045e+03
2.500000000000000139e-02 1.405645000000000089e-01 2.172109999999999985e+01 6.706860000000000355e+01 1.906605000000000018e+03
2.600000000000000228e-02 1.405994999999999884e-01 2.158789999999999765e+01 6.751124999999998977e+01 1.906980000000000018e+03
2.700000000000000316e-02 1.406184999999999796e-01 2.126105000000000089e+01 6.736565000000000225e+01 1.907194999999999936e+03
2.800000000000000058e-02 1.406229999999999980e-01 2.080814999999999770e+01 6.682519999999999527e+01 1.907259999999999991e+03
2.900000000000000147e-02 1.406169999999999920e-01 2.029639999999999844e+01 6.611195000000000732e+01 1.907220000000000027e+03
3.000000000000000236e-02 1.406065000000000231e-01 1.977364999999999995e+01 6.540874999999999773e+01 1.907119999999999891e+03
3.099999999999999978e-02 1.405939999999999968e-01 1.925945000000000107e+01 6.481574999999999420e+01 1.907000000000000000e+03
3.200000000000000067e-02 1.405819999999999848e-01 1.874640000000000128e+01 6.434040000000000248e+01 1.906880000000000109e+03
3.300000000000000155e-02 1.405700000000000005e-01 1.820989999999999753e+01 6.391694999999999993e+01 1.906759999999999991e+03
3.400000000000000244e-02 1.405560000000000143e-01 1.762154999999999916e+01 6.344595000000000340e+01 1.906625000000000000e+03
3.500000000000000333e-02 1.405394999999999839e-01 1.696355000000000146e+01 6.283894999999999698e+01 1.906465000000000146e+03
3.600000000000000422e-02 1.405179999999999763e-01 1.623784999999999812e+01 6.205564999999999998e+01 1.906255000000000109e+03
3.700000000000000511e-02 1.404914999999999914e-01 1.547050000000000125e+01 6.112510000000000332e+01 1.906000000000000000e+03
3.799999999999999906e-02 1.404619999999999758e-01 1.470805000000000007e+01 6.014475000000000193e+01 1.905710000000000036e+03
3.899999999999999994e-02 1.404325000000000156e-01 1.400860000000000127e+01 5.926014999999999588e+01 1.905425000000000182e+03
4.000000000000000083e-02 1.404075000000000184e-01 1.342924999999999969e+01 5.863009999999999877e+01 1.905164999999999964e+03
4.100000000000000172e-02 1.403905000000000014e-01 1.301384999999999970e+01 5.838840000000000430e+01 1.904990000000000009e+03
4.200000000000000261e-02 1.403849999999999820e-01 1.278350000000000009e+01 5.861119999999999663e+01 1.904924999999999955e+03
4.300000000000000350e-02 1.403929999999999900e-01 1.273225000000000051e+01 5.929890000000000327e+01 1.904990000000000009e+03
4.400000000000000439e-02 1.404134999999999966e-01 1.282870000000000132e+01 6.037444999999999595e+01 1.905175000000000182e+03
4.499999999999999833e-02 1.404444999999999999e-01 1.302149999999999963e+01 6.169759999999999422e+01 1.905474999999999909e+03
4.599999999999999922e-02 1.404815000000000091e-01 1.324835000000000029e+01 6.308995000000000175e+01 1.905835000000000036e+03
4.700000000000000011e-02 1.405210000000000070e-01 1.344545000000000101e+01 6.436459999999999582e+01 1.906230000000000018e+03
4.800000000000000100e-02 1.405569999999999875e-01 1.355545000000000044e+01 6.535310000000001196e+01 1.906590000000000146e+03
4.900000000000000189e-02 1.405855000000000021e-01 1.353409999999999869e+01 6.592664999999999509e+01 1.906869999999999891e+03
5.000000000000000278e-02 1.406020000000000048e-01 1.335294999999999987e+01 6.600775000000000148e+01 1.907039999999999964e+03
5.100000000000000366e-02 1.406050000000000078e-01 1.299964999999999904e+01 6.557210000000000605e+01 1.907075000000000045e+03
5.200000000000000455e-02 1.405925000000000091e-01 1.247649999999999970e+01 6.464244999999999663e+01 1.906965000000000146e+03
5.300000000000000544e-02 1.405655000000000099e-01 1.179682999999999993e+01 6.327729999999999677e+01 1.906699999999999818e+03
5.399999999999999939e-02 1.405254999999999976e-01 1.098160999999999987e+01 6.155699999999999505e+01 1.906309999999999945e+03
5.500000000000000028e-02 1.404735000000000011e-01 1.005589499999999958e+01 5.957134999999999536e+01 1.905800000000000182e+03
5.600000000000000117e-02 1.404124999999999956e-01 9.046789999999999665e+00 5.740954999999999586e+01 1.905195000000000164e+03
5.700000000000000205e-02 1.403444999999999832e-01 7.981790000000000163e+00 5.515429999999999922e+01 1.904519999999999982e+03
5.800000000000000294e-02 1.402724999999999944e-01 6.888315000000000410e+00 5.287969999999999970e+01 1.903799999999999955e+03
5.900000000000000383e-02 1.401979999999999893e-01 5.794059999999999988e+00 5.065214999999999890e+01 1.903059999999999945e+03
6.000000000000000472e-02 1.401239999999999986e-01 4.727249999999999730e+00 4.853284999999999627e+01 1.902325000000000045e+03
6.099999999999999867e-02 1.400520000000000098e-01 3.717080000000000162e+00 4.658084999999999809e+01 1.901610000000000127e+03
6.199999999999999956e-02 1.399854999999999849e-01 2.793704499999999591e+00 4.485500000000000398e+01 1.900934999999999945e+03
6.300000000000000044e-02 1.399249999999999938e-01 1.987827000000000011e+00 4.341479999999999961e+01 1.900329999999999927e+03
6.400000000000000133e-02 1.398734999999999840e-01 1.329745500000000025e+00 4.231974999999999909e+01 1.899809999999999945e+03
6.500000000000000222e-02 1.398334999999999995e-01 8.481024999999999814e-01 4.162664999999999793e+01 1.899400000000000091e+03
6.600000000000000311e-02 1.398054999999999992e-01 5.683250000000000801e-01 4.138669999999999760e+01 1.899110000000000127e+03
6.700000000000000400e-02 1.397930000000000006e-01 5.111535000000000384e-01 4.164145000000000607e+01 1.898965000000000146e+03
6.800000000000000488e-02 1.397960000000000036e-01 6.913025000000000420e-01 4.241925000000000523e+01 1.898974999999999909e+03
6.900000000000000577e-02 1.398159999999999958e-01 1.116478499999999929e+00 4.373284999999999911e+01 1.899164999999999964e+03
7.000000000000000666e-02 1.398540000000000061e-01 1.786901999999999990e+00 4.557760000000000389e+01 1.899519999999999982e+03
7.100000000000000755e-02 1.399090000000000056e-01 2.695244500000000265e+00 4.793160000000000309e+01 1.900054999999999836e+03
7.200000000000000844e-02 1.399815000000000087e-01 3.827115000000000045e+00 5.075659999999999883e+01 1.900759999999999991e+03
7.300000000000000933e-02 1.400704999999999867e-01 5.161880000000000024e+00 5.400045000000000073e+01 1.901630000000000109e+03
7.399999999999999634e-02 1.401729999999999920e-01 6.673884999999999401e+00 5.760044999999999504e+01 1.902639999999999873e+03
7.499999999999999722e-02 1.402889999999999970e-01 8.333694999999998743e+00 6.148680000000000234e+01 1.903785000000000082e+03
7.599999999999999811e-02 1.404154999999999986e-01 1.010974500000000020e+01 6.558670000000000755e+01 1.905035000000000082e+03
7.699999999999999900e-02 1.405500000000000083e-01 1.196968000000000032e+01 6.982800000000000296e+01 1.906384999999999991e+03
7.799999999999999989e-02 1.406910000000000105e-01 1.388190999999999953e+01 7.414305000000000234e+01 1.907789999999999964e+03
7.900000000000000078e-02 1.408360000000000167e-01 1.581670000000000087e+01 7.847155000000000769e+01 1.909240000000000009e+03
8.000000000000000167e-02 1.409825000000000106e-01 1.774755000000000038e+01 8.276290000000000191e+01 1.910720000000000027e+03
8.100000000000000255e-02 1.411300000000000054e-01 1.965165000000000006e+01 8.697790000000000532e+01 1.912204999999999927e+03
8.200000000000000344e-02 1.412760000000000127e-01 2.151064999999999827e+01 9.108939999999999770e+01 1.913684999999999945e+03
8.300000000000000433e-02 1.414199999999999902e-01 2.331085000000000207e+01 9.508195000000000618e+01 1.915144999999999982e+03
8.400000000000000522e-02 1.415609999999999924e-01 2.504289999999999949e+01 9.895154999999999745e+01 1.916585000000000036e+03
8.500000000000000611e-02 1.416990000000000194e-01 2.670165000000000077e+01 1.027026999999999930e+02 1.918000000000000000e+03
8.600000000000000699e-02 1.418340000000000156e-01 2.828519999999999968e+01 1.063475499999999982e+02 1.919375000000000000e+03
8.700000000000000788e-02 1.419664999999999955e-01 2.979445000000000121e+01 1.099020000000000010e+02 1.920735000000000127e+03
8.800000000000000877e-02 1.420954999999999857e-01 3.123219999999999885e+01 1.133840000000000003e+02 1.922065000000000055e+03
8.899999999999999578e-02 1.422229999999999883e-01 3.260205000000000553e+01 1.168119999999999976e+02 1.923375000000000000e+03
8.999999999999999667e-02 1.423484999999999889e-01 3.390789999999999793e+01 1.202000000000000028e+02 1.924670000000000073e+03
9.099999999999999756e-02 1.424725000000000019e-01 3.515324999999999989e+01 1.235594999999999999e+02 1.925949999999999818e+03
9.199999999999999845e-02 1.425954999999999862e-01 3.634055000000000035e+01 1.268965000000000032e+02 1.927220000000000027e+03
9.299999999999999933e-02 1.427174999999999971e-01 3.747100000000000364e+01 1.302110000000000127e+02 1.928485000000000127e+03
9.400000000000000022e-02 1.428389999999999938e-01 3.854435000000000144e+01 1.334970000000000141e+02 1.929744999999999891e+03
9.500000000000000111e-02 1.429584999999999884e-01 3.955884999999999962e+01 1.367445000000000164e+02 1.930985000000000127e+03
9.600000000000000200e-02 1.430774999999999963e-01 4.051115000000000066e+01 1.399375000000000000e+02 1.932215000000000146e+03
9.700000000000000289e-02 1.431939999999999880e-01 4.139690000000000225e+01 1.430585000000000093e+02 1.933430000000000064e+03
9.800000000000000377e-02 1.433085000000000053e-01 4.221075000000000443e+01 1.460855000000000246e+02 1.934619999999999891e+03
9.900000000000000466e-02 1.434189999999999909e-01 4.294634999999999536e+01 1.489964999999999975e+02 1.935775000000000091e+03
1.000000000000000056e-01 1.435259999999999869e-01 4.359740000000000038e+01 1.517694999999999936e+02 1.936889999999999873e+03
1.010000000000000064e-01 1.436280000000000057e-01 4.415734999999999388e+01 1.543815000000000168e+02 1.937965000000000146e+03
1.020000000000000073e-01 1.437255000000000060e-01 4.461984999999999957e+01 1.568125000000000000e+02 1.938984999999999900e+03
1.030000000000000082e-01 1.438165000000000138e-01 4.497939999999999827e+01 1.590439999999999827e+02 1.939940000000000055e+03
1.040000000000000091e-01 1.439004999999999868e-01 4.523120000000000118e+01 1.610609999999999786e+02 1.940820000000000164e+03
1.050000000000000100e-01 1.439779999999999949e-01 4.537165000000000248e+01 1.628509999999999991e+02 1.941634999999999991e+03
1.059999999999999970e-01 1.440469999999999806e-01 4.539860000000000184e+01 1.644055000000000177e+02 1.942375000000000000e+03
1.069999999999999979e-01 1.441089999999999871e-01 4.531135000000000446e+01 1.657210000000000036e+02 1.943025000000000091e+03
1.079999999999999988e-01 1.441624999999999990e-01 4.511110000000000042e+01 1.667955000000000041e+02 1.943594999999999800e+03
1.089999999999999997e-01 1.442074999999999885e-01 4.480075000000000074e+01 1.676359999999999957e+02 1.944075000000000045e+03
1.100000000000000006e-01 1.442450000000000121e-01 4.438519999999999754e+01 1.682495000000000118e+02 1.944480000000000018e+03
1.110000000000000014e-01 1.442740000000000133e-01 4.387084999999999724e+01 1.686490000000000009e+02 1.944799999999999955e+03
1.120000000000000023e-01 1.442960000000000076e-01 4.326610000000000156e+01 1.688514999999999873e+02 1.945035000000000082e+03
1.130000000000000032e-01 1.443110000000000226e-01 4.258055000000000234e+01 1.688760000000000048e+02 1.945200000000000045e+03
1.140000000000000041e-01 1.443194999999999895e-01 4.182505000000000450e+01 1.687454999999999927e+02 1.945300000000000182e+03
1.150000000000000050e-01 1.443220000000000058e-01 4.101109999999999900e+01 1.684825000000000159e+02 1.945335000000000036e+03
1.160000000000000059e-01 1.443194999999999895e-01 4.015070000000000050e+01 1.681119999999999948e+02 1.945320000000000164e+03
1.170000000000000068e-01 1.443129999999999968e-01 3.925600000000000023e+01 1.676569999999999823e+02 1.945259999999999991e+03
1.180000000000000077e-01 1.443030000000000146e-01 3.833875000000000455e+01 1.671419999999999959e+02 1.945160000000000082e+03
1.190000000000000085e-01 1.442900000000000016e-01 3.740990000000000038e+01 1.665869999999999891e+02 1.945029999999999973e+03
1.200000000000000094e-01 1.442749999999999866e-01 3.647950000000000159e+01 1.660099999999999909e+02 1.944884999999999991e+03
1.209999999999999964e-01 1.442589999999999983e-01 3.555644999999999811e+01 1.654270000000000209e+02 1.944714999999999918e+03
1.219999999999999973e-01 1.442424999999999957e-01 3.464799999999999613e+01 1.648509999999999991e+02 1.944539999999999964e+03
1.229999999999999982e-01 1.442249999999999921e-01 3.376000000000000512e+01 1.642889999999999873e+02 1.944360000000000127e+03
1.239999999999999991e-01 1.442074999999999885e-01 3.289650000000000318e+01 1.637470000000000141e+02 1.944170000000000073e+03
1.250000000000000000e-01 1.441899999999999848e-01 3.206010000000000559e+01 1.632264999999999873e+02 1.943989999999999782e+03
1.260000000000000009e-01 1.441724999999999812e-01 3.125154999999999816e+01 1.627255000000000109e+02 1.943809999999999945e+03
1.270000000000000018e-01 1.441560000000000064e-01 3.047035000000000338e+01 1.622390000000000043e+02 1.943634999999999991e+03
1.280000000000000027e-01 1.441395000000000037e-01 2.971454999999999913e+01 1.617610000000000241e+02 1.943454999999999927e+03
1.290000000000000036e-01 1.441220000000000001e-01 2.898114999999999952e+01 1.612819999999999823e+02 1.943275000000000091e+03
1.300000000000000044e-01 1.441054999999999975e-01 2.826630000000000109e+01 1.607914999999999850e+02 1.943095000000000027e+03
1.310000000000000053e-01 1.440879999999999939e-01 2.756535000000000224e+01 1.602789999999999964e+02 1.942914999999999964e+03
1.320000000000000062e-01 1.440700000000000036e-01 2.687359999999999971e+01 1.597324999999999875e+02 1.942719999999999800e+03
1.330000000000000071e-01 1.440504999999999980e-01 2.618580000000000041e+01 1.591419999999999959e+02 1.942514999999999873e+03
1.340000000000000080e-01 1.440295000000000047e-01 2.549730000000000274e+01 1.584965000000000259e+02 1.942295000000000073e+03
1.350000000000000089e-01 1.440064999999999817e-01 2.480349999999999966e+01 1.577889999999999873e+02 1.942054999999999836e+03
1.360000000000000098e-01 1.439819999999999989e-01 2.410060000000000002e+01 1.570109999999999957e+02 1.941795000000000073e+03
1.370000000000000107e-01 1.439549999999999996e-01 2.338560000000000016e+01 1.561589999999999918e+02 1.941509999999999991e+03
1.380000000000000115e-01 1.439254999999999840e-01 2.265640000000000143e+01 1.552300000000000182e+02 1.941200000000000045e+03
1.390000000000000124e-01 1.438929999999999931e-01 2.191205000000000069e+01 1.542255000000000109e+02 1.940869999999999891e+03
1.400000000000000133e-01 1.438585000000000003e-01 2.115259999999999962e+01 1.531475000000000080e+02 1.940514999999999873e+03
1.410000000000000142e-01 1.438214999999999910e-01 2.037940000000000040e+01 1.520029999999999859e+02 1.940125000000000000e+03
1.420000000000000151e-01 1.437820000000000209e-01 1.959499999999999886e+01 1.507990000000000066e+02 1.939720000000000027e+03
1.430000000000000160e-01 1.437410000000000077e-01 1.880280000000000129e+01 1.495475000000000136e+02 1.939289999999999964e+03
1.440000000000000169e-01 1.436974999999999780e-01 1.800740000000000052e+01 1.482590000000000146e+02 1.938844999999999800e+03
1.450000000000000178e-01 1.436530000000000029e-01 1.721395000000000053e+01 1.469484999999999957e+02 1.938380000000000109e+03
1.459999999999999909e-01 1.436080000000000134e-01 1.642834999999999823e+01 1.456310000000000002e+02 1.937910000000000082e+03
1.469999999999999918e-01 1.435619999999999952e-01 1.565670000000000073e+01 1.443209999999999980e+02 1.937440000000000055e+03
1.479999999999999927e-01 1.435170000000000057e-01 1.490535000000000032e+01 1.430344999999999800e+02 1.936965000000000146e+03
1.489999999999999936e-01 1.434715000000000018e-01 1.418039999999999878e+01 1.417855000000000132e+02 1.936490000000000009e+03
1.499999999999999944e-01 1.434274999999999856e-01 1.348764999999999858e+01 1.405869999999999891e+02 1.936034999999999854e+03
1.509999999999999953e-01 1.433849999999999847e-01 1.283234999999999992e+01 1.394509999999999934e+02 1.935595000000000027e+03
1.519999999999999962e-01 1.433439999999999992e-01 1.221890000000000143e+01 1.383870000000000005e+02 1.935164999999999964e+03
1.529999999999999971e-01 1.433055000000000023e-01 1.165091999999999928e+01 1.374019999999999868e+02 1.934764999999999873e+03
1.539999999999999980e-01 1.432694999999999941e-01 1.113096999999999959e+01 1.365015000000000214e+02 1.934384999999999991e+03
1.549999999999999989e-01 1.432360000000000022e-01 1.066072000000000131e+01 1.356875000000000000e+02 1.934034999999999854e+03
1.559999999999999998e-01 1.432054999999999856e-01 1.024060000000000059e+01 1.349604999999999961e+02 1.933714999999999918e+03
1.570000000000000007e-01 1.431775000000000131e-01 9.870260000000000034e+00 1.343190000000000168e+02 1.933420000000000073e+03
1.580000000000000016e-01 1.431525000000000158e-01 9.548310000000000741e+00 1.337580000000000098e+02 1.933154999999999973e+03
1.590000000000000024e-01 1.431299999999999795e-01 9.272574999999999790e+00 1.332729999999999961e+02 1.932914999999999964e+03
