# t [s], A [cm^2], U [cm/s], P [cPa], c [cm/s]
1.000000000000000021e-03 6.990155000000000118e-01 6.480500000000000149e-03 1.049405000000000001e+02 1.775904999999999973e+03
2.000000000000000042e-03 6.990064999999999751e-01 2.984200000000001088e-03 1.049099999999999966e+02 1.775900000000000091e+03
3.000000000000000062e-03 6.990769999999999484e-01 1.303326499999999943e-01 1.050645000000000095e+02 1.775929999999999836e+03
4.000000000000000083e-03 6.991140000000000132e-01 2.148545000000000038e-01 1.051734999999999900e+02 1.775960000000000036e+03
5.000000000000000104e-03 6.990560000000000107e-01 1.410414999999999863e-01 1.050115000000000123e+02 1.775925000000000182e+03
6.000000000000000125e-03 6.989814999999999223e-01 3.014149999999998775e-02 1.046990000000000123e+02 1.775865000000000009e+03
7.000000000000000146e-03 6.989045000000000396e-01 -9.868799999999994244e-02 1.042930000000000064e+02 1.775775000000000091e+03
8.000000000000000167e-03 6.987609999999999655e-01 -3.627200000000000424e-01 1.036359999999999957e+02 1.775639999999999873e+03
9.000000000000001055e-03 6.985410000000000785e-01 -7.851449999999999818e-01 1.026485000000000127e+02 1.775424999999999955e+03
1.000000000000000194e-02 6.982275000000000009e-01 -1.385059999999999736e+00 1.012490500000000111e+02 1.775130000000000109e+03
1.099999999999999936e-02 6.977964999999999307e-01 -2.185289999999999733e+00 9.934600000000000364e+01 1.774720000000000027e+03
1.200000000000000025e-02 6.972814999999999985e-01 -3.100900000000000212e+00 9.699295000000000755e+01 1.774199999999999818e+03
1.300000000000000114e-02 6.967714999999999881e-01 -3.931670000000000442e+00 9.445019999999999527e+01 1.773619999999999891e+03
1.400000000000000203e-02 6.963524999999999299e-01 -4.477179500000000090e+00 9.204744999999999777e+01 1.773049999999999955e+03
1.499999999999999944e-02 6.960554999999999382e-01 -4.641161000000000314e+00 9.000915000000000532e+01 1.772529999999999973e+03
1.600000000000000033e-02 6.958524999999999849e-01 -4.453219999999999956e+00 8.837494999999999834e+01 1.772079999999999927e+03
1.700000000000000122e-02 6.956815000000000637e-01 -4.026844999999999786e+00 8.702410000000000423e+01 1.771679999999999836e+03
1.800000000000000211e-02 6.954825000000000035e-01 -3.495470000000000077e+00 8.575894999999999868e+01 1.771305000000000064e+03
1.900000000000000300e-02 6.952175000000000438e-01 -2.956500999999999824e+00 8.440000000000000568e+01 1.770914999999999964e+03
2.000000000000000042e-02 6.948840000000000572e-01 -2.441702999999999957e+00 8.285590000000000543e+01 1.770485000000000127e+03
2.100000000000000130e-02 6.945090000000000430e-01 -1.922339999999999938e+00 8.114305000000000234e+01 1.770025000000000091e+03
2.200000000000000219e-02 6.941289999999999960e-01 -1.342829999999999746e+00 7.935204999999999131e+01 1.769545000000000073e+03
2.299999999999999961e-02 6.937705000000000677e-01 -6.630749999999998590e-01 7.758464999999999634e+01 1.769065000000000055e+03
2.400000000000000050e-02 6.934379999999999988e-01 1.111450000000000493e-01 7.589445000000000618e+01 1.768595000000000027e+03
2.500000000000000139e-02 6.931104999999999627e-01 9.198099999999997944e-01 7.425464999999999804e+01 1.768139999999999873e+03
2.600000000000000228e-02 6.927505000000000468e-01 1.661129999999999995e+00 7.255904999999999916e+01 1.767670000000000073e+03
2.700000000000000316e-02 6.923140000000000960e-01 2.218195000000000139e+00 7.065219999999999345e+01 1.767159999999999854e+03
2.800000000000000058e-02 6.917685000000000084e-01 2.491134999999999877e+00 6.837824999999999420e+01 1.766579999999999927e+03
2.900000000000000147e-02 6.911000000000000476e-01 2.425684999999999647e+00 6.563280000000000314e+01 1.765904999999999973e+03
3.000000000000000236e-02 6.903220000000001022e-01 2.028840000000000199e+00 6.240240000000000009e+01 1.765130000000000109e+03
3.099999999999999978e-02 6.894724999999999326e-01 1.366060000000000052e+00 5.877720000000000056e+01 1.764259999999999991e+03
3.200000000000000067e-02 6.886034999999999240e-01 5.422849999999996840e-01 5.493339999999999890e+01 1.763335000000000036e+03
3.300000000000000155e-02 6.877705000000000624e-01 -3.243499999999999162e-01 5.109550000000000125e+01 1.762400000000000091e+03
3.400000000000000244e-02 6.870209999999999928e-01 -1.126660000000000217e+00 4.749314999999999998e+01 1.761500000000000000e+03
3.500000000000000333e-02 6.863879999999999981e-01 -1.783730000000000260e+00 4.432500000000000284e+01 1.760690000000000055e+03
3.600000000000000422e-02 6.858910000000000284e-01 -2.245914999999999662e+00 4.173680000000000234e+01 1.760000000000000000e+03
3.700000000000000511e-02 6.855379999999999807e-01 -2.491735000000000255e+00 3.981425000000000125e+01 1.759460000000000036e+03
3.799999999999999906e-02 6.853245000000000031e-01 -2.519451500000000177e+00 3.858875000000000455e+01 1.759075000000000045e+03
3.899999999999999994e-02 6.852439999999999642e-01 -2.337054999999999882e+00 3.805100000000000193e+01 1.758855000000000018e+03
4.000000000000000083e-02 6.852884999999999671e-01 -1.953510000000000080e+00 3.816814999999999714e+01 1.758799999999999955e+03
4.100000000000000172e-02 6.854510000000000325e-01 -1.373623000000000038e+00 3.889844999999999686e+01 1.758894999999999982e+03
4.200000000000000261e-02 6.857254999999999878e-01 -5.973250000000001059e-01 4.020080000000000098e+01 1.759139999999999873e+03
4.300000000000000350e-02 6.861074999999999813e-01 3.772300000000003983e-01 4.203690000000000282e+01 1.759514999999999873e+03
4.400000000000000439e-02 6.865909999999999513e-01 1.548575000000000035e+00 4.436830000000000496e+01 1.760025000000000091e+03
4.499999999999999833e-02 6.871670000000000833e-01 2.907094999999999985e+00 4.715054999999999552e+01 1.760650000000000091e+03
4.599999999999999922e-02 6.878225000000000033e-01 4.432095000000000340e+00 5.032815000000000083e+01 1.761380000000000109e+03
4.700000000000000011e-02 6.885419999999999874e-01 6.091445000000000221e+00 5.383174999999999955e+01 1.762200000000000045e+03
4.800000000000000100e-02 6.893055000000000154e-01 7.844090499999999189e+00 5.757944999999999425e+01 1.763085000000000036e+03
4.900000000000000189e-02 6.900930000000000675e-01 9.643740000000001089e+00 6.148125000000000284e+01 1.764025000000000091e+03
5.000000000000000278e-02 6.908855000000000413e-01 1.144378999999999991e+01 6.544565000000000055e+01 1.764994999999999891e+03
5.100000000000000366e-02 6.916649999999999743e-01 1.320176499999999997e+01 6.938710000000000377e+01 1.765969999999999800e+03
5.200000000000000455e-02 6.924189999999998957e-01 1.488255499999999998e+01 7.323279999999999745e+01 1.766940000000000055e+03
5.300000000000000544e-02 6.931395000000000195e-01 1.646045000000000158e+01 7.692754999999999654e+01 1.767880000000000109e+03
5.399999999999999939e-02 6.938214999999999799e-01 1.791949999999999932e+01 8.043610000000001037e+01 1.768789999999999964e+03
5.500000000000000028e-02 6.944645000000000401e-01 1.925314999999999799e+01 8.374335000000000662e+01 1.769654999999999973e+03
5.600000000000000117e-02 6.950709999999999944e-01 2.046239999999999881e+01 8.685204999999999131e+01 1.770480000000000018e+03
5.700000000000000205e-02 6.956470000000000153e-01 2.155414999999999992e+01 8.977989999999999782e+01 1.771265000000000100e+03
5.800000000000000294e-02 6.961990000000000123e-01 2.253954999999999842e+01 9.255500000000000682e+01 1.772009999999999991e+03
5.900000000000000383e-02 6.967335000000000056e-01 2.343185000000000073e+01 9.521215000000000828e+01 1.772724999999999909e+03
6.000000000000000472e-02 6.972579999999999334e-01 2.424504999999999910e+01 9.778745000000000687e+01 1.773420000000000073e+03
6.099999999999999867e-02 6.977790000000000381e-01 2.499269999999999925e+01 1.003156999999999925e+02 1.774105000000000018e+03
6.199999999999999956e-02 6.983015000000000194e-01 2.568609999999999971e+01 1.028258000000000010e+02 1.774775000000000091e+03
6.300000000000000044e-02 6.988270000000000870e-01 2.633389999999999986e+01 1.053389999999999986e+02 1.775445000000000164e+03
6.400000000000000133e-02 6.993575000000000763e-01 2.694084999999999752e+01 1.078650000000000091e+02 1.776119999999999891e+03
6.500000000000000222e-02 6.998919999999999586e-01 2.750775000000000148e+01 1.104044999999999987e+02 1.776789999999999964e+03
6.600000000000000311e-02 7.004259999999999931e-01 2.803154999999999930e+01 1.129435000000000002e+02 1.777460000000000036e+03
6.700000000000000400e-02 7.009535000000000071e-01 2.850585000000000235e+01 1.154619999999999891e+02 1.778130000000000109e+03
6.800000000000000488e-02 7.014685000000000503e-01 2.892199999999999704e+01 1.179300000000000068e+02 1.778784999999999854e+03
6.900000000000000577e-02 7.019634999999999625e-01 2.926964999999999861e+01 1.203129999999999882e+02 1.779420000000000073e+03
7.000000000000000666e-02 7.024310000000000276e-01 2.953860000000000241e+01 1.225745000000000005e+02 1.780035000000000082e+03
7.100000000000000755e-02 7.028640000000000443e-01 2.971910000000000096e+01 1.246790000000000020e+02 1.780605000000000018e+03
7.200000000000000844e-02 7.032570000000000210e-01 2.980310000000000059e+01 1.265949999999999989e+02 1.781135000000000218e+03
7.300000000000000933e-02 7.036044999999999661e-01 2.978459999999999752e+01 1.282950000000000159e+02 1.781609999999999900e+03
7.399999999999999634e-02 7.039035000000000153e-01 2.966000000000000014e+01 1.297590000000000146e+02 1.782029999999999973e+03
7.499999999999999722e-02 7.041515000000000413e-01 2.942844999999999800e+01 1.309739999999999895e+02 1.782390000000000100e+03
7.599999999999999811e-02 7.043479999999999741e-01 2.909185000000000088e+01 1.319345000000000141e+02 1.782680000000000064e+03
7.699999999999999900e-02 7.044945000000000235e-01 2.865480000000000160e+01 1.326430000000000007e+02 1.782910000000000082e+03
7.799999999999999989e-02 7.045930000000000248e-01 2.812450000000000117e+01 1.331089999999999804e+02 1.783079999999999927e+03
7.900000000000000078e-02 7.046479999999999411e-01 2.751064999999999827e+01 1.333489999999999895e+02 1.783190000000000055e+03
8.000000000000000167e-02 7.046620000000000106e-01 2.682515000000000072e+01 1.333849999999999909e+02 1.783244999999999891e+03
8.100000000000000255e-02 7.046419999999999906e-01 2.608155000000000001e+01 1.332425000000000068e+02 1.783250000000000000e+03
8.200000000000000344e-02 7.045939999999999426e-01 2.529480000000000217e+01 1.329510000000000218e+02 1.783210000000000036e+03
8.300000000000000433e-02 7.045244999999999980e-01 2.448039999999999949e+01 1.325439999999999827e+02 1.783139999999999873e+03
8.400000000000000522e-02 7.044399999999999551e-01 2.365390000000000015e+01 1.320534999999999854e+02 1.783039999999999964e+03
8.500000000000000611e-02 7.043459999999999166e-01 2.283024999999999949e+01 1.315109999999999957e+02 1.782925000000000182e+03
8.600000000000000699e-02 7.042490000000000139e-01 2.202264999999999873e+01 1.309465000000000146e+02 1.782795000000000073e+03
8.700000000000000788e-02 7.041524999999999590e-01 2.124249999999999972e+01 1.303845000000000027e+02 1.782659999999999854e+03
8.800000000000000877e-02 7.040619999999999656e-01 2.049849999999999994e+01 1.298464999999999918e+02 1.782529999999999973e+03
8.899999999999999578e-02 7.039779999999999927e-01 1.979609999999999914e+01 1.293474999999999966e+02 1.782400000000000091e+03
8.999999999999999667e-02 7.039029999999999454e-01 1.913819999999999766e+01 1.288960000000000150e+02 1.782279999999999973e+03
9.099999999999999756e-02 7.038359999999999062e-01 1.852414999999999878e+01 1.284945000000000164e+02 1.782170000000000073e+03
9.199999999999999845e-02 7.037759999999999572e-01 1.795089999999999719e+01 1.281394999999999982e+02 1.782069999999999936e+03
9.299999999999999933e-02 7.037214999999999998e-01 1.741290000000000049e+01 1.278220000000000027e+02 1.781980000000000018e+03
9.400000000000000022e-02 7.036689999999999889e-01 1.690259999999999962e+01 1.275300000000000011e+02 1.781894999999999982e+03
9.500000000000000111e-02 7.036149999999999904e-01 1.641145000000000209e+01 1.272480000000000047e+02 1.781815000000000055e+03
9.600000000000000200e-02 7.035569999999999879e-01 1.592989999999999995e+01 1.269590000000000032e+02 1.781730000000000018e+03
9.700000000000000289e-02 7.034909999999999775e-01 1.544859999999999900e+01 1.266444999999999936e+02 1.781644999999999982e+03
9.800000000000000377e-02 7.034139999999999837e-01 1.495860000000000056e+01 1.262884999999999991e+02 1.781550000000000182e+03
9.900000000000000466e-02 7.033240000000000602e-01 1.445180000000000042e+01 1.258765000000000072e+02 1.781445000000000164e+03
1.000000000000000056e-01 7.032179999999998987e-01 1.392194999999999894e+01 1.253965000000000032e+02 1.781319999999999936e+03
1.010000000000000064e-01 7.030955000000000954e-01 1.336449499999999979e+01 1.248414999999999964e+02 1.781184999999999945e+03
1.020000000000000073e-01 7.029570000000000540e-01 1.277723500000000101e+01 1.242079999999999984e+02 1.781030000000000200e+03
1.030000000000000082e-01 7.028019999999999268e-01 1.216030500000000103e+01 1.234975000000000023e+02 1.780855000000000018e+03
1.040000000000000091e-01 7.026339999999999808e-01 1.151626500000000064e+01 1.227175000000000011e+02 1.780664999999999964e+03
1.050000000000000100e-01 7.024550000000000516e-01 1.085014999999999930e+01 1.218795000000000073e+02 1.780460000000000036e+03
1.059999999999999970e-01 7.022690000000000321e-01 1.016900500000000029e+01 1.209989999999999952e+02 1.780240000000000009e+03
1.069999999999999979e-01 7.020804999999999962e-01 9.481529999999999347e+00 1.200949999999999989e+02 1.780009999999999991e+03
1.079999999999999988e-01 7.018934999999999480e-01 8.797829999999999373e+00 1.191905000000000001e+02 1.779784999999999854e+03
1.089999999999999997e-01 7.017135000000001011e-01 8.128705000000000069e+00 1.183075000000000045e+02 1.779559999999999945e+03
1.100000000000000006e-01 7.015450000000000852e-01 7.485104999999999897e+00 1.174689999999999941e+02 1.779340000000000146e+03
1.110000000000000014e-01 7.013920000000000154e-01 6.877534999999999954e+00 1.166989999999999981e+02 1.779144999999999982e+03
1.120000000000000023e-01 7.012590000000000767e-01 6.315555000000000696e+00 1.160165000000000077e+02 1.778960000000000036e+03
1.130000000000000032e-01 7.011490000000000222e-01 5.807220000000000049e+00 1.154385000000000048e+02 1.778800000000000182e+03
1.140000000000000041e-01 7.010634999999999506e-01 5.358710000000000306e+00 1.149770000000000039e+02 1.778664999999999964e+03
1.150000000000000050e-01 7.010039999999999605e-01 4.974079999999999835e+00 1.146405000000000030e+02 1.778565000000000055e+03
1.160000000000000059e-01 7.009710000000000107e-01 4.655065000000000452e+00 1.144320000000000022e+02 1.778490000000000009e+03
1.170000000000000068e-01 7.009624999999999329e-01 4.401144999999999641e+00 1.143489999999999895e+02 1.778450000000000045e+03
1.180000000000000077e-01 7.009784999999999489e-01 4.209615000000000329e+00 1.143850000000000051e+02 1.778434999999999945e+03
1.190000000000000085e-01 7.010145000000000959e-01 4.075890000000000235e+00 1.145289999999999964e+02 1.778454999999999927e+03
1.200000000000000094e-01 7.010680000000000245e-01 3.993800000000000239e+00 1.147655000000000030e+02 1.778494999999999891e+03
1.209999999999999964e-01 7.011359999999999815e-01 3.956034999999999968e+00 1.150800000000000125e+02 1.778554999999999836e+03
1.219999999999999973e-01 7.012140000000000040e-01 3.954500000000000348e+00 1.154519999999999982e+02 1.778634999999999991e+03
1.229999999999999982e-01 7.012985000000000468e-01 3.980809999999999960e+00 1.158645000000000067e+02 1.778724999999999909e+03
1.239999999999999991e-01 7.013864999999999128e-01 4.026600000000000179e+00 1.162990000000000066e+02 1.778824999999999818e+03
1.250000000000000000e-01 7.014735000000000831e-01 4.083895000000000053e+00 1.167385000000000019e+02 1.778925000000000182e+03
1.260000000000000009e-01 7.015580000000000149e-01 4.145385000000000097e+00 1.171684999999999945e+02 1.779029999999999973e+03
1.270000000000000018e-01 7.016370000000000662e-01 4.204604999999999926e+00 1.175749999999999886e+02 1.779130000000000109e+03
1.280000000000000027e-01 7.017090000000000272e-01 4.256124999999999936e+00 1.179484999999999957e+02 1.779224999999999909e+03
1.290000000000000036e-01 7.017729999999999801e-01 4.295590000000000686e+00 1.182820000000000107e+02 1.779309999999999945e+03
1.300000000000000044e-01 7.018269999999999786e-01 4.319779999999999731e+00 1.185699999999999932e+02 1.779384999999999991e+03
1.310000000000000053e-01 7.018714999999999815e-01 4.326610000000000511e+00 1.188100000000000023e+02 1.779454999999999927e+03
1.320000000000000062e-01 7.019070000000000586e-01 4.315080000000000027e+00 1.190024999999999977e+02 1.779509999999999991e+03
1.330000000000000071e-01 7.019340000000000579e-01 4.285199999999999676e+00 1.191485000000000127e+02 1.779554999999999836e+03
1.340000000000000080e-01 7.019530000000000491e-01 4.237849999999999895e+00 1.192524999999999977e+02 1.779585000000000036e+03
1.350000000000000089e-01 7.019649999999999501e-01 4.174694999999999823e+00 1.193189999999999884e+02 1.779615000000000009e+03
1.360000000000000098e-01 7.019710000000000116e-01 4.097995000000000054e+00 1.193539999999999992e+02 1.779625000000000000e+03
1.370000000000000107e-01 7.019735000000000280e-01 4.010419999999999874e+00 1.193640000000000043e+02 1.779640000000000100e+03
1.380000000000000115e-01 7.019724999999999993e-01 3.914870000000000072e+00 1.193545000000000016e+02 1.779644999999999982e+03
1.390000000000000124e-01 7.019699999999999829e-01 3.814289999999999736e+00 1.193319999999999936e+02 1.779639999999999873e+03
1.400000000000000133e-01 7.019664999999999377e-01 3.711475000000000080e+00 1.193029999999999973e+02 1.779639999999999873e+03
1.410000000000000142e-01 7.019630000000000036e-01 3.608910000000000284e+00 1.192710000000000008e+02 1.779634999999999991e+03
1.420000000000000151e-01 7.019595000000000695e-01 3.508630000000000138e+00 1.192400000000000091e+02 1.779630000000000109e+03
1.430000000000000160e-01 7.019575000000000120e-01 3.412170000000000147e+00 1.192109999999999985e+02 1.779619999999999891e+03
1.440000000000000169e-01 7.019560000000000244e-01 3.320460000000000189e+00 1.191864999999999952e+02 1.779614999999999782e+03
1.450000000000000178e-01 7.019549999999999956e-01 3.233874999999999833e+00 1.191640000000000015e+02 1.779615000000000009e+03
1.459999999999999909e-01 7.019539999999999669e-01 3.152280000000000193e+00 1.191424999999999983e+02 1.779610000000000127e+03
1.469999999999999918e-01 7.019520000000000204e-01 3.075095000000000134e+00 1.191200000000000045e+02 1.779605000000000018e+03
1.479999999999999927e-01 7.019489999999999341e-01 3.001430000000000042e+00 1.190925000000000011e+02 1.779599999999999909e+03
1.489999999999999936e-01 7.019435000000000535e-01 2.930209999999999759e+00 1.190550000000000068e+02 1.779590000000000146e+03
1.499999999999999944e-01 7.019355000000000455e-01 2.860320000000000196e+00 1.190060000000000002e+02 1.779575000000000045e+03
1.509999999999999953e-01 7.019234999999999225e-01 2.790719999999999867e+00 1.189410000000000025e+02 1.779559999999999945e+03
1.519999999999999962e-01 7.019075000000000175e-01 2.720555000000000057e+00 1.188569999999999993e+02 1.779539999999999964e+03
1.529999999999999971e-01 7.018870000000000386e-01 2.649265000000000203e+00 1.187530000000000001e+02 1.779514999999999873e+03
1.539999999999999980e-01 7.018619999999999859e-01 2.576600000000000001e+00 1.186280000000000001e+02 1.779485000000000127e+03
1.549999999999999989e-01 7.018325000000000813e-01 2.502689999999999859e+00 1.184819999999999993e+02 1.779450000000000045e+03
1.559999999999999998e-01 7.017990000000000617e-01 2.428040000000000198e+00 1.183164999999999907e+02 1.779409999999999854e+03
1.570000000000000007e-01 7.017615000000000380e-01 2.353479999999999794e+00 1.181340000000000003e+02 1.779365000000000009e+03
1.580000000000000016e-01 7.017225000000000268e-01 2.280185000000000350e+00 1.179369999999999976e+02 1.779320000000000164e+03
1.590000000000000024e-01 7.016809999999999992e-01 2.209575000000000067e+00 1.177309999999999945e+02 1.779264999999999873e+03
