# t [s], A [cm^2], U [cm/s], P [cPa], c [cm/s]
1.000000000000000021e-03 5.830465000000000231e-01 4.410350000000000381e-03 1.017745000000000033e+02 1.590469999999999800e+03
2.000000000000000042e-03 5.830379999999999452e-01 -2.012949999999999896e-04 1.017510000000000048e+02 1.590460000000000036e+03
3.000000000000000062e-03 5.830865000000000631e-01 8.963789999999999258e-02 1.018455000000000013e+02 1.590485000000000127e+03
4.000000000000000083e-03 5.831315000000000248e-01 1.806706999999999896e-01 1.019609999999999985e+02 1.590514999999999873e+03
5.000000000000000104e-03 5.831134999999999513e-01 1.618941999999999881e-01 1.019215000000000089e+02 1.590509999999999991e+03
6.000000000000000125e-03 5.830589999999999939e-01 7.188250000000001583e-02 1.017300000000000040e+02 1.590470000000000027e+03
7.000000000000000146e-03 5.830089999999999995e-01 -1.717499999999999583e-02 1.014735000000000014e+02 1.590414999999999964e+03
8.000000000000000167e-03 5.829345000000000221e-01 -1.615359999999999574e-01 1.011004999999999967e+02 1.590335000000000036e+03
9.000000000000001055e-03 5.828075000000000339e-01 -4.188549999999999773e-01 1.005237500000000068e+02 1.590204999999999927e+03
1.000000000000000194e-02 5.826225000000000431e-01 -7.965099999999999403e-01 9.969540000000000646e+01 1.590019999999999982e+03
1.099999999999999936e-02 5.823659999999999393e-01 -1.309410000000000185e+00 9.856110000000001037e+01 1.589764999999999873e+03
1.200000000000000025e-02 5.820265000000000022e-01 -1.963194999999999801e+00 9.707179999999999609e+01 1.589425000000000182e+03
1.300000000000000114e-02 5.816240000000000299e-01 -2.699415000000000120e+00 9.526044999999999163e+01 1.588994999999999891e+03
1.400000000000000203e-02 5.812085000000000168e-01 -3.393709999999999560e+00 9.326574999999999704e+01 1.588509999999999991e+03
1.499999999999999944e-02 5.808339999999999614e-01 -3.911023499999999764e+00 9.128045000000000186e+01 1.588005000000000109e+03
1.600000000000000033e-02 5.805299999999999905e-01 -4.163540499999999867e+00 8.946604999999999563e+01 1.587525000000000091e+03
1.700000000000000122e-02 5.802970000000000628e-01 -4.134739500000000234e+00 8.790155000000000030e+01 1.587085000000000036e+03
1.800000000000000211e-02 5.801089999999999858e-01 -3.869512999999999980e+00 8.657370000000000232e+01 1.586684999999999945e+03
1.900000000000000300e-02 5.799324999999999619e-01 -3.446161999999999725e+00 8.540155000000000030e+01 1.586315000000000055e+03
2.000000000000000042e-02 5.797339999999999716e-01 -2.944896500000000028e+00 8.427680000000000859e+01 1.585950000000000045e+03
2.100000000000000130e-02 5.794974999999999987e-01 -2.422646499999999925e+00 8.310495000000000232e+01 1.585585000000000036e+03
2.200000000000000219e-02 5.792194999999999983e-01 -1.900729999999999809e+00 8.183465000000001055e+01 1.585195000000000164e+03
2.299999999999999961e-02 5.789130000000000109e-01 -1.368345000000000145e+00 8.046580000000000155e+01 1.584789999999999964e+03
2.400000000000000050e-02 5.785970000000000280e-01 -7.987200000000000966e-01 7.903640000000000043e+01 1.584369999999999891e+03
2.500000000000000139e-02 5.782865000000000366e-01 -1.699099999999997834e-01 7.759645000000000437e+01 1.583940000000000055e+03
2.600000000000000228e-02 5.779864999999999586e-01 5.187450000000000117e-01 7.618039999999999168e+01 1.583514999999999873e+03
2.700000000000000316e-02 5.776909999999999545e-01 1.239389999999999992e+00 7.478884999999999650e+01 1.583090000000000146e+03
2.800000000000000058e-02 5.773840000000000083e-01 1.938604999999999912e+00 7.338335000000000719e+01 1.582670000000000073e+03
2.900000000000000147e-02 5.770414999999999850e-01 2.548059999999999992e+00 7.189419999999999789e+01 1.582230000000000018e+03
3.000000000000000236e-02 5.766434999999999755e-01 2.999464999999999826e+00 7.023810000000000286e+01 1.581755000000000109e+03
3.099999999999999978e-02 5.761745000000000339e-01 3.240099999999999980e+00 6.834059999999999491e+01 1.581224999999999909e+03
3.200000000000000067e-02 5.756310000000000038e-01 3.244930000000000092e+00 6.615794999999999959e+01 1.580634999999999991e+03
3.300000000000000155e-02 5.750224999999999920e-01 3.022575000000000234e+00 6.369254999999999711e+01 1.579980000000000018e+03
3.400000000000000244e-02 5.743709999999999649e-01 2.613244999999999596e+00 6.099755000000000393e+01 1.579269999999999982e+03
3.500000000000000333e-02 5.737049999999999095e-01 2.080030000000000268e+00 5.817009999999999792e+01 1.578529999999999973e+03
3.600000000000000422e-02 5.730574999999999974e-01 1.496575000000000433e+00 5.533639999999999759e+01 1.577775000000000091e+03
3.700000000000000511e-02 5.724584999999999813e-01 9.350499999999999368e-01 5.263275000000000148e+01 1.577049999999999955e+03
3.799999999999999906e-02 5.719339999999999424e-01 4.568650000000005207e-01 5.018795000000000073e+01 1.576375000000000000e+03
3.899999999999999994e-02 5.715014999999999956e-01 1.077950000000003072e-01 4.811010000000000275e+01 1.575775000000000091e+03
4.000000000000000083e-02 5.711724999999999719e-01 -8.292000000000010473e-02 4.647889999999999588e+01 1.575289999999999964e+03
4.100000000000000172e-02 5.709515000000000562e-01 -1.002149999999999430e-01 4.534425000000000239e+01 1.574914999999999964e+03
4.200000000000000261e-02 5.708395000000000552e-01 6.084000000000000519e-02 4.472870000000000346e+01 1.574675000000000182e+03
4.300000000000000350e-02 5.708334999999999937e-01 3.995646999999999949e-01 4.463384999999999536e+01 1.574569999999999936e+03
4.400000000000000439e-02 5.709305000000000074e-01 9.134714999999999918e-01 4.504679999999999751e+01 1.574594999999999800e+03
4.499999999999999833e-02 5.711264999999999814e-01 1.600503000000000231e+00 4.594679999999999609e+01 1.574755000000000109e+03
4.599999999999999922e-02 5.714175000000000226e-01 2.459464999999999790e+00 4.730904999999999916e+01 1.575039999999999964e+03
4.700000000000000011e-02 5.717984999999999873e-01 3.488929999999999865e+00 4.910694999999999766e+01 1.575444999999999936e+03
4.800000000000000100e-02 5.722654999999999825e-01 4.685165000000000468e+00 5.131165000000000020e+01 1.575965000000000146e+03
4.900000000000000189e-02 5.728115000000000290e-01 6.040079999999999671e+00 5.389039999999999964e+01 1.576590000000000146e+03
5.000000000000000278e-02 5.734274999999999789e-01 7.539589499999999944e+00 5.680460000000000775e+01 1.577315000000000055e+03
5.100000000000000366e-02 5.741039999999999477e-01 9.163153499999999951e+00 6.000919999999999987e+01 1.578119999999999891e+03
5.200000000000000455e-02 5.748290000000000344e-01 1.088439999999999941e+01 6.345199999999999818e+01 1.579000000000000000e+03
5.300000000000000544e-02 5.755875000000000297e-01 1.267262500000000003e+01 6.707545000000000357e+01 1.579940000000000055e+03
5.399999999999999939e-02 5.763679999999999914e-01 1.449500499999999903e+01 7.081919999999999504e+01 1.580914999999999964e+03
5.500000000000000028e-02 5.771560000000000024e-01 1.631889500000000126e+01 7.462290000000000134e+01 1.581929999999999836e+03
5.600000000000000117e-02 5.779414999999999969e-01 1.811395999999999873e+01 7.843004999999999427e+01 1.582954999999999927e+03
5.700000000000000205e-02 5.787139999999999507e-01 1.985399999999999920e+01 8.219100000000000250e+01 1.583980000000000018e+03
5.800000000000000294e-02 5.794664999999999955e-01 2.151800000000000068e+01 8.586504999999999654e+01 1.584990000000000009e+03
5.900000000000000383e-02 5.801939999999999875e-01 2.309065000000000012e+01 8.942180000000000462e+01 1.585990000000000009e+03
6.000000000000000472e-02 5.808944999999999803e-01 2.456224999999999881e+01 9.284295000000000186e+01 1.586954999999999927e+03
6.099999999999999867e-02 5.815664999999999862e-01 2.592815000000000225e+01 9.611924999999999386e+01 1.587884999999999991e+03
6.199999999999999956e-02 5.822125000000000217e-01 2.718815000000000026e+01 9.925254999999999939e+01 1.588789999999999964e+03
6.300000000000000044e-02 5.828345000000000331e-01 2.834529999999999816e+01 1.022507999999999981e+02 1.589659999999999854e+03
6.400000000000000133e-02 5.834354999999999958e-01 2.940540000000000020e+01 1.051282999999999959e+02 1.590500000000000000e+03
6.500000000000000222e-02 5.840199999999999836e-01 3.037565000000000026e+01 1.079035000000000082e+02 1.591315000000000055e+03
6.600000000000000311e-02 5.845909999999999718e-01 3.126404999999999745e+01 1.105944999999999965e+02 1.592105000000000018e+03
6.700000000000000400e-02 5.851530000000000342e-01 3.207864999999999611e+01 1.132214999999999918e+02 1.592875000000000000e+03
6.800000000000000488e-02 5.857084999999999653e-01 3.282674999999999699e+01 1.158004999999999995e+02 1.593634999999999991e+03
6.900000000000000577e-02 5.862589999999999746e-01 3.351435000000000031e+01 1.183445000000000107e+02 1.594380000000000109e+03
7.000000000000000666e-02 5.868060000000000498e-01 3.414565000000000339e+01 1.208615000000000066e+02 1.595119999999999891e+03
7.100000000000000755e-02 5.873490000000000100e-01 3.472275000000000489e+01 1.233534999999999968e+02 1.595845000000000027e+03
7.200000000000000844e-02 5.878864999999999785e-01 3.524590000000000600e+01 1.258175000000000097e+02 1.596569999999999936e+03
7.300000000000000933e-02 5.884165000000000090e-01 3.571300000000000097e+01 1.282445000000000164e+02 1.597275000000000091e+03
7.399999999999999634e-02 5.889345000000000274e-01 3.612049999999999983e+01 1.306200000000000045e+02 1.597980000000000018e+03
7.499999999999999722e-02 5.894369999999999887e-01 3.646340000000000003e+01 1.329265000000000043e+02 1.598654999999999973e+03
7.599999999999999811e-02 5.899189999999999712e-01 3.673610000000000042e+01 1.351435000000000173e+02 1.599315000000000055e+03
7.699999999999999900e-02 5.903764999999999707e-01 3.693259999999999366e+01 1.372495000000000118e+02 1.599940000000000055e+03
7.799999999999999989e-02 5.908044999999999547e-01 3.704755000000000109e+01 1.392230000000000132e+02 1.600535000000000082e+03
7.900000000000000078e-02 5.911994999999999889e-01 3.707609999999999673e+01 1.410434999999999945e+02 1.601090000000000146e+03
8.000000000000000167e-02 5.915580000000000283e-01 3.701470000000000482e+01 1.426949999999999932e+02 1.601594999999999800e+03
8.100000000000000255e-02 5.918764999999999166e-01 3.686110000000000042e+01 1.441614999999999895e+02 1.602054999999999836e+03
8.200000000000000344e-02 5.921545000000000281e-01 3.661469999999999914e+01 1.454345000000000141e+02 1.602460000000000036e+03
8.300000000000000433e-02 5.923899999999999721e-01 3.627665000000000362e+01 1.465079999999999814e+02 1.602815000000000055e+03
8.400000000000000522e-02 5.925839999999999996e-01 3.584985000000000355e+01 1.473799999999999955e+02 1.603115000000000009e+03
8.500000000000000611e-02 5.927369999999999584e-01 3.533879999999999910e+01 1.480550000000000068e+02 1.603360000000000127e+03
8.600000000000000699e-02 5.928499999999999881e-01 3.474965000000000259e+01 1.485395000000000039e+02 1.603545000000000073e+03
8.700000000000000788e-02 5.929264999999999119e-01 3.409029999999999916e+01 1.488444999999999823e+02 1.603684999999999945e+03
8.800000000000000877e-02 5.929690000000000794e-01 3.336950000000000216e+01 1.489855000000000018e+02 1.603775000000000091e+03
8.899999999999999578e-02 5.929815000000000502e-01 3.259765000000000157e+01 1.489790000000000134e+02 1.603820000000000164e+03
8.999999999999999667e-02 5.929680000000000506e-01 3.178549999999999898e+01 1.488455000000000155e+02 1.603824999999999818e+03
9.099999999999999756e-02 5.929335000000000022e-01 3.094469999999999743e+01 1.486064999999999827e+02 1.603795000000000073e+03
9.199999999999999845e-02 5.928815000000000612e-01 3.008664999999999878e+01 1.482830000000000155e+02 1.603740000000000009e+03
9.299999999999999933e-02 5.928174999999999972e-01 2.922279999999999944e+01 1.478985000000000127e+02 1.603654999999999973e+03
9.400000000000000022e-02 5.927445000000000075e-01 2.836364999999999981e+01 1.474730000000000132e+02 1.603565000000000055e+03
9.500000000000000111e-02 5.926684999999999315e-01 2.751885000000000048e+01 1.470264999999999986e+02 1.603454999999999927e+03
9.600000000000000200e-02 5.925905000000000200e-01 2.669640000000000057e+01 1.465769999999999982e+02 1.603340000000000146e+03
9.700000000000000289e-02 5.925145000000000550e-01 2.590275000000000105e+01 1.461380000000000052e+02 1.603230000000000018e+03
9.800000000000000377e-02 5.924429999999999419e-01 2.514240000000000208e+01 1.457214999999999918e+02 1.603115000000000009e+03
9.900000000000000466e-02 5.923760000000000137e-01 2.441760000000000019e+01 1.453340000000000032e+02 1.603005000000000109e+03
1.000000000000000056e-01 5.923144999999999660e-01 2.372885000000000133e+01 1.449800000000000182e+02 1.602904999999999973e+03
1.010000000000000064e-01 5.922579999999999512e-01 2.307454999999999856e+01 1.446585000000000036e+02 1.602809999999999945e+03
1.020000000000000073e-01 5.922054999999999403e-01 2.245145000000000124e+01 1.443665000000000020e+02 1.602715000000000146e+03
1.030000000000000082e-01 5.921560000000000157e-01 2.185474999999999923e+01 1.440980000000000132e+02 1.602634999999999991e+03
1.040000000000000091e-01 5.921070000000000499e-01 2.127870000000000061e+01 1.438445000000000107e+02 1.602554999999999836e+03
1.050000000000000100e-01 5.920570000000000555e-01 2.071669999999999945e+01 1.435955000000000155e+02 1.602470000000000027e+03
1.059999999999999970e-01 5.920030000000000570e-01 2.016179999999999950e+01 1.433394999999999868e+02 1.602394999999999982e+03
1.069999999999999979e-01 5.919435000000000668e-01 1.960705000000000098e+01 1.430660000000000025e+02 1.602315000000000055e+03
1.079999999999999988e-01 5.918759999999999577e-01 1.904605000000000103e+01 1.427644999999999982e+02 1.602224999999999909e+03
1.089999999999999997e-01 5.917989999999999640e-01 1.847274999999999778e+01 1.424244999999999948e+02 1.602130000000000109e+03
1.100000000000000006e-01 5.917109999999999870e-01 1.788244999999999862e+01 1.420384999999999991e+02 1.602019999999999982e+03
1.110000000000000014e-01 5.916114999999999569e-01 1.727134999999999820e+01 1.416020000000000039e+02 1.601900000000000091e+03
1.120000000000000023e-01 5.915000000000000258e-01 1.663714999999999833e+01 1.411105000000000018e+02 1.601764999999999873e+03
1.130000000000000032e-01 5.913770000000000415e-01 1.597899999999999920e+01 1.405649999999999977e+02 1.601619999999999891e+03
1.140000000000000041e-01 5.912425000000000042e-01 1.529769999999999897e+01 1.399664999999999964e+02 1.601460000000000036e+03
1.150000000000000050e-01 5.910984999999999712e-01 1.459529999999999994e+01 1.393209999999999980e+02 1.601284999999999854e+03
1.160000000000000059e-01 5.909474999999999589e-01 1.387547999999999959e+01 1.386354999999999791e+02 1.601099999999999909e+03
1.170000000000000068e-01 5.907910000000000661e-01 1.314306500000000000e+01 1.379209999999999923e+02 1.600909999999999854e+03
1.180000000000000077e-01 5.906320000000000459e-01 1.240397000000000105e+01 1.371885000000000048e+02 1.600710000000000036e+03
1.190000000000000085e-01 5.904730000000000256e-01 1.166496499999999870e+01 1.364505000000000052e+02 1.600509999999999991e+03
1.200000000000000094e-01 5.903180000000000094e-01 1.093333499999999958e+01 1.357214999999999918e+02 1.600309999999999945e+03
1.209999999999999964e-01 5.901684999999999848e-01 1.021659499999999987e+01 1.350155000000000030e+02 1.600110000000000127e+03
1.219999999999999973e-01 5.900285000000000668e-01 9.522104999999999819e+00 1.343470000000000084e+02 1.599920000000000073e+03
1.229999999999999982e-01 5.899004999999999388e-01 8.856984999999999886e+00 1.337270000000000039e+02 1.599744999999999891e+03
1.239999999999999991e-01 5.897864999999999913e-01 8.227624999999999744e+00 1.331680000000000064e+02 1.599579999999999927e+03
1.250000000000000000e-01 5.896879999999999900e-01 7.639540000000000219e+00 1.326804999999999950e+02 1.599440000000000055e+03
1.260000000000000009e-01 5.896065000000000333e-01 7.097125000000000128e+00 1.322700000000000102e+02 1.599309999999999945e+03
1.270000000000000018e-01 5.895434999999999981e-01 6.603505000000000180e+00 1.319415000000000191e+02 1.599204999999999927e+03
1.280000000000000027e-01 5.894979999999999665e-01 6.160494999999999166e+00 1.316980000000000075e+02 1.599119999999999891e+03
1.290000000000000036e-01 5.894700000000000495e-01 5.768560000000000798e+00 1.315384999999999991e+02 1.599055000000000064e+03
1.300000000000000044e-01 5.894589999999999552e-01 5.426864999999999384e+00 1.314590000000000032e+02 1.599014999999999873e+03
1.310000000000000053e-01 5.894635000000000291e-01 5.133350000000000080e+00 1.314549999999999841e+02 1.598994999999999891e+03
1.320000000000000062e-01 5.894814999999999916e-01 4.884914999999999452e+00 1.315190000000000055e+02 1.598994999999999891e+03
1.330000000000000071e-01 5.895110000000000072e-01 4.677599999999999980e+00 1.316415000000000077e+02 1.599014999999999873e+03
1.340000000000000080e-01 5.895500000000000185e-01 4.506775000000000198e+00 1.318125000000000000e+02 1.599045000000000073e+03
1.350000000000000089e-01 5.895960000000000090e-01 4.367380000000000706e+00 1.320210000000000150e+02 1.599089999999999918e+03
1.360000000000000098e-01 5.896474999999999911e-01 4.254125000000000156e+00 1.322564999999999884e+02 1.599139999999999873e+03
1.370000000000000107e-01 5.897010000000000307e-01 4.161704999999999544e+00 1.325074999999999932e+02 1.599194999999999936e+03
1.380000000000000115e-01 5.897544999999999593e-01 4.084939999999999571e+00 1.327649999999999864e+02 1.599259999999999991e+03
1.390000000000000124e-01 5.898075000000000401e-01 4.018979999999999997e+00 1.330190000000000055e+02 1.599325000000000045e+03
1.400000000000000133e-01 5.898575000000000346e-01 3.959375000000000089e+00 1.332615000000000123e+02 1.599384999999999991e+03
1.410000000000000142e-01 5.899030000000000662e-01 3.902155000000000040e+00 1.334850000000000136e+02 1.599445000000000164e+03
1.420000000000000151e-01 5.899434999999999540e-01 3.843919999999999781e+00 1.336850000000000023e+02 1.599500000000000000e+03
1.430000000000000160e-01 5.899784999999999613e-01 3.781855000000000189e+00 1.338569999999999993e+02 1.599549999999999955e+03
1.440000000000000169e-01 5.900064999999999893e-01 3.713714999999999655e+00 1.339975000000000023e+02 1.599585000000000036e+03
1.450000000000000178e-01 5.900279999999999969e-01 3.637844999999999995e+00 1.341059999999999945e+02 1.599619999999999891e+03
1.459999999999999909e-01 5.900429999999999842e-01 3.553149999999999586e+00 1.341814999999999998e+02 1.599650000000000091e+03
1.469999999999999918e-01 5.900509999999999922e-01 3.459039999999999893e+00 1.342235000000000014e+02 1.599659999999999854e+03
1.479999999999999927e-01 5.900524999999999798e-01 3.355420000000000069e+00 1.342344999999999970e+02 1.599670000000000073e+03
1.489999999999999936e-01 5.900480000000000169e-01 3.242605000000000182e+00 1.342150000000000034e+02 1.599670000000000073e+03
1.499999999999999944e-01 5.900384999999999103e-01 3.121294999999999931e+00 1.341694999999999993e+02 1.599664999999999964e+03
1.509999999999999953e-01 5.900244999999999518e-01 2.992490000000000094e+00 1.340985000000000014e+02 1.599654999999999973e+03
1.519999999999999962e-01 5.900054999999999605e-01 2.857435000000000169e+00 1.340060000000000002e+02 1.599634999999999991e+03
1.529999999999999971e-01 5.899834999999999940e-01 2.717544999999999877e+00 1.338944999999999936e+02 1.599605000000000018e+03
1.539999999999999980e-01 5.899584999999999413e-01 2.574329999999999785e+00 1.337669999999999959e+02 1.599575000000000045e+03
1.549999999999999989e-01 5.899309999999999832e-01 2.429349999999999898e+00 1.336270000000000095e+02 1.599539999999999964e+03
1.559999999999999998e-01 5.899014999999999675e-01 2.284104999999999830e+00 1.334769999999999754e+02 1.599505000000000109e+03
1.570000000000000007e-01 5.898704999999999643e-01 2.140004999999999935e+00 1.333190000000000168e+02 1.599464999999999918e+03
1.580000000000000016e-01 5.898384999999999323e-01 1.998324999999999907e+00 1.331550000000000011e+02 1.599420000000000073e+03
1.590000000000000024e-01 5.898054999999999826e-01 1.860144999999999937e+00 1.329855000000000018e+02 1.599375000000000000e+03
