# t [s], A [cm^2], U [cm/s], P [cPa], c [cm/s]
1.000000000000000021e-03 1.548720000000000097e-01 3.271889999999999521e-01 9.695889999999999986e+01 2.002355000000000018e+03
2.000000000000000042e-03 1.548370000000000024e-01 1.844253500000000212e+00 9.376345000000000596e+01 2.002005000000000109e+03
3.000000000000000062e-03 1.547310000000000074e-01 3.696074499999999929e+00 8.946764999999999191e+01 2.001014999999999873e+03
4.000000000000000083e-03 1.545819999999999972e-01 5.758398500000000197e+00 8.480340000000001055e+01 1.999630000000000109e+03
5.000000000000000104e-03 1.544169999999999987e-01 7.966570000000000817e+00 8.059524999999999295e+01 1.998110000000000127e+03
6.000000000000000125e-03 1.542554999999999898e-01 1.016890000000000072e+01 7.714674999999999727e+01 1.996635000000000218e+03
7.000000000000000146e-03 1.541025000000000034e-01 1.217066999999999943e+01 7.426214999999999122e+01 1.995269999999999982e+03
8.000000000000000167e-03 1.539610000000000145e-01 1.387711000000000006e+01 7.169469999999999743e+01 1.994025000000000091e+03
9.000000000000001055e-03 1.538349999999999995e-01 1.531080000000000041e+01 6.944554999999999723e+01 1.992924999999999955e+03
1.000000000000000194e-02 1.537259999999999738e-01 1.650825000000000031e+01 6.758995000000000175e+01 1.991990000000000009e+03
1.099999999999999936e-02 1.536354999999999804e-01 1.748429999999999751e+01 6.611924999999999386e+01 1.991220000000000027e+03
1.200000000000000025e-02 1.535620000000000041e-01 1.824949999999999761e+01 6.497524999999998840e+01 1.990605000000000018e+03
1.300000000000000114e-02 1.535030000000000006e-01 1.881015000000000015e+01 6.407685000000000741e+01 1.990119999999999891e+03
1.400000000000000203e-02 1.534550000000000081e-01 1.917275000000000063e+01 6.332404999999999973e+01 1.989730000000000018e+03
1.499999999999999944e-02 1.534154999999999824e-01 1.937505000000000166e+01 6.267319999999999425e+01 1.989420000000000073e+03
1.600000000000000033e-02 1.533855000000000079e-01 1.951030000000000086e+01 6.223519999999999897e+01 1.989190000000000055e+03
1.700000000000000122e-02 1.533700000000000063e-01 1.970615000000000094e+01 6.227035000000000053e+01 1.989075000000000045e+03
1.800000000000000211e-02 1.533760000000000123e-01 2.006765000000000043e+01 6.305134999999999934e+01 1.989140000000000100e+03
1.900000000000000300e-02 1.534075000000000022e-01 2.062480000000000047e+01 6.468829999999999814e+01 1.989414999999999964e+03
2.000000000000000042e-02 1.534635000000000027e-01 2.131634999999999991e+01 6.703114999999999668e+01 1.989900000000000091e+03
2.100000000000000130e-02 1.535370000000000068e-01 2.201484999999999914e+01 6.969874999999998977e+01 1.990534999999999854e+03
2.200000000000000219e-02 1.536155000000000159e-01 2.257549999999999812e+01 7.220650000000000546e+01 1.991220000000000027e+03
2.299999999999999961e-02 1.536879999999999913e-01 2.288540000000000063e+01 7.412514999999999077e+01 1.991860000000000127e+03
2.400000000000000050e-02 1.537435000000000052e-01 2.289540000000000219e+01 7.520650000000000546e+01 1.992360000000000127e+03
2.500000000000000139e-02 1.537779999999999980e-01 2.262580000000000169e+01 7.543354999999999677e+01 1.992684999999999945e+03
2.600000000000000228e-02 1.537914999999999976e-01 2.214855000000000018e+01 7.498940000000000339e+01 1.992825000000000045e+03
2.700000000000000316e-02 1.537894999999999956e-01 2.155550000000000210e+01 7.416575000000000273e+01 1.992819999999999936e+03
2.800000000000000058e-02 1.537765000000000104e-01 2.092575000000000074e+01 7.325209999999999866e+01 1.992724999999999909e+03
2.900000000000000147e-02 1.537610000000000088e-01 2.030434999999999945e+01 7.244640000000001123e+01 1.992595000000000027e+03
3.000000000000000236e-02 1.537449999999999928e-01 1.969630000000000081e+01 7.181369999999999720e+01 1.992460000000000036e+03
3.099999999999999978e-02 1.537295000000000189e-01 1.907614999999999839e+01 7.129714999999998781e+01 1.992325000000000045e+03
3.200000000000000067e-02 1.537135000000000029e-01 1.840599999999999881e+01 7.076845000000000141e+01 1.992194999999999936e+03
3.300000000000000155e-02 1.536939999999999973e-01 1.765695000000000192e+01 7.009569999999999368e+01 1.992029999999999973e+03
3.400000000000000244e-02 1.536695000000000144e-01 1.682469999999999999e+01 6.920499999999999829e+01 1.991820000000000164e+03
3.500000000000000333e-02 1.536389999999999978e-01 1.593790000000000084e+01 6.811860000000000070e+01 1.991559999999999945e+03
3.600000000000000422e-02 1.536035000000000039e-01 1.505464999999999876e+01 6.695980000000000132e+01 1.991264999999999873e+03
3.700000000000000511e-02 1.535690000000000111e-01 1.425040000000000084e+01 6.592425000000000068e+01 1.990969999999999800e+03
3.799999999999999906e-02 1.535400000000000098e-01 1.359965000000000046e+01 6.522839999999999350e+01 1.990715000000000146e+03
3.899999999999999994e-02 1.535225000000000062e-01 1.315780000000000172e+01 6.505035000000000878e+01 1.990554999999999836e+03
4.000000000000000083e-02 1.535205000000000042e-01 1.294774999999999920e+01 6.548149999999999693e+01 1.990525000000000091e+03
4.100000000000000172e-02 1.535354999999999914e-01 1.295454999999999934e+01 6.650084999999999980e+01 1.990639999999999873e+03
4.200000000000000261e-02 1.535664999999999947e-01 1.312880000000000003e+01 6.797724999999999795e+01 1.990900000000000091e+03
4.300000000000000350e-02 1.536099999999999965e-01 1.339604999999999890e+01 6.969604999999999961e+01 1.991259999999999991e+03
4.400000000000000439e-02 1.536600000000000188e-01 1.367099999999999937e+01 7.140019999999999811e+01 1.991679999999999836e+03
4.499999999999999833e-02 1.537080000000000113e-01 1.387035000000000018e+01 7.283559999999999945e+01 1.992089999999999918e+03
4.599999999999999922e-02 1.537485000000000102e-01 1.392494999999999905e+01 7.379089999999999350e+01 1.992440000000000055e+03
4.700000000000000011e-02 1.537749999999999950e-01 1.378604999999999947e+01 7.412309999999999377e+01 1.992675000000000182e+03
4.800000000000000100e-02 1.537835000000000174e-01 1.342879999999999896e+01 7.376824999999999477e+01 1.992760000000000218e+03
4.900000000000000189e-02 1.537725000000000064e-01 1.284980000000000011e+01 7.273734999999999218e+01 1.992675000000000182e+03
5.000000000000000278e-02 1.537410000000000165e-01 1.206380000000000052e+01 7.110079999999999245e+01 1.992409999999999854e+03
5.100000000000000366e-02 1.536914999999999809e-01 1.109787000000000035e+01 6.896805000000000518e+01 1.991990000000000009e+03
5.200000000000000455e-02 1.536259999999999848e-01 9.986150000000000304e+00 6.646654999999999802e+01 1.991434999999999945e+03
5.300000000000000544e-02 1.535479999999999901e-01 8.765979999999998995e+00 6.372490000000000521e+01 1.990769999999999982e+03
5.399999999999999939e-02 1.534615000000000007e-01 7.475245000000000140e+00 6.086225000000000307e+01 1.990019999999999982e+03
5.500000000000000028e-02 1.533689999999999776e-01 6.151500000000000412e+00 5.798395000000000010e+01 1.989224999999999909e+03
5.600000000000000117e-02 1.532744999999999802e-01 4.831949999999999967e+00 5.518245000000000289e+01 1.988414999999999964e+03
5.700000000000000205e-02 1.531810000000000116e-01 3.554186500000000137e+00 5.254129999999999967e+01 1.987610000000000127e+03
5.800000000000000294e-02 1.530920000000000059e-01 2.356562000000000268e+00 5.013929999999999865e+01 1.986835000000000036e+03
5.900000000000000383e-02 1.530094999999999927e-01 1.278280000000000083e+00 4.805429999999999779e+01 1.986119999999999891e+03
6.000000000000000472e-02 1.529365000000000030e-01 3.586850000000000316e-01 4.636410000000000053e+01 1.985485000000000127e+03
6.099999999999999867e-02 1.528764999999999985e-01 -3.641550000000000065e-01 4.514504999999999768e+01 1.984960000000000036e+03
6.199999999999999956e-02 1.528315000000000090e-01 -8.553045000000001341e-01 4.446800000000000352e+01 1.984555000000000064e+03
6.300000000000000044e-02 1.528039999999999954e-01 -1.085145999999999944e+00 4.439385000000000048e+01 1.984309999999999945e+03
6.400000000000000133e-02 1.527965000000000018e-01 -1.031408499999999950e+00 4.496744999999999948e+01 1.984224999999999909e+03
6.500000000000000222e-02 1.528105000000000158e-01 -6.808195000000000219e-01 4.621320000000000050e+01 1.984324999999999818e+03
6.600000000000000311e-02 1.528460000000000096e-01 -3.011999999999992461e-02 4.813214999999999577e+01 1.984615000000000009e+03
6.700000000000000400e-02 1.529039999999999844e-01 9.136350000000000859e-01 5.070060000000000144e+01 1.985095000000000027e+03
6.800000000000000488e-02 1.529840000000000089e-01 2.133500000000000174e+00 5.387140000000000128e+01 1.985764999999999873e+03
6.900000000000000577e-02 1.530845000000000122e-01 3.603712500000000318e+00 5.757694999999999652e+01 1.986615000000000009e+03
7.000000000000000666e-02 1.532030000000000058e-01 5.291269999999999918e+00 6.173349999999999227e+01 1.987619999999999891e+03
7.100000000000000755e-02 1.533379999999999743e-01 7.157784999999999620e+00 6.624675000000000580e+01 1.988769999999999982e+03
7.200000000000000844e-02 1.534854999999999969e-01 9.161564999999999515e+00 7.101720000000000255e+01 1.990034999999999854e+03
7.300000000000000933e-02 1.536434999999999884e-01 1.125970500000000030e+01 7.594595000000001050e+01 1.991390000000000100e+03
7.399999999999999634e-02 1.538074999999999859e-01 1.341012999999999877e+01 8.094010000000000105e+01 1.992809999999999945e+03
7.499999999999999722e-02 1.539760000000000018e-01 1.557334999999999958e+01 8.591679999999999495e+01 1.994269999999999982e+03
7.599999999999999811e-02 1.541454999999999909e-01 1.771430000000000149e+01 9.080719999999999459e+01 1.995744999999999891e+03
7.699999999999999900e-02 1.543134999999999923e-01 1.980315000000000225e+01 9.555854999999999677e+01 1.997215000000000146e+03
7.799999999999999989e-02 1.544789999999999774e-01 2.181644999999999968e+01 1.001359999999999957e+02 1.998659999999999854e+03
7.900000000000000078e-02 1.546405000000000141e-01 2.373729999999999762e+01 1.045216000000000065e+02 2.000075000000000045e+03
8.000000000000000167e-02 1.547965000000000035e-01 2.555530000000000257e+01 1.087129999999999939e+02 2.001454999999999927e+03
8.100000000000000255e-02 1.549475000000000158e-01 2.726585000000000036e+01 1.127224999999999966e+02 2.002779999999999973e+03
8.200000000000000344e-02 1.550930000000000086e-01 2.886935000000000073e+01 1.165705000000000098e+02 2.004075000000000045e+03
8.300000000000000433e-02 1.552339999999999831e-01 3.036999999999999744e+01 1.202860000000000014e+02 2.005324999999999818e+03
8.400000000000000522e-02 1.553704999999999947e-01 3.177469999999999928e+01 1.238990000000000009e+02 2.006539999999999964e+03
8.500000000000000611e-02 1.555044999999999900e-01 3.309134999999999849e+01 1.274394999999999953e+02 2.007730000000000018e+03
8.600000000000000699e-02 1.556359999999999966e-01 3.432820000000000249e+01 1.309320000000000164e+02 2.008894999999999982e+03
8.700000000000000788e-02 1.557655000000000012e-01 3.549244999999999806e+01 1.343949999999999818e+02 2.010054999999999836e+03
8.800000000000000877e-02 1.558935000000000182e-01 3.659000000000000341e+01 1.378394999999999868e+02 2.011194999999999936e+03
8.899999999999999578e-02 1.560205000000000064e-01 3.762420000000000186e+01 1.412675000000000125e+02 2.012335000000000036e+03
8.999999999999999667e-02 1.561470000000000080e-01 3.859645000000000437e+01 1.446719999999999970e+02 2.013460000000000036e+03
9.099999999999999756e-02 1.562719999999999942e-01 3.950554999999999950e+01 1.480405000000000086e+02 2.014579999999999927e+03
9.199999999999999845e-02 1.563959999999999795e-01 4.034815000000000396e+01 1.513509999999999991e+02 2.015684999999999945e+03
9.299999999999999933e-02 1.565175000000000038e-01 4.111880000000000024e+01 1.545785000000000196e+02 2.016775000000000091e+03
9.400000000000000022e-02 1.566359999999999975e-01 4.181080000000000041e+01 1.576949999999999932e+02 2.017835000000000036e+03
9.500000000000000111e-02 1.567505000000000148e-01 4.241624999999999801e+01 1.606694999999999993e+02 2.018860000000000127e+03
9.600000000000000200e-02 1.568605000000000138e-01 4.292660000000000053e+01 1.634714999999999918e+02 2.019849999999999909e+03
9.700000000000000289e-02 1.569645000000000068e-01 4.333339999999999748e+01 1.660724999999999909e+02 2.020785000000000082e+03
9.800000000000000377e-02 1.570615000000000205e-01 4.362870000000000203e+01 1.684449999999999932e+02 2.021660000000000082e+03
9.900000000000000466e-02 1.571509999999999851e-01 4.380534999999999712e+01 1.705660000000000025e+02 2.022469999999999800e+03
1.000000000000000056e-01 1.572319999999999829e-01 4.385764999999999958e+01 1.724170000000000016e+02 2.023200000000000045e+03
1.010000000000000064e-01 1.573039999999999994e-01 4.378170000000000073e+01 1.739844999999999970e+02 2.023855000000000018e+03
1.020000000000000073e-01 1.573660000000000059e-01 4.357574999999999932e+01 1.752615000000000123e+02 2.024420000000000073e+03
1.030000000000000082e-01 1.574180000000000024e-01 4.324040000000000106e+01 1.762454999999999927e+02 2.024894999999999982e+03
1.040000000000000091e-01 1.574605000000000032e-01 4.277885000000000559e+01 1.769430000000000121e+02 2.025289999999999964e+03
1.050000000000000100e-01 1.574929999999999941e-01 4.219695000000000107e+01 1.773644999999999925e+02 2.025590000000000146e+03
1.059999999999999970e-01 1.575155000000000027e-01 4.150294999999999845e+01 1.775289999999999964e+02 2.025805000000000064e+03
1.069999999999999979e-01 1.575294999999999890e-01 4.070759999999999934e+01 1.774590000000000032e+02 2.025940000000000055e+03
1.079999999999999988e-01 1.575344999999999940e-01 3.982349999999999568e+01 1.771809999999999832e+02 2.026000000000000000e+03
1.089999999999999997e-01 1.575325000000000197e-01 3.886490000000000578e+01 1.767275000000000205e+02 2.025990000000000009e+03
1.100000000000000006e-01 1.575239999999999974e-01 3.784705000000000297e+01 1.761304999999999836e+02 2.025924999999999955e+03
1.110000000000000014e-01 1.575104999999999977e-01 3.678579999999999472e+01 1.754234999999999900e+02 2.025804999999999836e+03
1.120000000000000023e-01 1.574919999999999931e-01 3.569674999999999443e+01 1.746394999999999982e+02 2.025644999999999982e+03
1.130000000000000032e-01 1.574705000000000132e-01 3.459505000000000052e+01 1.738095000000000141e+02 2.025460000000000036e+03
1.140000000000000041e-01 1.574459999999999749e-01 3.349474999999999625e+01 1.729610000000000127e+02 2.025244999999999891e+03
1.150000000000000050e-01 1.574205000000000187e-01 3.240814999999999912e+01 1.721170000000000186e+02 2.025019999999999982e+03
1.160000000000000059e-01 1.573944999999999927e-01 3.134570000000000078e+01 1.712969999999999970e+02 2.024785000000000082e+03
1.170000000000000068e-01 1.573685000000000223e-01 3.031575000000000131e+01 1.705144999999999982e+02 2.024555000000000064e+03
1.180000000000000077e-01 1.573430000000000106e-01 2.932415000000000305e+01 1.697764999999999986e+02 2.024325000000000045e+03
1.190000000000000085e-01 1.573185000000000000e-01 2.837440000000000140e+01 1.690869999999999891e+02 2.024105000000000018e+03
1.200000000000000094e-01 1.572950000000000181e-01 2.746770000000000067e+01 1.684429999999999836e+02 2.023889999999999873e+03
1.209999999999999964e-01 1.572725000000000095e-01 2.660280000000000200e+01 1.678369999999999891e+02 2.023684999999999945e+03
1.219999999999999973e-01 1.572509999999999741e-01 2.577669999999999817e+01 1.672590000000000146e+02 2.023494999999999891e+03
1.229999999999999982e-01 1.572299999999999809e-01 2.498460000000000036e+01 1.666935000000000002e+02 2.023300000000000182e+03
1.239999999999999991e-01 1.572095000000000020e-01 2.422025000000000006e+01 1.661245000000000118e+02 2.023110000000000127e+03
1.250000000000000000e-01 1.571885000000000088e-01 2.347660000000000124e+01 1.655344999999999800e+02 2.022920000000000073e+03
1.260000000000000009e-01 1.571664999999999868e-01 2.274605000000000032e+01 1.649055000000000177e+02 2.022724999999999909e+03
1.270000000000000018e-01 1.571434999999999915e-01 2.202085000000000292e+01 1.642205000000000155e+02 2.022514999999999873e+03
1.280000000000000027e-01 1.571184999999999943e-01 2.129379999999999740e+01 1.634635000000000105e+02 2.022284999999999854e+03
1.290000000000000036e-01 1.570909999999999807e-01 2.055819999999999936e+01 1.626220000000000141e+02 2.022039999999999964e+03
1.300000000000000044e-01 1.570610000000000062e-01 1.980865000000000009e+01 1.616854999999999905e+02 2.021769999999999982e+03
1.310000000000000053e-01 1.570280000000000009e-01 1.904110000000000014e+01 1.606479999999999961e+02 2.021474999999999909e+03
1.320000000000000062e-01 1.569915000000000060e-01 1.825300000000000011e+01 1.595090000000000146e+02 2.021144999999999982e+03
1.330000000000000071e-01 1.569515000000000216e-01 1.744379999999999953e+01 1.582704999999999984e+02 2.020789999999999964e+03
1.340000000000000080e-01 1.569085000000000063e-01 1.661469999999999914e+01 1.569384999999999764e+02 2.020404999999999973e+03
1.350000000000000089e-01 1.568625000000000158e-01 1.576859999999999928e+01 1.555249999999999773e+02 2.020000000000000000e+03
1.360000000000000098e-01 1.568129999999999802e-01 1.491019999999999968e+01 1.540455000000000041e+02 2.019559999999999945e+03
1.370000000000000107e-01 1.567620000000000124e-01 1.404574999999999818e+01 1.525169999999999959e+02 2.019105000000000018e+03
1.380000000000000115e-01 1.567089999999999872e-01 1.318254999999999910e+01 1.509604999999999961e+02 2.018634999999999991e+03
1.390000000000000124e-01 1.566549999999999887e-01 1.232903500000000108e+01 1.493979999999999961e+02 2.018150000000000091e+03
1.400000000000000133e-01 1.566004999999999758e-01 1.149388000000000076e+01 1.478520000000000039e+02 2.017670000000000073e+03
1.410000000000000142e-01 1.565460000000000185e-01 1.068611500000000092e+01 1.463449999999999989e+02 2.017184999999999945e+03
1.420000000000000151e-01 1.564935000000000076e-01 9.914284999999999570e+00 1.448975000000000080e+02 2.016710000000000036e+03
1.430000000000000160e-01 1.564419999999999977e-01 9.186434999999999462e+00 1.435280000000000200e+02 2.016250000000000000e+03
1.440000000000000169e-01 1.563930000000000042e-01 8.509654999999998637e+00 1.422529999999999859e+02 2.015815000000000055e+03
1.450000000000000178e-01 1.563470000000000137e-01 7.889699999999999491e+00 1.410850000000000080e+02 2.015404999999999973e+03
1.459999999999999909e-01 1.563039999999999985e-01 7.330999999999999517e+00 1.400330000000000155e+02 2.015019999999999982e+03
1.469999999999999918e-01 1.562649999999999872e-01 6.836400000000000254e+00 1.391009999999999991e+02 2.014664999999999964e+03
1.479999999999999927e-01 1.562299999999999800e-01 6.407160000000000188e+00 1.382909999999999968e+02 2.014349999999999909e+03
1.489999999999999936e-01 1.561989999999999768e-01 6.042999999999999261e+00 1.376014999999999873e+02 2.014069999999999936e+03
1.499999999999999944e-01 1.561720000000000053e-01 5.742200000000000415e+00 1.370250000000000057e+02 2.013820000000000164e+03
1.509999999999999953e-01 1.561485000000000234e-01 5.501704999999999401e+00 1.365550000000000068e+02 2.013610000000000127e+03
1.519999999999999962e-01 1.561285000000000034e-01 5.317375000000000185e+00 1.361804999999999950e+02 2.013425000000000182e+03
1.529999999999999971e-01 1.561120000000000008e-01 5.184165000000000134e+00 1.358904999999999745e+02 2.013269999999999982e+03
1.539999999999999980e-01 1.560985000000000011e-01 5.096339999999999648e+00 1.356709999999999923e+02 2.013150000000000091e+03
1.549999999999999989e-01 1.560880000000000045e-01 5.047724999999999795e+00 1.355099999999999909e+02 2.013049999999999955e+03
1.559999999999999998e-01 1.560789999999999955e-01 5.031909999999999883e+00 1.353934999999999889e+02 2.012965000000000146e+03
1.570000000000000007e-01 1.560719999999999885e-01 5.042445000000000732e+00 1.353089999999999975e+02 2.012900000000000091e+03
1.580000000000000016e-01 1.560664999999999969e-01 5.073014999999999830e+00 1.352454999999999927e+02 2.012845000000000027e+03
1.590000000000000024e-01 1.560619999999999785e-01 5.117605000000000182e+00 1.351910000000000025e+02 2.012799999999999955e+03
