# t [s], A [cm^2], U [cm/s], P [cPa], c [cm/s]
1.000000000000000021e-03 5.139434999999999976e-01 3.385399999999996745e-03 9.595304999999999040e+01 1.451789999999999964e+03
2.000000000000000042e-03 5.139369999999999772e-01 -4.418799999999999638e-04 9.593840000000000146e+01 1.451784999999999854e+03
3.000000000000000062e-03 5.139569999999999972e-01 3.621575000000000488e-02 9.597055000000000291e+01 1.451789999999999964e+03
4.000000000000000083e-03 5.140010000000000412e-01 1.172707500000000069e-01 9.606530000000000769e+01 1.451819999999999936e+03
5.000000000000000104e-03 5.140169999999999462e-01 1.533071500000000031e-01 9.611159999999999570e+01 1.451835000000000036e+03
6.000000000000000125e-03 5.139934999999999921e-01 1.165790499999999896e-01 9.605205000000000837e+01 1.451824999999999818e+03
7.000000000000000146e-03 5.139569999999999972e-01 5.312100000000000155e-02 9.592005000000000337e+01 1.451789999999999964e+03
8.000000000000000167e-03 5.139245000000000063e-01 -5.253500000000022041e-03 9.575575000000000614e+01 1.451755000000000109e+03
9.000000000000001055e-03 5.138785000000000158e-01 -9.559649999999997316e-02 9.552709999999999013e+01 1.451704999999999927e+03
1.000000000000000194e-02 5.138019999999999810e-01 -2.538775000000000337e-01 9.518635000000000446e+01 1.451625000000000000e+03
1.099999999999999936e-02 5.136895000000000211e-01 -4.893649999999999389e-01 9.470400000000000773e+01 1.451509999999999991e+03
1.200000000000000025e-02 5.135334999999999761e-01 -8.110800000000001342e-01 9.404875000000001251e+01 1.451360000000000127e+03
1.300000000000000114e-02 5.133259999999999490e-01 -1.228280000000000038e+00 9.318639999999999191e+01 1.451150000000000091e+03
1.400000000000000203e-02 5.130684999999999274e-01 -1.725359999999999783e+00 9.210864999999999725e+01 1.450884999999999991e+03
1.499999999999999944e-02 5.127805000000000835e-01 -2.249229999999999841e+00 9.085569999999999879e+01 1.450569999999999936e+03
1.600000000000000033e-02 5.124904999999999600e-01 -2.723889999999999922e+00 8.950829999999999131e+01 1.450224999999999909e+03
1.700000000000000122e-02 5.122245000000000825e-01 -3.078469999999999818e+00 8.815845000000000198e+01 1.449860000000000127e+03
1.800000000000000211e-02 5.119960000000000067e-01 -3.268917999999999768e+00 8.687919999999999732e+01 1.449505000000000109e+03
1.900000000000000300e-02 5.118030000000000079e-01 -3.285166499999999878e+00 8.570754999999999768e+01 1.449154999999999973e+03
2.000000000000000042e-02 5.116344999999999921e-01 -3.145860499999999949e+00 8.464265000000000327e+01 1.448829999999999927e+03
2.100000000000000130e-02 5.114734999999999143e-01 -2.886729499999999948e+00 8.365494999999999948e+01 1.448509999999999991e+03
2.200000000000000219e-02 5.113039999999999807e-01 -2.547686000000000117e+00 8.270040000000000191e+01 1.448200000000000045e+03
2.299999999999999961e-02 5.111149999999999860e-01 -2.161979999999999791e+00 8.173570000000000846e+01 1.447884999999999991e+03
2.400000000000000050e-02 5.109010000000000495e-01 -1.749430000000000263e+00 8.072990000000000066e+01 1.447559999999999945e+03
2.500000000000000139e-02 5.106654999999999944e-01 -1.314764999999999961e+00 7.967135000000000389e+01 1.447220000000000027e+03
2.600000000000000228e-02 5.104159999999999808e-01 -8.510549999999998949e-01 7.856729999999998881e+01 1.446865000000000009e+03
2.700000000000000316e-02 5.101605000000000167e-01 -3.467150000000001064e-01 7.743760000000000332e+01 1.446505000000000109e+03
2.800000000000000058e-02 5.099069999999999991e-01 2.066099999999999604e-01 7.630514999999999759e+01 1.446144999999999982e+03
2.900000000000000147e-02 5.096589999999999732e-01 8.076900000000000190e-01 7.518659999999999854e+01 1.445784999999999854e+03
3.000000000000000236e-02 5.094130000000000047e-01 1.442670000000000119e+00 7.408549999999999613e+01 1.445425000000000182e+03
3.099999999999999978e-02 5.091639999999999500e-01 2.085539999999999949e+00 7.298945000000000505e+01 1.445070000000000164e+03
3.200000000000000067e-02 5.089004999999999779e-01 2.701730000000000409e+00 7.187225000000000819e+01 1.444710000000000036e+03
3.300000000000000155e-02 5.086129999999999818e-01 3.253614999999999924e+00 7.069865000000000066e+01 1.444329999999999927e+03
3.400000000000000244e-02 5.082915000000000072e-01 3.706894999999999829e+00 6.943209999999999127e+01 1.443934999999999945e+03
3.500000000000000333e-02 5.079310000000000214e-01 4.036354999999999471e+00 6.804309999999999548e+01 1.443514999999999873e+03
3.600000000000000422e-02 5.075309999999999544e-01 4.230209999999999582e+00 6.651619999999999777e+01 1.443059999999999945e+03
3.700000000000000511e-02 5.070974999999999788e-01 4.291690000000000005e+00 6.485484999999999900e+01 1.442579999999999927e+03
3.799999999999999906e-02 5.066399999999999793e-01 4.238065000000000637e+00 6.308270000000000266e+01 1.442070000000000164e+03
3.899999999999999994e-02 5.061729999999999841e-01 4.097389999999999866e+00 6.124115000000000464e+01 1.441539999999999964e+03
4.000000000000000083e-02 5.057129999999999681e-01 3.903519999999999435e+00 5.938445000000000107e+01 1.441005000000000109e+03
4.100000000000000172e-02 5.052735000000000420e-01 3.691555000000000142e+00 5.757300000000000040e+01 1.440480000000000018e+03
4.200000000000000261e-02 5.048695000000000821e-01 3.493354999999999766e+00 5.586674999999999613e+01 1.439974999999999909e+03
4.300000000000000350e-02 5.045109999999999317e-01 3.335219999999999629e+00 5.432000000000000028e+01 1.439505000000000109e+03
4.400000000000000439e-02 5.042059999999999320e-01 3.236724999999999852e+00 5.297790000000000532e+01 1.439095000000000027e+03
4.499999999999999833e-02 5.039595000000000047e-01 3.210889999999999578e+00 5.187429999999999808e+01 1.438740000000000009e+03
4.599999999999999922e-02 5.037730000000000263e-01 3.265592500000000342e+00 5.103230000000000643e+01 1.438454999999999927e+03
4.700000000000000011e-02 5.036484999999999435e-01 3.405230999999999675e+00 5.046524999999999750e+01 1.438244999999999891e+03
4.800000000000000100e-02 5.035859999999999781e-01 3.632530000000000037e+00 5.017920000000000158e+01 1.438105000000000018e+03
4.900000000000000189e-02 5.035859999999999781e-01 3.949944999999999595e+00 5.017504999999999882e+01 1.438050000000000182e+03
5.000000000000000278e-02 5.036460000000000381e-01 4.360564999999999358e+00 5.045069999999999766e+01 1.438075000000000045e+03
5.100000000000000366e-02 5.037679999999999936e-01 4.868209999999999482e+00 5.100229999999999819e+01 1.438179999999999836e+03
5.200000000000000455e-02 5.039504999999999679e-01 5.477019999999999555e+00 5.182515000000000072e+01 1.438365000000000009e+03
5.300000000000000544e-02 5.041930000000000023e-01 6.190535000000000565e+00 5.291329999999999956e+01 1.438625000000000000e+03
5.399999999999999939e-02 5.044935000000000391e-01 7.010604999999999976e+00 5.425910000000000366e+01 1.438965000000000146e+03
5.500000000000000028e-02 5.048509999999999387e-01 7.936469999999999914e+00 5.585219999999999629e+01 1.439375000000000000e+03
5.600000000000000117e-02 5.052619999999999889e-01 8.963950000000000529e+00 5.767839999999999634e+01 1.439855000000000018e+03
5.700000000000000205e-02 5.057200000000000584e-01 1.008523000000000103e+01 5.971954999999999814e+01 1.440400000000000091e+03
5.800000000000000294e-02 5.062204999999999622e-01 1.128895999999999944e+01 6.195314999999999372e+01 1.441005000000000109e+03
5.900000000000000383e-02 5.067565000000000541e-01 1.256095999999999968e+01 6.435290000000000532e+01 1.441660000000000082e+03
6.000000000000000472e-02 5.073214999999999808e-01 1.388482999999999912e+01 6.688939999999999486e+01 1.442365000000000009e+03
6.099999999999999867e-02 5.079065000000000385e-01 1.524309500000000028e+01 6.953145000000000664e+01 1.443105000000000018e+03
6.199999999999999956e-02 5.085060000000000136e-01 1.661815999999999960e+01 7.224754999999998972e+01 1.443869999999999891e+03
6.300000000000000044e-02 5.091120000000000090e-01 1.799329999999999785e+01 7.500709999999999411e+01 1.444664999999999964e+03
6.400000000000000133e-02 5.097194999999999920e-01 1.935320000000000107e+01 7.778180000000000405e+01 1.445464999999999918e+03
6.500000000000000222e-02 5.103229999999999711e-01 2.068479999999999919e+01 8.054694999999999538e+01 1.446269999999999982e+03
6.600000000000000311e-02 5.109190000000000120e-01 2.197745000000000104e+01 8.328170000000000073e+01 1.447075000000000045e+03
6.700000000000000400e-02 5.115045000000000286e-01 2.322274999999999778e+01 8.596994999999999720e+01 1.447875000000000000e+03
6.800000000000000488e-02 5.120780000000000332e-01 2.441485000000000127e+01 8.859999999999999432e+01 1.448670000000000073e+03
6.900000000000000577e-02 5.126379999999999271e-01 2.554995000000000260e+01 9.116454999999999131e+01 1.449445000000000164e+03
7.000000000000000666e-02 5.131850000000000023e-01 2.662590000000000146e+01 9.366024999999999068e+01 1.450204999999999927e+03
7.100000000000000755e-02 5.137184999999999668e-01 2.764195000000000135e+01 9.608660000000000423e+01 1.450944999999999936e+03
7.200000000000000844e-02 5.142400000000000304e-01 2.859839999999999804e+01 9.844565000000000055e+01 1.451674999999999955e+03
7.300000000000000933e-02 5.147500000000000409e-01 2.949629999999999797e+01 1.007408499999999947e+02 1.452384999999999991e+03
7.399999999999999634e-02 5.152494999999999159e-01 3.033665000000000234e+01 1.029773500000000013e+02 1.453079999999999927e+03
7.499999999999999722e-02 5.157390000000000585e-01 3.112089999999999890e+01 1.051597999999999900e+02 1.453759999999999991e+03
7.599999999999999811e-02 5.162195000000000533e-01 3.185000000000000142e+01 1.072909999999999968e+02 1.454429999999999836e+03
7.699999999999999900e-02 5.166914999999999702e-01 3.252470000000000283e+01 1.093760000000000048e+02 1.455079999999999927e+03
7.799999999999999989e-02 5.171540000000000026e-01 3.314504999999999768e+01 1.114145000000000039e+02 1.455720000000000027e+03
7.900000000000000078e-02 5.176074999999999982e-01 3.371070000000000277e+01 1.134064999999999941e+02 1.456349999999999909e+03
8.000000000000000167e-02 5.180510000000000392e-01 3.422059999999999746e+01 1.153505000000000109e+02 1.456960000000000036e+03
8.100000000000000255e-02 5.184830000000000272e-01 3.467345000000000255e+01 1.172425000000000068e+02 1.457559999999999945e+03
8.200000000000000344e-02 5.189015000000000155e-01 3.506725000000000136e+01 1.190769999999999982e+02 1.458139999999999873e+03
8.300000000000000433e-02 5.193065000000000042e-01 3.540024999999999977e+01 1.208464999999999918e+02 1.458710000000000036e+03
8.400000000000000522e-02 5.196945000000000592e-01 3.567020000000000124e+01 1.225455000000000041e+02 1.459250000000000000e+03
8.500000000000000611e-02 5.200645000000000406e-01 3.587534999999999741e+01 1.241640000000000015e+02 1.459769999999999982e+03
8.600000000000000699e-02 5.204145000000000021e-01 3.601425000000000409e+01 1.256955000000000098e+02 1.460269999999999982e+03
8.700000000000000788e-02 5.207435000000000258e-01 3.608554999999999779e+01 1.271314999999999884e+02 1.460740000000000009e+03
8.800000000000000877e-02 5.210494999999999433e-01 3.608890000000000242e+01 1.284664999999999964e+02 1.461179999999999836e+03
8.899999999999999578e-02 5.213315000000000587e-01 3.602420000000000044e+01 1.296940000000000168e+02 1.461590000000000146e+03
8.999999999999999667e-02 5.215885000000000105e-01 3.589215000000000089e+01 1.308104999999999905e+02 1.461970000000000027e+03
9.099999999999999756e-02 5.218199999999999505e-01 3.569400000000000261e+01 1.318114999999999952e+02 1.462315000000000055e+03
9.199999999999999845e-02 5.220259999999999900e-01 3.543160000000000309e+01 1.326970000000000027e+02 1.462619999999999891e+03
9.299999999999999933e-02 5.222069999999999768e-01 3.510739999999999839e+01 1.334660000000000082e+02 1.462894999999999982e+03
9.400000000000000022e-02 5.223624999999999519e-01 3.472445000000000448e+01 1.341189999999999998e+02 1.463134999999999991e+03
9.500000000000000111e-02 5.224925000000000264e-01 3.428625000000000256e+01 1.346594999999999800e+02 1.463340000000000146e+03
9.600000000000000200e-02 5.225994999999999946e-01 3.379684999999999917e+01 1.350910000000000082e+02 1.463509999999999991e+03
9.700000000000000289e-02 5.226830000000000087e-01 3.326080000000000325e+01 1.354180000000000064e+02 1.463650000000000091e+03
9.800000000000000377e-02 5.227459999999999329e-01 3.268309999999999604e+01 1.356465000000000032e+02 1.463755000000000109e+03
9.900000000000000466e-02 5.227884999999999893e-01 3.206900000000000261e+01 1.357845000000000084e+02 1.463839999999999918e+03
1.000000000000000056e-01 5.228129999999999722e-01 3.142430000000000234e+01 1.358385000000000105e+02 1.463884999999999991e+03
1.010000000000000064e-01 5.228209999999999802e-01 3.075479999999999947e+01 1.358179999999999836e+02 1.463914999999999964e+03
1.020000000000000073e-01 5.228144999999999598e-01 3.006664999999999921e+01 1.357314999999999827e+02 1.463920000000000073e+03
1.030000000000000082e-01 5.227964999999999973e-01 2.936585000000000178e+01 1.355885000000000105e+02 1.463905000000000200e+03
1.040000000000000091e-01 5.227675000000000516e-01 2.865824999999999889e+01 1.353985000000000127e+02 1.463869999999999891e+03
1.050000000000000100e-01 5.227304999999999868e-01 2.794955000000000211e+01 1.351705000000000041e+02 1.463824999999999818e+03
1.059999999999999970e-01 5.226870000000000127e-01 2.724479999999999791e+01 1.349134999999999991e+02 1.463764999999999873e+03
1.069999999999999979e-01 5.226390000000000757e-01 2.654854999999999876e+01 1.346355000000000075e+02 1.463695000000000164e+03
1.079999999999999988e-01 5.225874999999999826e-01 2.586475000000000080e+01 1.343439999999999941e+02 1.463615000000000009e+03
1.089999999999999997e-01 5.225339999999999430e-01 2.519624999999999915e+01 1.340450000000000159e+02 1.463535000000000082e+03
1.100000000000000006e-01 5.224784999999999568e-01 2.454525000000000290e+01 1.337425000000000068e+02 1.463449999999999818e+03
1.110000000000000014e-01 5.224230000000000818e-01 2.391295000000000215e+01 1.334414999999999907e+02 1.463365000000000009e+03
1.120000000000000023e-01 5.223674999999999846e-01 2.329974999999999952e+01 1.331430000000000007e+02 1.463269999999999982e+03
1.130000000000000032e-01 5.223105000000000109e-01 2.270519999999999783e+01 1.328474999999999966e+02 1.463184999999999945e+03
1.140000000000000041e-01 5.222539999999999960e-01 2.212790000000000035e+01 1.325550000000000068e+02 1.463095000000000027e+03
1.150000000000000050e-01 5.221959999999999935e-01 2.156609999999999872e+01 1.322649999999999864e+02 1.463009999999999991e+03
1.160000000000000059e-01 5.221360000000000445e-01 2.101740000000000208e+01 1.319735000000000014e+02 1.462914999999999964e+03
1.170000000000000068e-01 5.220739999999999270e-01 2.047914999999999708e+01 1.316785000000000139e+02 1.462825000000000045e+03
1.180000000000000077e-01 5.220089999999999453e-01 1.994829999999999970e+01 1.313760000000000048e+02 1.462724999999999909e+03
1.190000000000000085e-01 5.219405000000000294e-01 1.942184999999999917e+01 1.310625000000000000e+02 1.462634999999999991e+03
1.200000000000000094e-01 5.218669999999999698e-01 1.889675000000000082e+01 1.307334999999999923e+02 1.462529999999999973e+03
1.209999999999999964e-01 5.217880000000000296e-01 1.837015000000000242e+01 1.303870000000000005e+02 1.462425000000000182e+03
1.219999999999999973e-01 5.217034999999999867e-01 1.783959999999999724e+01 1.300199999999999818e+02 1.462315000000000055e+03
1.229999999999999982e-01 5.216129999999999933e-01 1.730279999999999774e+01 1.296289999999999907e+02 1.462195000000000164e+03
1.239999999999999991e-01 5.215159999999999796e-01 1.675800000000000267e+01 1.292125000000000057e+02 1.462069999999999936e+03
1.250000000000000000e-01 5.214125000000000565e-01 1.620389999999999731e+01 1.287700000000000102e+02 1.461934999999999945e+03
1.260000000000000009e-01 5.213030000000000719e-01 1.563984999999999914e+01 1.283015000000000043e+02 1.461800000000000182e+03
1.270000000000000018e-01 5.211879999999999846e-01 1.506569999999999965e+01 1.278085000000000093e+02 1.461654999999999973e+03
1.280000000000000027e-01 5.210669999999999469e-01 1.448179999999999978e+01 1.272920000000000016e+02 1.461500000000000000e+03
1.290000000000000036e-01 5.209420000000000162e-01 1.388933000000000106e+01 1.267549999999999955e+02 1.461345000000000027e+03
1.300000000000000044e-01 5.208135000000000403e-01 1.328985499999999931e+01 1.262010000000000076e+02 1.461184999999999945e+03
1.310000000000000053e-01 5.206825000000000481e-01 1.268548499999999990e+01 1.256349999999999909e+02 1.461014999999999873e+03
1.320000000000000062e-01 5.205505000000000271e-01 1.207880499999999913e+01 1.250614999999999952e+02 1.460845000000000027e+03
1.330000000000000071e-01 5.204189999999999650e-01 1.147283999999999970e+01 1.244859999999999900e+02 1.460675000000000182e+03
1.340000000000000080e-01 5.202885000000000426e-01 1.087095000000000056e+01 1.239145000000000039e+02 1.460500000000000000e+03
1.350000000000000089e-01 5.201615000000000544e-01 1.027664000000000044e+01 1.233534999999999968e+02 1.460335000000000036e+03
1.360000000000000098e-01 5.200384999999999591e-01 9.693590000000000373e+00 1.228100000000000023e+02 1.460170000000000073e+03
1.370000000000000107e-01 5.199219999999999953e-01 9.125485000000001179e+00 1.222889999999999873e+02 1.460009999999999991e+03
1.380000000000000115e-01 5.198125000000000107e-01 8.575879999999999725e+00 1.217965000000000089e+02 1.459860000000000127e+03
1.390000000000000124e-01 5.197114999999999929e-01 8.048104999999999620e+00 1.213389999999999986e+02 1.459715000000000146e+03
1.400000000000000133e-01 5.196199999999999708e-01 7.545250000000000234e+00 1.209205000000000041e+02 1.459579999999999927e+03
1.410000000000000142e-01 5.195385000000000142e-01 7.069990000000000663e+00 1.205449999999999875e+02 1.459460000000000036e+03
1.420000000000000151e-01 5.194680000000000408e-01 6.624415000000000830e+00 1.202154999999999916e+02 1.459355000000000018e+03
1.430000000000000160e-01 5.194084999999999397e-01 6.210150000000000503e+00 1.199339999999999975e+02 1.459260000000000218e+03
1.440000000000000169e-01 5.193600000000000438e-01 5.828205000000000524e+00 1.197025000000000006e+02 1.459175000000000182e+03
1.450000000000000178e-01 5.193229999999999791e-01 5.479009999999999714e+00 1.195194999999999936e+02 1.459105000000000018e+03
1.459999999999999909e-01 5.192965000000000497e-01 5.162374999999999936e+00 1.193849999999999909e+02 1.459050000000000182e+03
1.469999999999999918e-01 5.192799999999999638e-01 4.877544999999999575e+00 1.192959999999999923e+02 1.459014999999999873e+03
1.479999999999999927e-01 5.192725000000000257e-01 4.623264999999999958e+00 1.192500000000000000e+02 1.458985000000000127e+03
1.489999999999999936e-01 5.192740000000000133e-01 4.397814999999999586e+00 1.192435000000000116e+02 1.458970000000000027e+03
1.499999999999999944e-01 5.192824999999999802e-01 4.199114999999999931e+00 1.192710000000000008e+02 1.458965000000000146e+03
1.509999999999999953e-01 5.192974999999999675e-01 4.024795000000000122e+00 1.193284999999999911e+02 1.458970000000000027e+03
1.519999999999999962e-01 5.193170000000000286e-01 3.872310000000000141e+00 1.194110000000000014e+02 1.458985000000000127e+03
1.529999999999999971e-01 5.193404999999999827e-01 3.738985000000000003e+00 1.195124999999999886e+02 1.459005000000000109e+03
1.539999999999999980e-01 5.193674999999999820e-01 3.622164999999999857e+00 1.196274999999999977e+02 1.459029999999999973e+03
1.549999999999999989e-01 5.193950000000000511e-01 3.519224999999999604e+00 1.197520000000000095e+02 1.459054999999999836e+03
1.559999999999999998e-01 5.194239999999999968e-01 3.427660000000000373e+00 1.198804999999999978e+02 1.459085000000000036e+03
1.570000000000000007e-01 5.194524999999999837e-01 3.345150000000000290e+00 1.200095000000000027e+02 1.459119999999999891e+03
1.580000000000000016e-01 5.194794999999999829e-01 3.269565000000000055e+00 1.201349999999999909e+02 1.459154999999999973e+03
1.590000000000000024e-01 5.195054999999999534e-01 3.199010000000000353e+00 1.202535000000000025e+02 1.459184999999999945e+03
