# t [s], A [cm^2], U [cm/s], P [cPa], c [cm/s]
1.000000000000000021e-03 1.365204999999999891e-01 1.685953000000000035e-01 9.184260000000000446e+01 1.827795000000000073e+03
2.000000000000000042e-03 1.365049999999999875e-01 1.416182500000000122e+00 8.943460000000000321e+01 1.827634999999999991e+03
3.000000000000000062e-03 1.364339999999999997e-01 2.993538000000000032e+00 8.626980000000000359e+01 1.826934999999999945e+03
4.000000000000000083e-03 1.363214999999999844e-01 4.756234000000000073e+00 8.257554999999999268e+01 1.825855000000000018e+03
5.000000000000000104e-03 1.361864999999999881e-01 6.660549500000000123e+00 7.890545000000000186e+01 1.824579999999999927e+03
6.000000000000000125e-03 1.360454999999999859e-01 8.639870000000000161e+00 7.564124999999999943e+01 1.823250000000000000e+03
7.000000000000000146e-03 1.359070000000000000e-01 1.057920999999999978e+01 7.287269999999999470e+01 1.821960000000000036e+03
8.000000000000000167e-03 1.357744999999999924e-01 1.235861999999999838e+01 7.047589999999999577e+01 1.820744999999999891e+03
9.000000000000001055e-03 1.356510000000000216e-01 1.392016000000000098e+01 6.832344999999999402e+01 1.819625000000000000e+03
1.000000000000000194e-02 1.355379999999999918e-01 1.527055000000000007e+01 6.640514999999999191e+01 1.818615000000000009e+03
1.099999999999999936e-02 1.354374999999999885e-01 1.643209999999999837e+01 6.476189999999999714e+01 1.817730000000000018e+03
1.200000000000000025e-02 1.353509999999999991e-01 1.741794999999999760e+01 6.340399999999999636e+01 1.816974999999999909e+03
1.300000000000000114e-02 1.352780000000000094e-01 1.823545000000000016e+01 6.230725000000000335e+01 1.816345000000000027e+03
1.400000000000000203e-02 1.352170000000000039e-01 1.888980000000000103e+01 6.142904999999999660e+01 1.815825000000000045e+03
1.499999999999999944e-02 1.351674999999999960e-01 1.938315000000000055e+01 6.071135000000000304e+01 1.815405000000000200e+03
1.600000000000000033e-02 1.351255000000000095e-01 1.972384999999999877e+01 6.009650000000000603e+01 1.815054999999999836e+03
1.700000000000000122e-02 1.350905000000000022e-01 1.994145000000000323e+01 5.956864999999999810e+01 1.814775000000000091e+03
1.800000000000000211e-02 1.350624999999999742e-01 2.009430000000000049e+01 5.918854999999999933e+01 1.814554999999999836e+03
1.900000000000000300e-02 1.350454999999999850e-01 2.025715000000000288e+01 5.908520000000000039e+01 1.814420000000000073e+03
2.000000000000000042e-02 1.350414999999999810e-01 2.049674999999999869e+01 5.940234999999999843e+01 1.814394999999999982e+03
2.100000000000000130e-02 1.350534999999999930e-01 2.084765000000000157e+01 6.022825000000000273e+01 1.814514999999999873e+03
2.200000000000000219e-02 1.350820000000000076e-01 2.130095000000000027e+01 6.154675000000000296e+01 1.814775000000000091e+03
2.299999999999999961e-02 1.351259999999999961e-01 2.180849999999999866e+01 6.322914999999999708e+01 1.815164999999999964e+03
2.400000000000000050e-02 1.351795000000000080e-01 2.229964999999999975e+01 6.506645000000000323e+01 1.815639999999999873e+03
2.500000000000000139e-02 1.352375000000000105e-01 2.270244999999999891e+01 6.682425000000000637e+01 1.816159999999999854e+03
2.600000000000000228e-02 1.352929999999999966e-01 2.296184999999999832e+01 6.830029999999999291e+01 1.816660000000000082e+03
2.700000000000000316e-02 1.353409999999999891e-01 2.305129999999999768e+01 6.936735000000000184e+01 1.817099999999999909e+03
2.800000000000000058e-02 1.353785000000000127e-01 2.297469999999999857e+01 6.999105000000000132e+01 1.817454999999999927e+03
2.900000000000000147e-02 1.354049999999999976e-01 2.276010000000000133e+01 7.022230000000000416e+01 1.817700000000000045e+03
3.000000000000000236e-02 1.354210000000000136e-01 2.244814999999999827e+01 7.016849999999999454e+01 1.817865000000000009e+03
3.099999999999999978e-02 1.354294999999999805e-01 2.207959999999999923e+01 6.995584999999999809e+01 1.817950000000000045e+03
3.200000000000000067e-02 1.354329999999999978e-01 2.168415000000000248e+01 6.969290000000000873e+01 1.817990000000000009e+03
3.300000000000000155e-02 1.354329999999999978e-01 2.127570000000000050e+01 6.944615000000000293e+01 1.818000000000000000e+03
3.400000000000000244e-02 1.354319999999999968e-01 2.085184999999999889e+01 6.923130000000000450e+01 1.817990000000000009e+03
3.500000000000000333e-02 1.354295000000000082e-01 2.039889999999999759e+01 6.902055000000000007e+01 1.817974999999999909e+03
3.600000000000000422e-02 1.354250000000000176e-01 1.989959999999999951e+01 6.876144999999999641e+01 1.817934999999999945e+03
3.700000000000000511e-02 1.354170000000000096e-01 1.934074999999999989e+01 6.840040000000000475e+01 1.817865000000000009e+03
3.799999999999999906e-02 1.354044999999999832e-01 1.872030000000000172e+01 6.790500000000000114e+01 1.817764999999999873e+03
3.899999999999999994e-02 1.353884999999999950e-01 1.805079999999999885e+01 6.727934999999999377e+01 1.817625000000000000e+03
4.000000000000000083e-02 1.353685000000000027e-01 1.735895000000000010e+01 6.656929999999999836e+01 1.817454999999999927e+03
4.100000000000000172e-02 1.353460000000000218e-01 1.668210000000000193e+01 6.585625000000000284e+01 1.817264999999999873e+03
4.200000000000000261e-02 1.353245000000000142e-01 1.606200000000000117e+01 6.524230000000000018e+01 1.817075000000000045e+03
4.300000000000000350e-02 1.353064999999999962e-01 1.553669999999999973e+01 6.482949999999999591e+01 1.816914999999999964e+03
4.400000000000000439e-02 1.352955000000000130e-01 1.513414999999999822e+01 6.469915000000000305e+01 1.816815000000000055e+03
4.499999999999999833e-02 1.352929999999999966e-01 1.486710000000000065e+01 6.489530000000000598e+01 1.816779999999999973e+03
4.599999999999999922e-02 1.352994999999999892e-01 1.473140000000000072e+01 6.541604999999999848e+01 1.816829999999999927e+03
4.700000000000000011e-02 1.353159999999999918e-01 1.470690000000000097e+01 6.621380000000000621e+01 1.816965000000000146e+03
4.800000000000000100e-02 1.353409999999999891e-01 1.476115000000000066e+01 6.720314999999999372e+01 1.817174999999999955e+03
4.900000000000000189e-02 1.353709999999999913e-01 1.485464999999999947e+01 6.827475000000001160e+01 1.817434999999999945e+03
5.000000000000000278e-02 1.354035000000000100e-01 1.494589999999999996e+01 6.931165000000000020e+01 1.817720000000000027e+03
5.100000000000000366e-02 1.354349999999999998e-01 1.499649999999999928e+01 7.020445000000000846e+01 1.818000000000000000e+03
5.200000000000000455e-02 1.354635000000000145e-01 1.497499999999999964e+01 7.086365000000000691e+01 1.818244999999999891e+03
5.300000000000000544e-02 1.354849999999999943e-01 1.485885000000000034e+01 7.122735000000000127e+01 1.818434999999999945e+03
5.399999999999999939e-02 1.354974999999999929e-01 1.463499999999999979e+01 7.126394999999999413e+01 1.818549999999999955e+03
5.500000000000000028e-02 1.355000000000000093e-01 1.429925000000000068e+01 7.097020000000000550e+01 1.818579999999999927e+03
5.600000000000000117e-02 1.354925000000000157e-01 1.385449999999999982e+01 7.036599999999999966e+01 1.818525000000000091e+03
5.700000000000000205e-02 1.354750000000000121e-01 1.330894999999999939e+01 6.948754999999999882e+01 1.818375000000000000e+03
5.800000000000000294e-02 1.354489999999999861e-01 1.267384999999999984e+01 6.837980000000000302e+01 1.818144999999999982e+03
5.900000000000000383e-02 1.354140000000000066e-01 1.196233499999999950e+01 6.709080000000000155e+01 1.817844999999999800e+03
6.000000000000000472e-02 1.353730000000000211e-01 1.118814500000000045e+01 6.566705000000000325e+01 1.817485000000000127e+03
6.099999999999999867e-02 1.353260000000000018e-01 1.036547499999999999e+01 6.415135000000000787e+01 1.817075000000000045e+03
6.199999999999999956e-02 1.352749999999999786e-01 9.508704999999999075e+00 6.258259999999999934e+01 1.816625000000000000e+03
6.300000000000000044e-02 1.352214999999999945e-01 8.633210000000000051e+00 6.099694999999999823e+01 1.816150000000000091e+03
6.400000000000000133e-02 1.351660000000000084e-01 7.755390000000000228e+00 5.942934999999999945e+01 1.815664999999999964e+03
6.500000000000000222e-02 1.351104999999999945e-01 6.893360000000000376e+00 5.791580000000000439e+01 1.815170000000000073e+03
6.600000000000000311e-02 1.350564999999999960e-01 6.066919999999999646e+00 5.649455000000000382e+01 1.814690000000000055e+03
6.700000000000000400e-02 1.350049999999999861e-01 5.297404999999999475e+00 5.520685000000000286e+01 1.814235000000000127e+03
6.800000000000000488e-02 1.349575000000000080e-01 4.607185000000000308e+00 5.409649999999999892e+01 1.813815000000000055e+03
6.900000000000000577e-02 1.349160000000000081e-01 4.018905000000000172e+00 5.320844999999999914e+01 1.813440000000000055e+03
7.000000000000000666e-02 1.348814999999999875e-01 3.554465000000000430e+00 5.258700000000000330e+01 1.813125000000000000e+03
7.100000000000000755e-02 1.348559999999999759e-01 3.233964999999999979e+00 5.227304999999999779e+01 1.812894999999999982e+03
7.200000000000000844e-02 1.348409999999999886e-01 3.074679999999999858e+00 5.230169999999999675e+01 1.812750000000000000e+03
7.300000000000000933e-02 1.348374999999999990e-01 3.090094999999999814e+00 5.269995000000000118e+01 1.812710000000000036e+03
7.399999999999999634e-02 1.348469999999999946e-01 3.289254999999999818e+00 5.348465000000000202e+01 1.812779999999999973e+03
7.499999999999999722e-02 1.348694999999999755e-01 3.676309999999999967e+00 5.466169999999999618e+01 1.812964999999999918e+03
7.599999999999999811e-02 1.349059999999999981e-01 4.250354999999999883e+00 5.622540000000000049e+01 1.813269999999999982e+03
7.699999999999999900e-02 1.349555000000000060e-01 5.005580000000000140e+00 5.815905000000000058e+01 1.813695000000000164e+03
7.799999999999999989e-02 1.350184999999999858e-01 5.931650000000000311e+00 6.043595000000000539e+01 1.814240000000000009e+03
7.900000000000000078e-02 1.350934999999999775e-01 7.014284999999999215e+00 6.302094999999999914e+01 1.814894999999999982e+03
8.000000000000000167e-02 1.351804999999999812e-01 8.236000000000000654e+00 6.587264999999999304e+01 1.815654999999999973e+03
8.100000000000000255e-02 1.352774999999999950e-01 9.577024999999999011e+00 6.894550000000000978e+01 1.816500000000000000e+03
8.200000000000000344e-02 1.353830000000000033e-01 1.101598500000000058e+01 7.219225000000000136e+01 1.817429999999999836e+03
8.300000000000000433e-02 1.354954999999999909e-01 1.253122499999999917e+01 7.556589999999999918e+01 1.818420000000000073e+03
8.400000000000000522e-02 1.356140000000000123e-01 1.410110000000000063e+01 7.902230000000000132e+01 1.819469999999999800e+03
8.500000000000000611e-02 1.357364999999999822e-01 1.570514999999999972e+01 8.252125000000000909e+01 1.820549999999999955e+03
8.600000000000000699e-02 1.358619999999999828e-01 1.732460000000000022e+01 8.602830000000000155e+01 1.821664999999999964e+03
8.700000000000000788e-02 1.359885000000000121e-01 1.894275000000000020e+01 8.951534999999999798e+01 1.822795000000000073e+03
8.800000000000000877e-02 1.361155000000000004e-01 2.054534999999999911e+01 9.296110000000000184e+01 1.823934999999999945e+03
8.899999999999999578e-02 1.362424999999999886e-01 2.212069999999999936e+01 9.635110000000000241e+01 1.825069999999999936e+03
8.999999999999999667e-02 1.363685000000000036e-01 2.365955000000000297e+01 9.967674999999999841e+01 1.826204999999999927e+03
9.099999999999999756e-02 1.364934999999999898e-01 2.515484999999999971e+01 1.029346000000000032e+02 1.827324999999999818e+03
9.199999999999999845e-02 1.366165000000000018e-01 2.660164999999999935e+01 1.061253499999999974e+02 1.828434999999999945e+03
9.299999999999999933e-02 1.367369999999999974e-01 2.799644999999999939e+01 1.092530000000000001e+02 1.829530000000000200e+03
9.400000000000000022e-02 1.368570000000000064e-01 2.933704999999999785e+01 1.123215000000000003e+02 1.830615000000000009e+03
9.500000000000000111e-02 1.369739999999999847e-01 3.062185000000000201e+01 1.153365000000000009e+02 1.831680000000000064e+03
9.600000000000000200e-02 1.370905000000000040e-01 3.184990000000000165e+01 1.183015000000000043e+02 1.832735000000000127e+03
9.700000000000000289e-02 1.372050000000000214e-01 3.302009999999999934e+01 1.212189999999999941e+02 1.833775000000000091e+03
9.800000000000000377e-02 1.373175000000000090e-01 3.413155000000000427e+01 1.240894999999999868e+02 1.834804999999999836e+03
9.900000000000000466e-02 1.374285000000000090e-01 3.518290000000000362e+01 1.269115000000000038e+02 1.835815000000000055e+03
1.000000000000000056e-01 1.375379999999999936e-01 3.617260000000000275e+01 1.296800000000000068e+02 1.836815000000000055e+03
1.010000000000000064e-01 1.376455000000000040e-01 3.709870000000000090e+01 1.323890000000000100e+02 1.837799999999999955e+03
1.020000000000000073e-01 1.377510000000000123e-01 3.795889999999999986e+01 1.350314999999999941e+02 1.838764999999999873e+03
1.030000000000000082e-01 1.378540000000000043e-01 3.875079999999999814e+01 1.375960000000000036e+02 1.839710000000000036e+03
1.040000000000000091e-01 1.379544999999999799e-01 3.947160000000000224e+01 1.400734999999999957e+02 1.840630000000000109e+03
1.050000000000000100e-01 1.380514999999999937e-01 4.011849999999999739e+01 1.424530000000000030e+02 1.841525000000000091e+03
1.059999999999999970e-01 1.381455000000000044e-01 4.068869999999999720e+01 1.447235000000000014e+02 1.842389999999999873e+03
1.069999999999999979e-01 1.382349999999999968e-01 4.117924999999999613e+01 1.468739999999999952e+02 1.843214999999999918e+03
1.079999999999999988e-01 1.383209999999999995e-01 4.158769999999999811e+01 1.488935000000000173e+02 1.844005000000000109e+03
1.089999999999999997e-01 1.384015000000000106e-01 4.191145000000000209e+01 1.507740000000000009e+02 1.844755000000000109e+03
1.100000000000000006e-01 1.384779999999999900e-01 4.214844999999999686e+01 1.525045000000000073e+02 1.845460000000000036e+03
1.110000000000000014e-01 1.385484999999999911e-01 4.229695000000000249e+01 1.540785000000000196e+02 1.846115000000000009e+03
1.120000000000000023e-01 1.386135000000000006e-01 4.235585000000000377e+01 1.554900000000000091e+02 1.846720000000000027e+03
1.130000000000000032e-01 1.386724999999999763e-01 4.232455000000000211e+01 1.567330000000000041e+02 1.847269999999999982e+03
1.140000000000000041e-01 1.387260000000000160e-01 4.220335000000000036e+01 1.578050000000000068e+02 1.847769999999999982e+03
1.150000000000000050e-01 1.387730000000000075e-01 4.199330000000000496e+01 1.587055000000000007e+02 1.848204999999999927e+03
1.160000000000000059e-01 1.388129999999999920e-01 4.169644999999999868e+01 1.594345000000000141e+02 1.848589999999999918e+03
1.170000000000000068e-01 1.388475000000000126e-01 4.131589999999999918e+01 1.599960000000000093e+02 1.848909999999999854e+03
1.180000000000000077e-01 1.388754999999999851e-01 4.085559999999999548e+01 1.603960000000000150e+02 1.849175000000000182e+03
1.190000000000000085e-01 1.388975000000000071e-01 4.032059999999999889e+01 1.606424999999999841e+02 1.849389999999999873e+03
1.200000000000000094e-01 1.389134999999999953e-01 3.971689999999999543e+01 1.607454999999999927e+02 1.849545000000000073e+03
1.209999999999999964e-01 1.389245000000000063e-01 3.905129999999999768e+01 1.607164999999999964e+02 1.849654999999999973e+03
1.219999999999999973e-01 1.389299999999999979e-01 3.833119999999999550e+01 1.605699999999999932e+02 1.849715000000000146e+03
1.229999999999999982e-01 1.389309999999999989e-01 3.756449999999999534e+01 1.603195000000000050e+02 1.849724999999999909e+03
1.239999999999999991e-01 1.389279999999999959e-01 3.675939999999999941e+01 1.599809999999999945e+02 1.849704999999999927e+03
1.250000000000000000e-01 1.389210000000000167e-01 3.592419999999999902e+01 1.595695000000000050e+02 1.849644999999999982e+03
1.260000000000000009e-01 1.389110000000000067e-01 3.506705000000000183e+01 1.590989999999999895e+02 1.849565000000000055e+03
1.270000000000000018e-01 1.388984999999999803e-01 3.419559999999999889e+01 1.585840000000000032e+02 1.849450000000000045e+03
1.280000000000000027e-01 1.388840000000000074e-01 3.331719999999999970e+01 1.580369999999999777e+02 1.849320000000000164e+03
1.290000000000000036e-01 1.388675000000000048e-01 3.243834999999999980e+01 1.574680000000000177e+02 1.849170000000000073e+03
1.300000000000000044e-01 1.388495000000000146e-01 3.156490000000000151e+01 1.568884999999999934e+02 1.849005000000000109e+03
1.310000000000000053e-01 1.388304999999999956e-01 3.070159999999999911e+01 1.563034999999999854e+02 1.848835000000000036e+03
1.320000000000000062e-01 1.388115000000000043e-01 2.985244999999999749e+01 1.557199999999999989e+02 1.848664999999999964e+03
1.330000000000000071e-01 1.387919999999999987e-01 2.902040000000000219e+01 1.551399999999999864e+02 1.848480000000000018e+03
1.340000000000000080e-01 1.387720000000000065e-01 2.820730000000000004e+01 1.545660000000000025e+02 1.848295000000000073e+03
1.350000000000000089e-01 1.387514999999999998e-01 2.741429999999999723e+01 1.539975000000000023e+02 1.848105000000000018e+03
1.360000000000000098e-01 1.387315000000000076e-01 2.664150000000000063e+01 1.534320000000000164e+02 1.847920000000000073e+03
1.370000000000000107e-01 1.387109999999999732e-01 2.588819999999999766e+01 1.528670000000000186e+02 1.847730000000000018e+03
1.380000000000000115e-01 1.386894999999999933e-01 2.515305000000000035e+01 1.522969999999999970e+02 1.847539999999999964e+03
1.390000000000000124e-01 1.386685000000000001e-01 2.443410000000000082e+01 1.517180000000000177e+02 1.847339999999999918e+03
1.400000000000000133e-01 1.386470000000000202e-01 2.372894999999999754e+01 1.511229999999999905e+02 1.847144999999999982e+03
1.410000000000000142e-01 1.386249999999999982e-01 2.303484999999999872e+01 1.505060000000000002e+02 1.846934999999999945e+03
1.420000000000000151e-01 1.386020000000000030e-01 2.234884999999999877e+01 1.498609999999999900e+02 1.846724999999999909e+03
1.430000000000000160e-01 1.385780000000000067e-01 2.166799999999999926e+01 1.491820000000000164e+02 1.846500000000000000e+03
1.440000000000000169e-01 1.385524999999999951e-01 2.098935000000000173e+01 1.484635000000000105e+02 1.846264999999999873e+03
1.450000000000000178e-01 1.385259999999999825e-01 2.031024999999999991e+01 1.477004999999999768e+02 1.846019999999999982e+03
1.459999999999999909e-01 1.384970000000000090e-01 1.962829999999999941e+01 1.468890000000000100e+02 1.845759999999999991e+03
1.469999999999999918e-01 1.384670000000000067e-01 1.894160000000000110e+01 1.460264999999999986e+02 1.845480000000000018e+03
1.479999999999999927e-01 1.384350000000000025e-01 1.824875000000000114e+01 1.451125000000000114e+02 1.845190000000000055e+03
1.489999999999999936e-01 1.384015000000000106e-01 1.754899999999999949e+01 1.441460000000000150e+02 1.844880000000000109e+03
1.499999999999999944e-01 1.383655000000000024e-01 1.684224999999999994e+01 1.431289999999999907e+02 1.844549999999999955e+03
1.509999999999999953e-01 1.383280000000000065e-01 1.612924999999999898e+01 1.420649999999999977e+02 1.844215000000000146e+03
1.519999999999999962e-01 1.382895000000000096e-01 1.541130000000000067e+01 1.409585000000000150e+02 1.843849999999999909e+03
1.529999999999999971e-01 1.382484999999999964e-01 1.469059999999999988e+01 1.398160000000000025e+02 1.843485000000000127e+03
1.539999999999999980e-01 1.382059999999999955e-01 1.396985000000000099e+01 1.386449999999999818e+02 1.843099999999999909e+03
1.549999999999999989e-01 1.381630000000000080e-01 1.325239999999999974e+01 1.374544999999999959e+02 1.842700000000000045e+03
1.559999999999999998e-01 1.381195000000000062e-01 1.254214999999999947e+01 1.362545000000000073e+02 1.842299999999999955e+03
1.570000000000000007e-01 1.380744999999999889e-01 1.184338999999999942e+01 1.350554999999999950e+02 1.841894999999999982e+03
1.580000000000000016e-01 1.380299999999999860e-01 1.116057999999999950e+01 1.338675000000000068e+02 1.841485000000000127e+03
1.590000000000000024e-01 1.379859999999999975e-01 1.049821999999999989e+01 1.327015000000000100e+02 1.841079999999999927e+03
