# t [s], A [cm^2], U [cm/s], P [cPa], c [cm/s]
1.000000000000000021e-03 1.577075000000000005e-01 4.278385000000000105e-01 9.596289999999999054e+01 1.949710000000000036e+03
2.000000000000000042e-03 1.576655000000000140e-01 2.087714500000000140e+00 9.247374999999999545e+01 1.949269999999999982e+03
3.000000000000000062e-03 1.575455000000000050e-01 4.072735500000000286e+00 8.789345000000000141e+01 1.948065000000000055e+03
4.000000000000000083e-03 1.573800000000000199e-01 6.270457000000000392e+00 8.310769999999999413e+01 1.946424999999999955e+03
5.000000000000000104e-03 1.572000000000000064e-01 8.604839999999999378e+00 7.895295000000000130e+01 1.944654999999999973e+03
6.000000000000000125e-03 1.570254999999999845e-01 1.089456000000000024e+01 7.562024999999999864e+01 1.942960000000000036e+03
7.000000000000000146e-03 1.568610000000000004e-01 1.294051499999999955e+01 7.281345000000000312e+01 1.941384999999999991e+03
8.000000000000000167e-03 1.567095000000000016e-01 1.467627500000000040e+01 7.029874999999999829e+01 1.939960000000000036e+03
9.000000000000001055e-03 1.565745000000000053e-01 1.614245000000000019e+01 6.811619999999999209e+01 1.938699999999999818e+03
1.000000000000000194e-02 1.564585000000000004e-01 1.737184999999999846e+01 6.632444999999999879e+01 1.937639999999999873e+03
1.099999999999999936e-02 1.563610000000000000e-01 1.837620000000000076e+01 6.488549999999999329e+01 1.936755000000000109e+03
1.200000000000000025e-02 1.562815000000000176e-01 1.916900000000000048e+01 6.373659999999999570e+01 1.936039999999999964e+03
1.300000000000000114e-02 1.562169999999999948e-01 1.975945000000000107e+01 6.280205000000000126e+01 1.935469999999999800e+03
1.400000000000000203e-02 1.561629999999999963e-01 2.015885000000000105e+01 6.199295000000000755e+01 1.935005000000000109e+03
1.499999999999999944e-02 1.561180000000000068e-01 2.041785000000000139e+01 6.129749999999999943e+01 1.934619999999999891e+03
1.600000000000000033e-02 1.560844999999999871e-01 2.064719999999999800e+01 6.088009999999999877e+01 1.934340000000000146e+03
1.700000000000000122e-02 1.560690000000000133e-01 2.098499999999999943e+01 6.104500000000000171e+01 1.934214999999999918e+03
1.800000000000000211e-02 1.560785000000000089e-01 2.152789999999999893e+01 6.206044999999999590e+01 1.934309999999999945e+03
1.900000000000000300e-02 1.561170000000000058e-01 2.227774999999999750e+01 6.396920000000000073e+01 1.934675000000000182e+03
2.000000000000000042e-02 1.561819999999999875e-01 2.313434999999999775e+01 6.651144999999999641e+01 1.935275000000000091e+03
2.100000000000000130e-02 1.562629999999999852e-01 2.393455000000000155e+01 6.919604999999999961e+01 1.936019999999999982e+03
2.200000000000000219e-02 1.563450000000000117e-01 2.451324999999999932e+01 7.146999999999999886e+01 1.936784999999999854e+03
2.299999999999999961e-02 1.564129999999999965e-01 2.475820000000000221e+01 7.290215000000000600e+01 1.937434999999999945e+03
2.400000000000000050e-02 1.564574999999999994e-01 2.464049999999999940e+01 7.330824999999998681e+01 1.937875000000000000e+03
2.500000000000000139e-02 1.564750000000000030e-01 2.421229999999999905e+01 7.277824999999999989e+01 1.938065000000000055e+03
2.600000000000000228e-02 1.564685000000000104e-01 2.357835000000000036e+01 7.160974999999999113e+01 1.938025000000000091e+03
2.700000000000000316e-02 1.564444999999999864e-01 2.285569999999999879e+01 7.018354999999999677e+01 1.937825000000000045e+03
2.800000000000000058e-02 1.564129999999999965e-01 2.213650000000000162e+01 6.883344999999999914e+01 1.937545000000000073e+03
2.900000000000000147e-02 1.563809999999999922e-01 2.146710000000000207e+01 6.775575000000000614e+01 1.937255000000000109e+03
3.000000000000000236e-02 1.563530000000000197e-01 2.084629999999999939e+01 6.698199999999999932e+01 1.937000000000000000e+03
3.099999999999999978e-02 1.563289999999999957e-01 2.023969999999999914e+01 6.640944999999999254e+01 1.936775000000000091e+03
3.200000000000000067e-02 1.563074999999999881e-01 1.960265000000000057e+01 6.587035000000000196e+01 1.936574999999999818e+03
3.300000000000000155e-02 1.562839999999999785e-01 1.890294999999999703e+01 6.520980000000000132e+01 1.936365000000000009e+03
3.400000000000000244e-02 1.562565000000000204e-01 1.813734999999999786e+01 6.434980000000000189e+01 1.936115000000000009e+03
3.500000000000000333e-02 1.562240000000000018e-01 1.733784999999999954e+01 6.332260000000000133e+01 1.935815000000000055e+03
3.600000000000000422e-02 1.561879999999999935e-01 1.656605000000000061e+01 6.226545000000000130e+01 1.935494999999999891e+03
3.700000000000000511e-02 1.561535000000000006e-01 1.589830000000000076e+01 6.138335000000000719e+01 1.935179999999999836e+03
3.799999999999999906e-02 1.561265000000000014e-01 1.540615000000000023e+01 6.088949999999999818e+01 1.934925000000000182e+03
3.899999999999999994e-02 1.561130000000000018e-01 1.513775000000000048e+01 6.094469999999999743e+01 1.934789999999999964e+03
4.000000000000000083e-02 1.561164999999999914e-01 1.510495000000000054e+01 6.161015000000000441e+01 1.934809999999999945e+03
4.100000000000000172e-02 1.561379999999999990e-01 1.527909999999999968e+01 6.282755000000000223e+01 1.934994999999999891e+03
4.200000000000000261e-02 1.561760000000000093e-01 1.559619999999999962e+01 6.442709999999999582e+01 1.935325000000000045e+03
4.300000000000000350e-02 1.562250000000000028e-01 1.596824999999999939e+01 6.615999999999999659e+01 1.935765000000000100e+03
4.400000000000000439e-02 1.562764999999999849e-01 1.629814999999999969e+01 6.774469999999999459e+01 1.936235000000000127e+03
4.499999999999999833e-02 1.563239999999999907e-01 1.649455000000000027e+01 6.891464999999999463e+01 1.936670000000000073e+03
4.599999999999999922e-02 1.563589999999999980e-01 1.648375000000000057e+01 6.945820000000000505e+01 1.936994999999999891e+03
4.700000000000000011e-02 1.563744999999999996e-01 1.621705000000000041e+01 6.924360000000000070e+01 1.937144999999999982e+03
4.800000000000000100e-02 1.563669999999999782e-01 1.567304999999999993e+01 6.822769999999999868e+01 1.937085000000000036e+03
4.900000000000000189e-02 1.563340000000000007e-01 1.485629999999999917e+01 6.644865000000000066e+01 1.936795000000000073e+03
5.000000000000000278e-02 1.562769999999999992e-01 1.379204999999999970e+01 6.400860000000000127e+01 1.936279999999999973e+03
5.100000000000000366e-02 1.561974999999999891e-01 1.252033499999999933e+01 6.105049999999999955e+01 1.935559999999999945e+03
5.200000000000000455e-02 1.561000000000000165e-01 1.109005999999999936e+01 5.773545000000000016e+01 1.934675000000000182e+03
5.300000000000000544e-02 1.559889999999999888e-01 9.554085000000000605e+00 5.422485000000000355e+01 1.933654999999999973e+03
5.399999999999999939e-02 1.558690000000000075e-01 7.965914999999999857e+00 5.066825000000000045e+01 1.932555000000000064e+03
5.500000000000000028e-02 1.557450000000000223e-01 6.377720000000000056e+00 4.719825000000000159e+01 1.931420000000000073e+03
5.600000000000000117e-02 1.556219999999999826e-01 4.839772499999999589e+00 4.393030000000000257e+01 1.930284999999999854e+03
5.700000000000000205e-02 1.555035000000000167e-01 3.400416000000000327e+00 4.096545000000000414e+01 1.929194999999999936e+03
5.800000000000000294e-02 1.553935000000000177e-01 2.105760000000000076e+00 3.839365000000000094e+01 1.928179999999999836e+03
5.900000000000000383e-02 1.552959999999999896e-01 9.994050000000000988e-01 3.629659999999999798e+01 1.927275000000000091e+03
6.000000000000000472e-02 1.552140000000000186e-01 1.214150000000000507e-01 3.474790000000000134e+01 1.926509999999999991e+03
6.099999999999999867e-02 1.551500000000000101e-01 -4.931249999999999245e-01 3.381154999999999688e+01 1.925914999999999964e+03
6.199999999999999956e-02 1.551075000000000093e-01 -8.159394999999999287e-01 3.353820000000000334e+01 1.925505000000000109e+03
6.300000000000000044e-02 1.550874999999999893e-01 -8.274074999999999624e-01 3.396110000000000184e+01 1.925305000000000064e+03
6.400000000000000133e-02 1.550920000000000076e-01 -5.181025000000000214e-01 3.509189999999999543e+01 1.925320000000000164e+03
6.500000000000000222e-02 1.551220000000000099e-01 1.102299999999999391e-01 3.691734999999999900e+01 1.925575000000000045e+03
6.600000000000000311e-02 1.551764999999999950e-01 1.044502999999999959e+00 3.939884999999999593e+01 1.926049999999999955e+03
6.700000000000000400e-02 1.552550000000000041e-01 2.260912499999999881e+00 4.247355000000000302e+01 1.926750000000000000e+03
6.800000000000000488e-02 1.553555000000000075e-01 3.726376000000000133e+00 4.605785000000000196e+01 1.927650000000000091e+03
6.900000000000000577e-02 1.554750000000000021e-01 5.400479999999999947e+00 5.005275000000000318e+01 1.928730000000000018e+03
7.000000000000000666e-02 1.556104999999999849e-01 7.237824999999999953e+00 5.435000000000000142e+01 1.929960000000000036e+03
7.100000000000000755e-02 1.557590000000000086e-01 9.190504999999999924e+00 5.883844999999999459e+01 1.931315000000000055e+03
7.200000000000000844e-02 1.559165000000000134e-01 1.121050500000000127e+01 6.341074999999999307e+01 1.932755000000000109e+03
7.300000000000000933e-02 1.560790000000000233e-01 1.325175499999999928e+01 6.796809999999999263e+01 1.934250000000000000e+03
7.399999999999999634e-02 1.562430000000000208e-01 1.527224999999999966e+01 7.242490000000000805e+01 1.935764999999999873e+03
7.499999999999999722e-02 1.564059999999999895e-01 1.723545000000000016e+01 7.671189999999999998e+01 1.937280000000000200e+03
7.599999999999999811e-02 1.565654999999999963e-01 1.911149999999999949e+01 8.077815000000001078e+01 1.938759999999999991e+03
7.699999999999999900e-02 1.567189999999999972e-01 2.087819999999999965e+01 8.459229999999999450e+01 1.940194999999999936e+03
7.799999999999999989e-02 1.568650000000000044e-01 2.252120000000000033e+01 8.814224999999999000e+01 1.941559999999999945e+03
7.900000000000000078e-02 1.570035000000000180e-01 2.403425000000000011e+01 9.143414999999998827e+01 1.942860000000000127e+03
8.000000000000000167e-02 1.571339999999999959e-01 2.541844999999999999e+01 9.449054999999999893e+01 1.944090000000000146e+03
8.100000000000000255e-02 1.572565000000000213e-01 2.668159999999999954e+01 9.734749999999999659e+01 1.945255000000000109e+03
8.200000000000000344e-02 1.573729999999999851e-01 2.783695000000000164e+01 1.000499499999999955e+02 1.946349999999999909e+03
8.300000000000000433e-02 1.574840000000000129e-01 2.890155000000000030e+01 1.026503500000000031e+02 1.947404999999999973e+03
8.400000000000000522e-02 1.575909999999999811e-01 2.989480000000000004e+01 1.051999999999999886e+02 1.948420000000000073e+03
8.500000000000000611e-02 1.576960000000000028e-01 3.083660000000000068e+01 1.077494999999999976e+02 1.949424999999999955e+03
8.600000000000000699e-02 1.578005000000000102e-01 3.174584999999999724e+01 1.103419999999999987e+02 1.950414999999999964e+03
8.700000000000000788e-02 1.579059999999999908e-01 3.263875000000000171e+01 1.130105000000000075e+02 1.951414999999999964e+03
8.800000000000000877e-02 1.580130000000000146e-01 3.352800000000000580e+01 1.157779999999999916e+02 1.952434999999999945e+03
8.899999999999999578e-02 1.581230000000000135e-01 3.442170000000000130e+01 1.186514999999999986e+02 1.953480000000000018e+03
8.999999999999999667e-02 1.582369999999999888e-01 3.532309999999999661e+01 1.216264999999999930e+02 1.954554999999999836e+03
9.099999999999999756e-02 1.583525000000000071e-01 3.623035000000000139e+01 1.246860000000000070e+02 1.955654999999999973e+03
9.199999999999999845e-02 1.584714999999999874e-01 3.713700000000000045e+01 1.277995000000000090e+02 1.956785000000000082e+03
9.299999999999999933e-02 1.585920000000000107e-01 3.803244999999999720e+01 1.309290000000000020e+02 1.957924999999999955e+03
9.400000000000000022e-02 1.587125000000000064e-01 3.890279999999999916e+01 1.340300000000000011e+02 1.959070000000000164e+03
9.500000000000000111e-02 1.588320000000000010e-01 3.973189999999999600e+01 1.370540000000000020e+02 1.960210000000000036e+03
9.600000000000000200e-02 1.589490000000000069e-01 4.050209999999999866e+01 1.399515000000000100e+02 1.961324999999999818e+03
9.700000000000000289e-02 1.590615000000000223e-01 4.119585000000000008e+01 1.426750000000000114e+02 1.962404999999999973e+03
9.800000000000000377e-02 1.591684999999999905e-01 4.179605000000000103e+01 1.451814999999999998e+02 1.963424999999999955e+03
9.900000000000000466e-02 1.592679999999999929e-01 4.228740000000000521e+01 1.474325000000000045e+02 1.964375000000000000e+03
1.000000000000000056e-01 1.593585000000000140e-01 4.265704999999999814e+01 1.493979999999999961e+02 1.965244999999999891e+03
1.010000000000000064e-01 1.594389999999999974e-01 4.289515000000000100e+01 1.510575000000000045e+02 1.966025000000000091e+03
1.020000000000000073e-01 1.595084999999999975e-01 4.299524999999999864e+01 1.523975000000000080e+02 1.966704999999999927e+03
1.030000000000000082e-01 1.595675000000000010e-01 4.295479999999999876e+01 1.534164999999999850e+02 1.967275000000000091e+03
1.040000000000000091e-01 1.596144999999999925e-01 4.277495000000000402e+01 1.541189999999999998e+02 1.967734999999999900e+03
1.050000000000000100e-01 1.596505000000000007e-01 4.246075000000000443e+01 1.545215000000000032e+02 1.968090000000000146e+03
1.059999999999999970e-01 1.596750000000000114e-01 4.202060000000000173e+01 1.546450000000000102e+02 1.968340000000000146e+03
1.069999999999999979e-01 1.596894999999999842e-01 4.146620000000000061e+01 1.545190000000000055e+02 1.968485000000000127e+03
1.079999999999999988e-01 1.596945000000000170e-01 4.081179999999999808e+01 1.541765000000000043e+02 1.968545000000000073e+03
1.089999999999999997e-01 1.596909999999999996e-01 4.007370000000000232e+01 1.536560000000000059e+02 1.968519999999999982e+03
1.100000000000000006e-01 1.596799999999999886e-01 3.926940000000000452e+01 1.529954999999999927e+02 1.968430000000000064e+03
1.110000000000000014e-01 1.596635000000000137e-01 3.841705000000000325e+01 1.522350000000000136e+02 1.968280000000000200e+03
1.120000000000000023e-01 1.596425000000000205e-01 3.753495000000000203e+01 1.514125000000000227e+02 1.968085000000000036e+03
1.130000000000000032e-01 1.596179999999999821e-01 3.664025000000000176e+01 1.505635000000000048e+02 1.967855000000000018e+03
1.140000000000000041e-01 1.595914999999999973e-01 3.574885000000000446e+01 1.497199999999999989e+02 1.967610000000000127e+03
1.150000000000000050e-01 1.595644999999999980e-01 3.487485000000000213e+01 1.489074999999999989e+02 1.967355000000000018e+03
1.160000000000000059e-01 1.595374999999999988e-01 3.402985000000000326e+01 1.481474999999999795e+02 1.967099999999999909e+03
1.170000000000000068e-01 1.595115000000000005e-01 3.322275000000000489e+01 1.474535000000000196e+02 1.966849999999999909e+03
1.180000000000000077e-01 1.594869999999999899e-01 3.245974999999999966e+01 1.468344999999999914e+02 1.966615000000000009e+03
1.190000000000000085e-01 1.594645000000000090e-01 3.174399999999999977e+01 1.462909999999999968e+02 1.966400000000000091e+03
1.200000000000000094e-01 1.594440000000000024e-01 3.107574999999999932e+01 1.458195000000000050e+02 1.966200000000000045e+03
1.209999999999999964e-01 1.594260000000000121e-01 3.045270000000000010e+01 1.454095000000000084e+02 1.966019999999999982e+03
1.219999999999999973e-01 1.594089999999999951e-01 2.987010000000000076e+01 1.450465000000000089e+02 1.965855000000000018e+03
1.229999999999999982e-01 1.593939999999999801e-01 2.932115000000000293e+01 1.447115000000000009e+02 1.965710000000000036e+03
1.239999999999999991e-01 1.593800000000000217e-01 2.879744999999999777e+01 1.443840000000000146e+02 1.965565000000000055e+03
1.250000000000000000e-01 1.593654999999999933e-01 2.828974999999999795e+01 1.440420000000000016e+02 1.965430000000000064e+03
1.260000000000000009e-01 1.593509999999999927e-01 2.778795000000000215e+01 1.436614999999999895e+02 1.965289999999999964e+03
1.270000000000000018e-01 1.593350000000000044e-01 2.728200000000000003e+01 1.432205000000000155e+02 1.965134999999999991e+03
1.280000000000000027e-01 1.593175000000000008e-01 2.676245000000000118e+01 1.426995000000000005e+02 1.964960000000000036e+03
1.290000000000000036e-01 1.592969999999999942e-01 2.622084999999999866e+01 1.420825000000000102e+02 1.964759999999999991e+03
1.300000000000000044e-01 1.592735000000000123e-01 2.564999999999999858e+01 1.413539999999999850e+02 1.964539999999999964e+03
1.310000000000000053e-01 1.592459999999999987e-01 2.504469999999999885e+01 1.405074999999999932e+02 1.964275000000000091e+03
1.320000000000000062e-01 1.592145000000000088e-01 2.440169999999999817e+01 1.395395000000000039e+02 1.963974999999999909e+03
1.330000000000000071e-01 1.591785000000000005e-01 2.372010000000000218e+01 1.384510000000000218e+02 1.963639999999999873e+03
1.340000000000000080e-01 1.591390000000000027e-01 2.300124999999999886e+01 1.372504999999999882e+02 1.963255000000000109e+03
1.350000000000000089e-01 1.590944999999999998e-01 2.224895000000000067e+01 1.359505000000000052e+02 1.962845000000000027e+03
1.360000000000000098e-01 1.590469999999999939e-01 2.146900000000000119e+01 1.345680000000000121e+02 1.962394999999999982e+03
1.370000000000000107e-01 1.589964999999999851e-01 2.066935000000000144e+01 1.331234999999999786e+02 1.961914999999999964e+03
1.380000000000000115e-01 1.589440000000000019e-01 1.985924999999999940e+01 1.316435000000000173e+02 1.961414999999999964e+03
1.390000000000000124e-01 1.588895000000000168e-01 1.904939999999999856e+01 1.301525000000000034e+02 1.960900000000000091e+03
1.400000000000000133e-01 1.588344999999999896e-01 1.825094999999999956e+01 1.286790000000000020e+02 1.960375000000000000e+03
1.410000000000000142e-01 1.587790000000000035e-01 1.747545000000000215e+01 1.272489999999999952e+02 1.959855000000000018e+03
1.420000000000000151e-01 1.587259999999999782e-01 1.673409999999999798e+01 1.258894999999999982e+02 1.959345000000000027e+03
1.430000000000000160e-01 1.586739999999999817e-01 1.603734999999999999e+01 1.246235000000000070e+02 1.958855000000000018e+03
1.440000000000000169e-01 1.586259999999999892e-01 1.539460000000000051e+01 1.234705000000000013e+02 1.958394999999999982e+03
1.450000000000000178e-01 1.585805000000000131e-01 1.481359999999999921e+01 1.224470000000000027e+02 1.957960000000000036e+03
1.459999999999999909e-01 1.585400000000000142e-01 1.430049999999999955e+01 1.215649999999999977e+02 1.957575000000000045e+03
1.469999999999999918e-01 1.585040000000000060e-01 1.385934999999999917e+01 1.208319999999999936e+02 1.957230000000000018e+03
1.479999999999999927e-01 1.584730000000000028e-01 1.349230000000000018e+01 1.202485000000000070e+02 1.956925000000000182e+03
1.489999999999999936e-01 1.584475000000000189e-01 1.319934999999999903e+01 1.198149999999999977e+02 1.956679999999999836e+03
1.499999999999999944e-01 1.584274999999999989e-01 1.297869999999999990e+01 1.195225000000000080e+02 1.956485000000000127e+03
1.509999999999999953e-01 1.584119999999999973e-01 1.282659999999999911e+01 1.193624999999999972e+02 1.956329999999999927e+03
1.519999999999999962e-01 1.584015000000000006e-01 1.273794999999999966e+01 1.193209999999999980e+02 1.956224999999999909e+03
1.529999999999999971e-01 1.583954999999999946e-01 1.270619999999999905e+01 1.193834999999999980e+02 1.956159999999999854e+03
1.539999999999999980e-01 1.583939999999999793e-01 1.272395000000000032e+01 1.195319999999999965e+02 1.956140000000000100e+03
1.549999999999999989e-01 1.583955000000000224e-01 1.278300000000000125e+01 1.197494999999999976e+02 1.956144999999999982e+03
1.559999999999999998e-01 1.583994999999999986e-01 1.287495000000000012e+01 1.200174999999999983e+02 1.956179999999999836e+03
1.570000000000000007e-01 1.584059999999999913e-01 1.299135000000000062e+01 1.203189999999999884e+02 1.956240000000000009e+03
1.580000000000000016e-01 1.584139999999999993e-01 1.312385000000000090e+01 1.206364999999999981e+02 1.956309999999999945e+03
1.590000000000000024e-01 1.584234999999999949e-01 1.326480000000000103e+01 1.209560000000000031e+02 1.956394999999999982e+03
