# t [s], A [cm^2], U [cm/s], P [cPa], c [cm/s]
1.000000000000000021e-03 7.271075000000000177e-01 4.942900000000000071e-03 1.007570000000000050e+02 1.629615000000000009e+03
2.000000000000000042e-03 7.270969999999999933e-01 1.025024999999999721e-03 1.007295000000000016e+02 1.629605000000000018e+03
3.000000000000000062e-03 7.271695000000000242e-01 1.154629499999999809e-01 1.008535499999999985e+02 1.629635000000000218e+03
4.000000000000000083e-03 7.272184999999999899e-01 2.066389499999999879e-01 1.009646999999999935e+02 1.629659999999999854e+03
5.000000000000000104e-03 7.271710000000000118e-01 1.569434499999999844e-01 1.008615000000000066e+02 1.629644999999999982e+03
6.000000000000000125e-03 7.270879999999999566e-01 4.518749999999999156e-02 1.005960000000000036e+02 1.629585000000000036e+03
7.000000000000000146e-03 7.270090000000000163e-01 -7.111299999999998178e-02 1.002530000000000001e+02 1.629509999999999991e+03
8.000000000000000167e-03 7.268725000000000325e-01 -2.912000000000000144e-01 9.972280000000000655e+01 1.629389999999999873e+03
9.000000000000001055e-03 7.266555000000000097e-01 -6.559650000000000203e-01 9.891769999999999641e+01 1.629210000000000036e+03
1.000000000000000194e-02 7.263530000000000264e-01 -1.163719999999999866e+00 9.779419999999998936e+01 1.628960000000000036e+03
1.099999999999999936e-02 7.259404999999999886e-01 -1.838514999999999899e+00 9.627754999999999086e+01 1.628609999999999900e+03
1.200000000000000025e-02 7.254134999999999334e-01 -2.665275000000000283e+00 9.433320000000000505e+01 1.628154999999999973e+03
1.300000000000000114e-02 7.248284999999999867e-01 -3.524620000000000530e+00 9.207574999999999932e+01 1.627614999999999782e+03
1.400000000000000203e-02 7.242785000000000473e-01 -4.231360999999999706e+00 8.974904999999999688e+01 1.627034999999999854e+03
1.499999999999999944e-02 7.238375000000000226e-01 -4.630356800000000383e+00 8.761204999999999643e+01 1.626480000000000018e+03
1.600000000000000033e-02 7.235240000000000560e-01 -4.661613499999999632e+00 8.582359999999999900e+01 1.625980000000000018e+03
1.700000000000000122e-02 7.233065000000000744e-01 -4.365955000000000474e+00 8.439949999999998909e+01 1.625554999999999836e+03
1.800000000000000211e-02 7.231229999999999603e-01 -3.850280000000000147e+00 8.323394999999999300e+01 1.625179999999999836e+03
1.900000000000000300e-02 7.229125000000000689e-01 -3.238309000000000104e+00 8.215864999999999441e+01 1.624824999999999818e+03
2.000000000000000042e-02 7.226339999999999986e-01 -2.625569749999999924e+00 8.101404999999999745e+01 1.624460000000000036e+03
2.100000000000000130e-02 7.222790000000000044e-01 -2.052490000000000148e+00 7.970499999999999829e+01 1.624059999999999945e+03
2.200000000000000219e-02 7.218674999999999953e-01 -1.504285000000000094e+00 7.822319999999999141e+01 1.623634999999999991e+03
2.299999999999999961e-02 7.214359999999999662e-01 -9.351749999999998675e-01 7.662954999999999472e+01 1.623174999999999955e+03
2.400000000000000050e-02 7.210149999999999615e-01 -3.029749999999999943e-01 7.500969999999999516e+01 1.622704999999999927e+03
2.500000000000000139e-02 7.206179999999999808e-01 4.026000000000000689e-01 7.342650000000000432e+01 1.622239999999999782e+03
2.600000000000000228e-02 7.202344999999999997e-01 1.147400000000000198e+00 7.188814999999999600e+01 1.621789999999999964e+03
2.700000000000000316e-02 7.198344999999999327e-01 1.857130000000000170e+00 7.033884999999999366e+01 1.621329999999999927e+03
2.800000000000000058e-02 7.193775000000000031e-01 2.434250000000000469e+00 6.867170000000000130e+01 1.620844999999999800e+03
2.900000000000000147e-02 7.188244999999999774e-01 2.781759999999999788e+00 6.675799999999999557e+01 1.620309999999999945e+03
3.000000000000000236e-02 7.181489999999999263e-01 2.827669999999999906e+00 6.448460000000000036e+01 1.619699999999999818e+03
3.099999999999999978e-02 7.173464999999999980e-01 2.543900000000000272e+00 6.178965000000000174e+01 1.618994999999999891e+03
3.200000000000000067e-02 7.164375000000000604e-01 1.953904999999999781e+00 5.868574999999999875e+01 1.618195000000000164e+03
3.300000000000000155e-02 7.154620000000000424e-01 1.127259999999999707e+00 5.526420000000000243e+01 1.617320000000000164e+03
3.400000000000000244e-02 7.144734999999999836e-01 1.636499999999996291e-01 5.168025000000000091e+01 1.616400000000000091e+03
3.500000000000000333e-02 7.135285000000000100e-01 -8.277000000000001023e-01 4.812500000000000000e+01 1.615474999999999909e+03
3.600000000000000422e-02 7.126755000000000173e-01 -1.746259999999999923e+00 4.479460000000000264e+01 1.614590000000000146e+03
3.700000000000000511e-02 7.119534999999999059e-01 -2.512505000000000432e+00 4.186339999999999861e+01 1.613779999999999973e+03
3.799999999999999906e-02 7.113855000000000040e-01 -3.073094999999999910e+00 3.946594999999999942e+01 1.613094999999999800e+03
3.899999999999999994e-02 7.109829999999999206e-01 -3.400024999999999853e+00 3.768874999999999886e+01 1.612554999999999836e+03
4.000000000000000083e-02 7.107470000000000176e-01 -3.485338499999999673e+00 3.657160000000000366e+01 1.612175000000000182e+03
4.100000000000000172e-02 7.106704999999999828e-01 -3.333935000000000315e+00 3.611520000000000152e+01 1.611960000000000036e+03
4.200000000000000261e-02 7.107434999999999725e-01 -2.956449999999999800e+00 3.629285000000000139e+01 1.611909999999999854e+03
4.300000000000000350e-02 7.109564999999999912e-01 -2.363996500000000278e+00 3.706220000000000425e+01 1.612019999999999982e+03
4.400000000000000439e-02 7.112979999999999858e-01 -1.565764999999999851e+00 3.837480000000000047e+01 1.612279999999999973e+03
4.499999999999999833e-02 7.117590000000000305e-01 -5.695350000000001245e-01 4.018130000000000024e+01 1.612670000000000073e+03
4.599999999999999922e-02 7.123289999999999900e-01 6.157449999999999868e-01 4.243240000000000123e+01 1.613190000000000055e+03
4.700000000000000011e-02 7.129965000000000330e-01 1.976690000000000058e+00 4.507724999999999937e+01 1.613825000000000045e+03
4.800000000000000100e-02 7.137474999999999792e-01 3.492844999999999533e+00 4.806005000000000393e+01 1.614554999999999836e+03
4.900000000000000189e-02 7.145654999999999646e-01 5.135514999999999830e+00 5.131844999999999857e+01 1.615360000000000127e+03
5.000000000000000278e-02 7.154300000000000104e-01 6.868630000000000457e+00 5.478234999999999388e+01 1.616240000000000009e+03
5.100000000000000366e-02 7.163220000000000143e-01 8.650881500000000557e+00 5.837630000000000052e+01 1.617159999999999854e+03
5.200000000000000455e-02 7.172194999999998988e-01 1.043907500000000077e+01 6.202264999999999873e+01 1.618115000000000009e+03
5.300000000000000544e-02 7.181044999999999234e-01 1.219160499999999914e+01 6.564660000000000650e+01 1.619070000000000164e+03
5.399999999999999939e-02 7.189609999999999612e-01 1.387168499999999938e+01 6.918104999999999905e+01 1.620019999999999982e+03
5.500000000000000028e-02 7.197770000000000001e-01 1.544980500000000134e+01 7.257089999999999463e+01 1.620945000000000164e+03
5.600000000000000117e-02 7.205444999999999212e-01 1.690490000000000137e+01 7.577625000000000455e+01 1.621835000000000036e+03
5.700000000000000205e-02 7.212609999999999300e-01 1.822479999999999833e+01 7.877355000000000018e+01 1.622680000000000064e+03
5.800000000000000294e-02 7.219264999999999155e-01 1.940534999999999854e+01 8.155554999999999666e+01 1.623470000000000027e+03
5.900000000000000383e-02 7.225455000000000627e-01 2.044960000000000022e+01 8.412964999999999804e+01 1.624214999999999918e+03
6.000000000000000472e-02 7.231239999999999890e-01 2.136614999999999753e+01 8.651515000000000555e+01 1.624914999999999964e+03
6.099999999999999867e-02 7.236694999999999656e-01 2.216779999999999973e+01 8.874065000000000225e+01 1.625570000000000164e+03
6.199999999999999956e-02 7.241910000000000291e-01 2.286994999999999933e+01 9.084074999999999989e+01 1.626190000000000055e+03
6.300000000000000044e-02 7.246980000000000643e-01 2.348955000000000126e+01 9.285264999999999702e+01 1.626784999999999854e+03
6.400000000000000133e-02 7.251994999999999969e-01 2.404390000000000072e+01 9.481350000000000477e+01 1.627365000000000009e+03
6.500000000000000222e-02 7.257029999999999870e-01 2.454930000000000234e+01 9.675775000000000148e+01 1.627934999999999945e+03
6.600000000000000311e-02 7.262140000000000262e-01 2.502039999999999864e+01 9.871434999999999604e+01 1.628500000000000000e+03
6.700000000000000400e-02 7.267365000000000075e-01 2.546889999999999787e+01 1.007053999999999974e+02 1.629074999999999818e+03
6.800000000000000488e-02 7.272739999999999760e-01 2.590270000000000294e+01 1.027434999999999974e+02 1.629655000000000200e+03
6.900000000000000577e-02 7.278249999999999442e-01 2.632570000000000121e+01 1.048315000000000055e+02 1.630250000000000000e+03
7.000000000000000666e-02 7.283865000000000478e-01 2.673729999999999762e+01 1.069625000000000057e+02 1.630849999999999909e+03
7.100000000000000755e-02 7.289520000000000444e-01 2.713269999999999982e+01 1.091179999999999950e+02 1.631460000000000036e+03
7.200000000000000844e-02 7.295154999999999834e-01 2.750359999999999872e+01 1.112734999999999985e+02 1.632065000000000055e+03
7.300000000000000933e-02 7.300679999999999392e-01 2.783905000000000030e+01 1.133969999999999914e+02 1.632664999999999964e+03
7.399999999999999634e-02 7.305989999999999984e-01 2.812630000000000052e+01 1.154509999999999934e+02 1.633255000000000109e+03
7.499999999999999722e-02 7.310995000000000132e-01 2.835219999999999985e+01 1.173995000000000033e+02 1.633815000000000055e+03
7.599999999999999811e-02 7.315610000000000168e-01 2.850404999999999944e+01 1.192044999999999959e+02 1.634345000000000027e+03
7.699999999999999900e-02 7.319755000000000011e-01 2.857075000000000031e+01 1.208335000000000008e+02 1.634825000000000045e+03
7.799999999999999989e-02 7.323360000000000980e-01 2.854314999999999714e+01 1.222584999999999980e+02 1.635250000000000000e+03
7.900000000000000078e-02 7.326390000000000402e-01 2.841519999999999868e+01 1.234574999999999960e+02 1.635625000000000000e+03
8.000000000000000167e-02 7.328810000000000047e-01 2.818370000000000175e+01 1.244164999999999992e+02 1.635940000000000055e+03
8.100000000000000255e-02 7.330615000000000325e-01 2.784890000000000043e+01 1.251310000000000002e+02 1.636180000000000064e+03
8.200000000000000344e-02 7.331820000000000004e-01 2.741405000000000314e+01 1.256014999999999873e+02 1.636365000000000009e+03
8.300000000000000433e-02 7.332454999999999945e-01 2.688575000000000159e+01 1.258389999999999986e+02 1.636474999999999909e+03
8.400000000000000522e-02 7.332564999999999777e-01 2.627329999999999899e+01 1.258599999999999994e+02 1.636534999999999854e+03
8.500000000000000611e-02 7.332205000000000528e-01 2.558814999999999884e+01 1.256864999999999952e+02 1.636534999999999854e+03
8.600000000000000699e-02 7.331449999999999356e-01 2.484384999999999977e+01 1.253455000000000013e+02 1.636485000000000127e+03
8.700000000000000788e-02 7.330375000000000085e-01 2.405530000000000257e+01 1.248679999999999950e+02 1.636389999999999873e+03
8.800000000000000877e-02 7.329054999999999875e-01 2.323799999999999955e+01 1.242849999999999966e+02 1.636264999999999873e+03
8.899999999999999578e-02 7.327574999999999505e-01 2.240755000000000052e+01 1.236310000000000002e+02 1.636115000000000009e+03
8.999999999999999667e-02 7.326010000000000577e-01 2.157905000000000229e+01 1.229364999999999952e+02 1.635944999999999936e+03
9.099999999999999756e-02 7.324429999999999552e-01 2.076634999999999920e+01 1.222319999999999993e+02 1.635769999999999982e+03
9.199999999999999845e-02 7.322899999999999965e-01 1.998160000000000025e+01 1.215430000000000064e+02 1.635589999999999918e+03
9.299999999999999933e-02 7.321465000000000334e-01 1.923464999999999847e+01 1.208935000000000031e+02 1.635414999999999964e+03
9.400000000000000022e-02 7.320160000000000000e-01 1.853275000000000006e+01 1.202984999999999900e+02 1.635250000000000000e+03
9.500000000000000111e-02 7.319014999999999826e-01 1.788034999999999997e+01 1.197710000000000008e+02 1.635095000000000027e+03
9.600000000000000200e-02 7.318035000000000512e-01 1.727904999999999802e+01 1.193160000000000025e+02 1.634965000000000146e+03
9.700000000000000289e-02 7.317215000000000247e-01 1.672760000000000247e+01 1.189339999999999975e+02 1.634845000000000027e+03
9.800000000000000377e-02 7.316544999999999854e-01 1.622220000000000084e+01 1.186210000000000093e+02 1.634744999999999891e+03
9.900000000000000466e-02 7.315994999999999582e-01 1.575685000000000002e+01 1.183654999999999973e+02 1.634664999999999964e+03
1.000000000000000056e-01 7.315519999999999801e-01 1.532370000000000054e+01 1.181564999999999941e+02 1.634585000000000036e+03
1.010000000000000064e-01 7.315089999999999648e-01 1.491365000000000052e+01 1.179770000000000039e+02 1.634525000000000091e+03
1.020000000000000073e-01 7.314659999999999496e-01 1.451689999999999969e+01 1.178089999999999975e+02 1.634465000000000146e+03
1.030000000000000082e-01 7.314184999999999715e-01 1.412330000000000041e+01 1.176355000000000075e+02 1.634405000000000200e+03
1.040000000000000091e-01 7.313620000000000676e-01 1.372315000000000040e+01 1.174385000000000048e+02 1.634344999999999800e+03
1.050000000000000100e-01 7.312939999999999996e-01 1.330754999999999910e+01 1.172019999999999982e+02 1.634279999999999973e+03
1.059999999999999970e-01 7.312099999999999156e-01 1.286894000000000027e+01 1.169114999999999895e+02 1.634194999999999936e+03
1.069999999999999979e-01 7.311090000000000089e-01 1.240129999999999910e+01 1.165575000000000045e+02 1.634105000000000018e+03
1.079999999999999988e-01 7.309900000000000286e-01 1.190078499999999906e+01 1.161329999999999956e+02 1.633990000000000009e+03
1.089999999999999997e-01 7.308520000000000572e-01 1.136580000000000013e+01 1.156355000000000075e+02 1.633865000000000009e+03
1.100000000000000006e-01 7.306969999999999299e-01 1.079696000000000033e+01 1.150664999999999907e+02 1.633715000000000146e+03
1.110000000000000014e-01 7.305265000000000786e-01 1.019722999999999935e+01 1.144335000000000093e+02 1.633549999999999955e+03
1.120000000000000023e-01 7.303435000000000343e-01 9.571835000000000093e+00 1.137454999999999927e+02 1.633369999999999891e+03
1.130000000000000032e-01 7.301530000000000520e-01 8.927894999999999470e+00 1.130184999999999889e+02 1.633180000000000064e+03
1.140000000000000041e-01 7.299590000000000245e-01 8.274105000000000487e+00 1.122675000000000125e+02 1.632980000000000018e+03
1.150000000000000050e-01 7.297664999999999846e-01 7.620359999999999800e+00 1.115139999999999958e+02 1.632779999999999973e+03
1.160000000000000059e-01 7.295804999999999652e-01 6.977339999999999876e+00 1.107764999999999986e+02 1.632574999999999818e+03
1.170000000000000068e-01 7.294065000000000687e-01 6.355874999999999275e+00 1.100769999999999982e+02 1.632390000000000100e+03
1.180000000000000077e-01 7.292494999999999949e-01 5.766455000000000553e+00 1.094354999999999905e+02 1.632204999999999927e+03
1.190000000000000085e-01 7.291140000000000398e-01 5.218774999999999942e+00 1.088700000000000045e+02 1.632045000000000073e+03
1.200000000000000094e-01 7.290034999999999155e-01 4.721250000000000391e+00 1.083960000000000008e+02 1.631905000000000200e+03
1.209999999999999964e-01 7.289200000000000124e-01 4.280630000000000379e+00 1.080264999999999986e+02 1.631789999999999964e+03
1.219999999999999973e-01 7.288654999999999440e-01 3.901730000000000143e+00 1.077690000000000055e+02 1.631704999999999927e+03
1.229999999999999982e-01 7.288410000000000721e-01 3.587250000000000050e+00 1.076280000000000001e+02 1.631644999999999982e+03
1.239999999999999991e-01 7.288449999999999651e-01 3.337724999999999831e+00 1.076029999999999944e+02 1.631615000000000009e+03
1.250000000000000000e-01 7.288769999999999971e-01 3.151559999999999917e+00 1.076899999999999977e+02 1.631625000000000000e+03
1.260000000000000009e-01 7.289330000000000531e-01 3.025199999999999889e+00 1.078795000000000073e+02 1.631650000000000091e+03
1.270000000000000018e-01 7.290114999999999235e-01 2.953394999999999992e+00 1.081604999999999990e+02 1.631704999999999927e+03
1.280000000000000027e-01 7.291069999999999496e-01 2.929464999999999986e+00 1.085180000000000007e+02 1.631784999999999854e+03
1.290000000000000036e-01 7.292160000000000863e-01 2.945700000000000429e+00 1.089364999999999952e+02 1.631880000000000109e+03
1.300000000000000044e-01 7.293344999999999967e-01 2.993704999999999838e+00 1.093975000000000080e+02 1.631994999999999891e+03
1.310000000000000053e-01 7.294574999999999809e-01 3.064764999999999961e+00 1.098845000000000027e+02 1.632110000000000127e+03
1.320000000000000062e-01 7.295804999999999652e-01 3.150224999999999831e+00 1.103785000000000025e+02 1.632240000000000009e+03
1.330000000000000071e-01 7.297005000000000852e-01 3.241775000000000517e+00 1.108644999999999925e+02 1.632365000000000009e+03
1.340000000000000080e-01 7.298135000000000039e-01 3.331725000000000048e+00 1.113275000000000006e+02 1.632485000000000127e+03
1.350000000000000089e-01 7.299165000000000791e-01 3.413255000000000372e+00 1.117545000000000073e+02 1.632599999999999909e+03
1.360000000000000098e-01 7.300074999999999203e-01 3.480535000000000156e+00 1.121359999999999957e+02 1.632710000000000036e+03
1.370000000000000107e-01 7.300845000000000251e-01 3.528875000000000206e+00 1.124634999999999962e+02 1.632805000000000064e+03
1.380000000000000115e-01 7.301474999999999493e-01 3.554790000000000116e+00 1.127325000000000017e+02 1.632880000000000109e+03
1.390000000000000124e-01 7.301949999999999275e-01 3.555970000000000297e+00 1.129394999999999953e+02 1.632945000000000164e+03
1.400000000000000133e-01 7.302265000000000006e-01 3.531324999999999825e+00 1.130844999999999914e+02 1.632994999999999891e+03
1.410000000000000142e-01 7.302444999999999631e-01 3.480865000000000098e+00 1.131690000000000111e+02 1.633029999999999973e+03
1.420000000000000151e-01 7.302489999999999259e-01 3.405610000000000248e+00 1.131965000000000003e+02 1.633045000000000073e+03
1.430000000000000160e-01 7.302409999999999179e-01 3.307489999999999597e+00 1.131719999999999970e+02 1.633049999999999955e+03
1.440000000000000169e-01 7.302224999999999966e-01 3.189179999999999904e+00 1.131015000000000015e+02 1.633039999999999964e+03
1.450000000000000178e-01 7.301949999999999275e-01 3.053925000000000001e+00 1.129920000000000044e+02 1.633019999999999982e+03
1.459999999999999909e-01 7.301615000000000189e-01 2.905394999999999950e+00 1.128515000000000015e+02 1.632994999999999891e+03
1.469999999999999918e-01 7.301225000000000076e-01 2.747485000000000177e+00 1.126869999999999976e+02 1.632960000000000036e+03
1.479999999999999927e-01 7.300794999999999924e-01 2.584115000000000162e+00 1.125054999999999978e+02 1.632914999999999964e+03
1.489999999999999936e-01 7.300355000000000594e-01 2.419090000000000185e+00 1.123145000000000095e+02 1.632869999999999891e+03
1.499999999999999944e-01 7.299910000000000565e-01 2.255930000000000213e+00 1.121195000000000022e+02 1.632819999999999936e+03
1.509999999999999953e-01 7.299474999999999714e-01 2.097725000000000062e+00 1.119250000000000114e+02 1.632769999999999982e+03
1.519999999999999962e-01 7.299050000000000260e-01 1.947035000000000071e+00 1.117355000000000018e+02 1.632724999999999909e+03
1.529999999999999971e-01 7.298649999999999860e-01 1.805810000000000137e+00 1.115529999999999973e+02 1.632670000000000073e+03
1.539999999999999980e-01 7.298264999999999336e-01 1.675364999999999993e+00 1.113790000000000049e+02 1.632625000000000000e+03
1.549999999999999989e-01 7.297899999999999388e-01 1.556366499999999986e+00 1.112129999999999939e+02 1.632585000000000036e+03
1.559999999999999998e-01 7.297549999999999315e-01 1.448869999999999880e+00 1.110540000000000020e+02 1.632539999999999964e+03
1.570000000000000007e-01 7.297210000000000640e-01 1.352397499999999919e+00 1.109000000000000057e+02 1.632494999999999891e+03
1.580000000000000016e-01 7.296860000000000568e-01 1.266037499999999927e+00 1.107485000000000070e+02 1.632445000000000164e+03
1.590000000000000024e-01 7.296510000000000495e-01 1.188539999999999930e+00 1.105955000000000013e+02 1.632405000000000200e+03
