# t [s], A [cm^2], U [cm/s], P [cPa], c [cm/s]
1.000000000000000021e-03 1.457424999999999971e-01 1.424545999999999868e-01 9.932574999999999932e+01 1.814340000000000146e+03
2.000000000000000042e-03 1.457289999999999974e-01 1.424856999999999818e+00 9.685479999999999734e+01 1.814195000000000164e+03
3.000000000000000062e-03 1.456534999999999913e-01 3.068802499999999878e+00 9.364320000000000732e+01 1.813470000000000027e+03
4.000000000000000083e-03 1.455310000000000215e-01 4.913189999999999280e+00 8.983620000000000516e+01 1.812320000000000164e+03
5.000000000000000104e-03 1.453814999999999968e-01 6.910210999999999437e+00 8.596705000000000041e+01 1.810929999999999836e+03
6.000000000000000125e-03 1.452219999999999900e-01 8.997885000000000133e+00 8.243625000000000114e+01 1.809450000000000045e+03
7.000000000000000146e-03 1.450635000000000119e-01 1.107083000000000084e+01 7.938120000000000687e+01 1.808000000000000000e+03
8.000000000000000167e-03 1.449099999999999833e-01 1.301077999999999868e+01 7.672239999999999327e+01 1.806619999999999891e+03
9.000000000000001055e-03 1.447654999999999914e-01 1.474585500000000060e+01 7.433500000000000796e+01 1.805325000000000045e+03
1.000000000000000194e-02 1.446310000000000096e-01 1.626784999999999926e+01 7.218399999999999750e+01 1.804150000000000091e+03
1.099999999999999936e-02 1.445099999999999996e-01 1.759495000000000076e+01 7.029990000000000805e+01 1.803099999999999909e+03
1.200000000000000025e-02 1.444040000000000046e-01 1.874164999999999992e+01 6.870250000000000057e+01 1.802190000000000055e+03
1.300000000000000114e-02 1.443125000000000102e-01 1.971665000000000134e+01 6.737884999999999991e+01 1.801409999999999854e+03
1.400000000000000203e-02 1.442359999999999753e-01 2.052550000000000097e+01 6.629470000000000596e+01 1.800759999999999991e+03
1.499999999999999944e-02 1.441704999999999792e-01 2.117085000000000150e+01 6.539945000000000164e+01 1.800220000000000027e+03
1.600000000000000033e-02 1.441160000000000219e-01 2.165735000000000099e+01 6.463509999999999422e+01 1.799769999999999982e+03
1.700000000000000122e-02 1.440695000000000170e-01 2.200450000000000017e+01 6.396724999999999994e+01 1.799394999999999982e+03
1.800000000000000211e-02 1.440305000000000057e-01 2.225590000000000046e+01 6.341969999999999885e+01 1.799085000000000036e+03
1.900000000000000300e-02 1.440015000000000045e-01 2.247545000000000215e+01 6.308315000000000339e+01 1.798859999999999900e+03
2.000000000000000042e-02 1.439850000000000019e-01 2.272930000000000206e+01 6.308320000000000505e+01 1.798735000000000127e+03
2.100000000000000130e-02 1.439840000000000009e-01 2.306445000000000078e+01 6.352450000000000330e+01 1.798740000000000009e+03
2.200000000000000219e-02 1.440005000000000035e-01 2.349370000000000047e+01 6.444015000000000271e+01 1.798890000000000100e+03
2.299999999999999961e-02 1.440330000000000221e-01 2.399365000000000236e+01 6.576839999999999975e+01 1.799175000000000182e+03
2.400000000000000050e-02 1.440784999999999982e-01 2.451375000000000171e+01 6.736379999999999768e+01 1.799575000000000045e+03
2.500000000000000139e-02 1.441324999999999967e-01 2.499259999999999948e+01 6.903374999999999773e+01 1.800045000000000073e+03
2.600000000000000228e-02 1.441894999999999982e-01 2.537440000000000140e+01 7.058530000000000371e+01 1.800550000000000182e+03
2.700000000000000316e-02 1.442430000000000101e-01 2.562170000000000059e+01 7.186730000000000018e+01 1.801025000000000091e+03
2.800000000000000058e-02 1.442890000000000006e-01 2.572125000000000128e+01 7.279664999999999964e+01 1.801445000000000164e+03
2.900000000000000147e-02 1.443260000000000098e-01 2.568315000000000126e+01 7.336455000000000837e+01 1.801780000000000200e+03
3.000000000000000236e-02 1.443530000000000091e-01 2.553385000000000105e+01 7.362430000000000518e+01 1.802029999999999973e+03
3.099999999999999978e-02 1.443714999999999860e-01 2.530675000000000097e+01 7.366559999999999775e+01 1.802204999999999927e+03
3.200000000000000067e-02 1.443830000000000113e-01 2.503240000000000265e+01 7.358509999999999707e+01 1.802315000000000055e+03
3.300000000000000155e-02 1.443909999999999916e-01 2.473134999999999906e+01 7.346059999999999945e+01 1.802390000000000100e+03
3.400000000000000244e-02 1.443949999999999956e-01 2.441120000000000090e+01 7.333474999999999966e+01 1.802440000000000055e+03
3.500000000000000333e-02 1.443975000000000120e-01 2.406754999999999711e+01 7.321184999999999832e+01 1.802464999999999918e+03
3.600000000000000422e-02 1.443979999999999986e-01 2.368849999999999767e+01 7.306544999999999845e+01 1.802470000000000027e+03
3.700000000000000511e-02 1.443955000000000100e-01 2.326064999999999827e+01 7.285370000000000346e+01 1.802450000000000045e+03
3.799999999999999906e-02 1.443895000000000040e-01 2.277530000000000143e+01 7.253764999999999930e+01 1.802404999999999973e+03
3.899999999999999994e-02 1.443785000000000207e-01 2.223324999999999818e+01 7.209739999999999327e+01 1.802315000000000055e+03
4.000000000000000083e-02 1.443635000000000057e-01 2.164710000000000178e+01 7.154300000000000637e+01 1.802195000000000164e+03
4.100000000000000172e-02 1.443450000000000011e-01 2.104084999999999894e+01 7.091720000000000823e+01 1.802039999999999964e+03
4.200000000000000261e-02 1.443244999999999945e-01 2.044619999999999749e+01 7.028979999999999961e+01 1.801869999999999891e+03
4.300000000000000350e-02 1.443045000000000022e-01 1.989805000000000135e+01 6.974575000000000102e+01 1.801695000000000164e+03
4.400000000000000439e-02 1.442869999999999986e-01 1.942799999999999727e+01 6.936894999999999811e+01 1.801545000000000073e+03
4.499999999999999833e-02 1.442765000000000020e-01 1.905935000000000201e+01 6.922649999999998727e+01 1.801444999999999936e+03
4.599999999999999922e-02 1.442724999999999980e-01 1.880344999999999800e+01 6.935614999999999952e+01 1.801409999999999854e+03
4.700000000000000011e-02 1.442780000000000173e-01 1.865800000000000125e+01 6.975944999999998686e+01 1.801445000000000164e+03
4.800000000000000100e-02 1.442910000000000026e-01 1.860820000000000007e+01 7.040194999999999936e+01 1.801555000000000064e+03
4.900000000000000189e-02 1.443125000000000102e-01 1.862930000000000064e+01 7.121905000000000996e+01 1.801735000000000127e+03
5.000000000000000278e-02 1.443395000000000095e-01 1.869035000000000224e+01 7.212619999999999720e+01 1.801954999999999927e+03
5.100000000000000366e-02 1.443694999999999840e-01 1.875860000000000127e+01 7.303130000000000166e+01 1.802215000000000146e+03
5.200000000000000455e-02 1.444000000000000006e-01 1.880330000000000013e+01 7.384645000000000437e+01 1.802470000000000027e+03
5.300000000000000544e-02 1.444274999999999864e-01 1.879844999999999899e+01 7.449760000000000559e+01 1.802710000000000036e+03
5.399999999999999939e-02 1.444504999999999817e-01 1.872475000000000023e+01 7.493089999999999407e+01 1.802909999999999854e+03
5.500000000000000028e-02 1.444660000000000111e-01 1.857010000000000005e+01 7.511525000000000318e+01 1.803049999999999955e+03
5.600000000000000117e-02 1.444745000000000057e-01 1.832900000000000063e+01 7.504125000000000512e+01 1.803125000000000000e+03
5.700000000000000205e-02 1.444739999999999913e-01 1.800164999999999793e+01 7.471770000000000778e+01 1.803130000000000109e+03
5.800000000000000294e-02 1.444650000000000101e-01 1.759239999999999782e+01 7.416694999999999993e+01 1.803055000000000064e+03
5.900000000000000383e-02 1.444484999999999797e-01 1.710824999999999818e+01 7.341910000000000025e+01 1.802914999999999964e+03
6.000000000000000472e-02 1.444235000000000102e-01 1.655770000000000053e+01 7.250790000000000646e+01 1.802704999999999927e+03
6.099999999999999867e-02 1.443929999999999936e-01 1.595025000000000048e+01 7.146700000000001296e+01 1.802444999999999936e+03
6.199999999999999956e-02 1.443564999999999987e-01 1.529570000000000007e+01 7.032850000000000534e+01 1.802130000000000109e+03
6.300000000000000044e-02 1.443159999999999998e-01 1.460470000000000113e+01 6.912234999999999729e+01 1.801779999999999973e+03
6.400000000000000133e-02 1.442720000000000113e-01 1.388879999999999981e+01 6.787735000000000696e+01 1.801404999999999973e+03
6.500000000000000222e-02 1.442255000000000065e-01 1.316080000000000005e+01 6.662225000000000819e+01 1.801005000000000109e+03
6.600000000000000311e-02 1.441784999999999872e-01 1.243540499999999938e+01 6.538785000000000025e+01 1.800595000000000027e+03
6.700000000000000400e-02 1.441310000000000091e-01 1.172920500000000033e+01 6.420754999999999768e+01 1.800184999999999945e+03
6.800000000000000488e-02 1.440855000000000052e-01 1.106057500000000005e+01 6.311839999999999407e+01 1.799784999999999854e+03
6.900000000000000577e-02 1.440424999999999900e-01 1.044943500000000114e+01 6.216075000000000728e+01 1.799414999999999964e+03
7.000000000000000666e-02 1.440040000000000209e-01 9.916619999999999990e+00 6.137724999999999653e+01 1.799079999999999927e+03
7.100000000000000755e-02 1.439719999999999889e-01 9.482929999999999637e+00 6.081145000000000067e+01 1.798795000000000073e+03
7.200000000000000844e-02 1.439475000000000060e-01 9.168469999999999231e+00 6.050534999999999997e+01 1.798579999999999927e+03
7.300000000000000933e-02 1.439325000000000188e-01 8.991450000000000387e+00 6.049745000000000061e+01 1.798445000000000164e+03
7.399999999999999634e-02 1.439289999999999736e-01 8.967555000000000831e+00 6.082049999999999557e+01 1.798394999999999982e+03
7.499999999999999722e-02 1.439365000000000228e-01 9.109020000000001005e+00 6.149954999999999927e+01 1.798460000000000036e+03
7.599999999999999811e-02 1.439580000000000026e-01 9.424195000000000988e+00 6.255055000000000121e+01 1.798630000000000109e+03
7.699999999999999900e-02 1.439929999999999821e-01 9.917220000000000368e+00 6.397999999999999687e+01 1.798920000000000073e+03
7.799999999999999989e-02 1.440425000000000177e-01 1.058791000000000082e+01 6.578435000000000343e+01 1.799339999999999918e+03
7.900000000000000078e-02 1.441069999999999851e-01 1.143202499999999944e+01 6.795060000000000855e+01 1.799875000000000000e+03
8.000000000000000167e-02 1.441844999999999932e-01 1.244154999999999944e+01 7.045754999999999768e+01 1.800534999999999854e+03
8.100000000000000255e-02 1.442755000000000010e-01 1.360504999999999853e+01 7.327684999999999604e+01 1.801315000000000055e+03
8.200000000000000344e-02 1.443789999999999796e-01 1.490869999999999962e+01 7.637500000000000000e+01 1.802204999999999927e+03
8.300000000000000433e-02 1.444940000000000113e-01 1.633644999999999925e+01 7.971500000000000341e+01 1.803194999999999936e+03
8.400000000000000522e-02 1.446195000000000119e-01 1.787115000000000009e+01 8.325825000000000387e+01 1.804275000000000091e+03
8.500000000000000611e-02 1.447534999999999794e-01 1.949500000000000099e+01 8.696639999999999304e+01 1.805434999999999945e+03
8.600000000000000699e-02 1.448955000000000104e-01 2.119040000000000035e+01 9.080270000000000152e+01 1.806664999999999964e+03
8.700000000000000788e-02 1.450430000000000053e-01 2.294024999999999892e+01 9.473380000000000223e+01 1.807950000000000045e+03
8.800000000000000877e-02 1.451959999999999917e-01 2.472854999999999848e+01 9.872929999999999495e+01 1.809285000000000082e+03
8.899999999999999578e-02 1.453524999999999956e-01 2.654079999999999728e+01 1.027644999999999982e+02 1.810655000000000200e+03
8.999999999999999667e-02 1.455120000000000025e-01 2.836390000000000100e+01 1.068191999999999950e+02 1.812049999999999955e+03
9.099999999999999756e-02 1.456729999999999969e-01 3.018645000000000067e+01 1.108764999999999930e+02 1.813464999999999918e+03
9.199999999999999845e-02 1.458355000000000068e-01 3.199849999999999994e+01 1.149254999999999995e+02 1.814900000000000091e+03
9.299999999999999933e-02 1.459984999999999755e-01 3.379155000000000086e+01 1.189559999999999889e+02 1.816340000000000146e+03
9.400000000000000022e-02 1.461620000000000141e-01 3.555825000000000102e+01 1.229619999999999891e+02 1.817784999999999854e+03
9.500000000000000111e-02 1.463245000000000240e-01 3.729200000000000159e+01 1.269389999999999930e+02 1.819235000000000127e+03
9.600000000000000200e-02 1.464874999999999927e-01 3.898695000000000022e+01 1.308814999999999884e+02 1.820674999999999955e+03
9.700000000000000289e-02 1.466489999999999738e-01 4.063785000000000025e+01 1.347849999999999966e+02 1.822119999999999891e+03
9.800000000000000377e-02 1.468099999999999961e-01 4.223940000000000339e+01 1.386440000000000055e+02 1.823554999999999836e+03
9.900000000000000466e-02 1.469695000000000029e-01 4.378664999999999452e+01 1.424529999999999745e+02 1.824974999999999909e+03
1.000000000000000056e-01 1.471270000000000078e-01 4.527469999999999573e+01 1.462024999999999864e+02 1.826389999999999873e+03
1.010000000000000064e-01 1.472824999999999829e-01 4.669875000000000398e+01 1.498845000000000027e+02 1.827789999999999964e+03
1.020000000000000073e-01 1.474360000000000115e-01 4.805410000000000537e+01 1.534895000000000209e+02 1.829164999999999964e+03
1.030000000000000082e-01 1.475865000000000093e-01 4.933605000000000018e+01 1.570054999999999836e+02 1.830525000000000091e+03
1.040000000000000091e-01 1.477340000000000042e-01 5.054030000000000200e+01 1.604234999999999900e+02 1.831849999999999909e+03
1.050000000000000100e-01 1.478774999999999951e-01 5.166270000000000095e+01 1.637309999999999945e+02 1.833150000000000091e+03
1.059999999999999970e-01 1.480170000000000097e-01 5.269955000000000211e+01 1.669180000000000064e+02 1.834414999999999964e+03
1.069999999999999979e-01 1.481520000000000059e-01 5.364724999999999966e+01 1.699739999999999895e+02 1.835639999999999873e+03
1.079999999999999988e-01 1.482820000000000249e-01 5.450300000000000011e+01 1.728894999999999982e+02 1.836819999999999936e+03
1.089999999999999997e-01 1.484070000000000111e-01 5.526395000000000124e+01 1.756555000000000177e+02 1.837954999999999927e+03
1.100000000000000006e-01 1.485259999999999914e-01 5.592799999999999727e+01 1.782640000000000100e+02 1.839039999999999964e+03
1.110000000000000014e-01 1.486385000000000067e-01 5.649330000000000496e+01 1.807079999999999984e+02 1.840074999999999818e+03
1.120000000000000023e-01 1.487459999999999893e-01 5.695860000000000412e+01 1.829805000000000064e+02 1.841045000000000073e+03
1.130000000000000032e-01 1.488455000000000195e-01 5.732304999999999495e+01 1.850759999999999934e+02 1.841965000000000146e+03
1.140000000000000041e-01 1.489389999999999881e-01 5.758634999999999593e+01 1.869909999999999854e+02 1.842819999999999936e+03
1.150000000000000050e-01 1.490245000000000042e-01 5.774880000000000280e+01 1.887224999999999966e+02 1.843610000000000127e+03
1.160000000000000059e-01 1.491034999999999999e-01 5.781130000000000280e+01 1.902680000000000007e+02 1.844335000000000036e+03
1.170000000000000068e-01 1.491740000000000010e-01 5.777559999999999718e+01 1.916270000000000095e+02 1.844994999999999891e+03
1.180000000000000077e-01 1.492379999999999818e-01 5.764419999999999789e+01 1.928015000000000043e+02 1.845585000000000036e+03
1.190000000000000085e-01 1.492950000000000110e-01 5.742040000000000077e+01 1.937950000000000159e+02 1.846115000000000009e+03
1.200000000000000094e-01 1.493440000000000045e-01 5.710835000000000150e+01 1.946129999999999995e+02 1.846570000000000164e+03
1.209999999999999964e-01 1.493855000000000044e-01 5.671314999999999884e+01 1.952630000000000052e+02 1.846965000000000146e+03
1.219999999999999973e-01 1.494209999999999983e-01 5.624065000000000225e+01 1.957524999999999977e+02 1.847295000000000073e+03
1.229999999999999982e-01 1.494495000000000129e-01 5.569729999999999848e+01 1.960944999999999823e+02 1.847565000000000055e+03
1.239999999999999991e-01 1.494719999999999938e-01 5.509024999999999750e+01 1.962995000000000232e+02 1.847775000000000091e+03
1.250000000000000000e-01 1.494884999999999964e-01 5.442699999999999960e+01 1.963820000000000050e+02 1.847940000000000055e+03
1.260000000000000009e-01 1.494999999999999940e-01 5.371544999999999703e+01 1.963550000000000182e+02 1.848045000000000073e+03
1.270000000000000018e-01 1.495064999999999866e-01 5.296340000000000003e+01 1.962334999999999923e+02 1.848115000000000009e+03
1.280000000000000027e-01 1.495084999999999886e-01 5.217875000000000085e+01 1.960314999999999941e+02 1.848139999999999873e+03
1.290000000000000036e-01 1.495070000000000010e-01 5.136894999999999811e+01 1.957620000000000005e+02 1.848130000000000109e+03
1.300000000000000044e-01 1.495020000000000238e-01 5.054110000000000014e+01 1.954375000000000000e+02 1.848095000000000027e+03
1.310000000000000053e-01 1.494945000000000024e-01 4.970170000000000243e+01 1.950695000000000050e+02 1.848029999999999973e+03
1.320000000000000062e-01 1.494845000000000201e-01 4.885649999999999693e+01 1.946674999999999898e+02 1.847945000000000164e+03
1.330000000000000071e-01 1.494729999999999948e-01 4.801059999999999661e+01 1.942395000000000209e+02 1.847840000000000146e+03
1.340000000000000080e-01 1.494595000000000229e-01 4.716809999999999548e+01 1.937924999999999898e+02 1.847720000000000027e+03
1.350000000000000089e-01 1.494444999999999801e-01 4.633230000000000359e+01 1.933299999999999841e+02 1.847585000000000036e+03
1.360000000000000098e-01 1.494290000000000063e-01 4.550565000000000282e+01 1.928545000000000016e+02 1.847440000000000055e+03
1.370000000000000107e-01 1.494125000000000036e-01 4.468954999999999700e+01 1.923684999999999832e+02 1.847289999999999964e+03
1.380000000000000115e-01 1.493950000000000000e-01 4.388490000000000180e+01 1.918704999999999927e+02 1.847130000000000109e+03
1.390000000000000124e-01 1.493764999999999954e-01 4.309154999999999802e+01 1.913594999999999970e+02 1.846960000000000036e+03
1.400000000000000133e-01 1.493570000000000175e-01 4.230884999999999962e+01 1.908315000000000055e+02 1.846779999999999973e+03
1.410000000000000142e-01 1.493364999999999831e-01 4.153555000000000064e+01 1.902839999999999918e+02 1.846594999999999800e+03
1.420000000000000151e-01 1.493154999999999899e-01 4.076995000000000147e+01 1.897115000000000009e+02 1.846405000000000200e+03
1.430000000000000160e-01 1.492930000000000090e-01 4.000990000000000180e+01 1.891100000000000136e+02 1.846200000000000045e+03
1.440000000000000169e-01 1.492694999999999994e-01 3.925310000000000343e+01 1.884735000000000014e+02 1.845980000000000018e+03
1.450000000000000178e-01 1.492445000000000022e-01 3.849725000000000108e+01 1.877980000000000018e+02 1.845750000000000000e+03
1.459999999999999909e-01 1.492179999999999895e-01 3.773990000000000578e+01 1.870779999999999745e+02 1.845509999999999991e+03
1.469999999999999918e-01 1.491895000000000027e-01 3.697894999999999754e+01 1.863100000000000023e+02 1.845244999999999891e+03
1.479999999999999927e-01 1.491589999999999860e-01 3.621224999999999739e+01 1.854904999999999973e+02 1.844969999999999800e+03
1.489999999999999936e-01 1.491264999999999952e-01 3.543829999999999814e+01 1.846175000000000068e+02 1.844679999999999836e+03
1.499999999999999944e-01 1.490925000000000167e-01 3.465590000000000259e+01 1.836889999999999930e+02 1.844365000000000009e+03
1.509999999999999953e-01 1.490555000000000074e-01 3.386440000000000339e+01 1.827065000000000055e+02 1.844035000000000082e+03
1.519999999999999962e-01 1.490164999999999962e-01 3.306369999999999720e+01 1.816694999999999993e+02 1.843679999999999836e+03
1.529999999999999971e-01 1.489759999999999973e-01 3.225430000000000064e+01 1.805815000000000055e+02 1.843309999999999945e+03
1.539999999999999980e-01 1.489329999999999821e-01 3.143740000000000023e+01 1.794470000000000027e+02 1.842920000000000073e+03
1.549999999999999989e-01 1.488884999999999792e-01 3.061464999999999748e+01 1.782704999999999984e+02 1.842514999999999873e+03
1.559999999999999998e-01 1.488415000000000155e-01 2.978855000000000075e+01 1.770589999999999975e+02 1.842095000000000027e+03
1.570000000000000007e-01 1.487935000000000230e-01 2.896195000000000164e+01 1.758195000000000050e+02 1.841659999999999854e+03
1.580000000000000016e-01 1.487439999999999873e-01 2.813810000000000144e+01 1.745615000000000236e+02 1.841215000000000146e+03
1.590000000000000024e-01 1.486945000000000072e-01 2.732079999999999842e+01 1.732934999999999945e+02 1.840759999999999991e+03
