# t [s], A [cm^2], U [cm/s], P [cPa], c [cm/s]
1.000000000000000021e-03 5.486429999999999918e-01 3.623950000000000782e-03 1.036370000000000005e+02 1.441054999999999836e+03
2.000000000000000042e-03 5.486364999999999714e-01 1.159330000000000083e-03 1.036250000000000000e+02 1.441045000000000073e+03
3.000000000000000062e-03 5.486535000000000162e-01 2.814569999999999572e-02 1.036490000000000009e+02 1.441055000000000064e+03
4.000000000000000083e-03 5.486984999999999779e-01 1.017869999999999886e-01 1.037369999999999948e+02 1.441079999999999927e+03
5.000000000000000104e-03 5.487210000000000143e-01 1.422675499999999926e-01 1.037920000000000016e+02 1.441099999999999909e+03
6.000000000000000125e-03 5.487035000000000107e-01 1.175762499999999933e-01 1.037545000000000073e+02 1.441095000000000027e+03
7.000000000000000146e-03 5.486685000000000034e-01 6.130399999999999738e-02 1.036440000000000055e+02 1.441070000000000164e+03
8.000000000000000167e-03 5.486375000000000002e-01 1.099749999999999339e-02 1.035030000000000001e+02 1.441039999999999964e+03
9.000000000000001055e-03 5.485995000000000177e-01 -5.713699999999999335e-02 1.033160000000000025e+02 1.440990000000000009e+03
1.000000000000000194e-02 5.485340000000000771e-01 -1.800135000000000485e-01 1.030374999999999943e+02 1.440925000000000182e+03
1.099999999999999936e-02 5.484350000000000058e-01 -3.713519999999999599e-01 1.026384999999999934e+02 1.440825000000000045e+03
1.200000000000000025e-02 5.482949999999999768e-01 -6.393800000000000594e-01 1.020900000000000034e+02 1.440690000000000055e+03
1.300000000000000114e-02 5.481055000000000232e-01 -9.942550000000001109e-01 1.013581499999999949e+02 1.440505000000000109e+03
1.400000000000000203e-02 5.478640000000000176e-01 -1.429575000000000040e+00 1.004267000000000110e+02 1.440264999999999873e+03
1.499999999999999944e-02 5.475839999999999597e-01 -1.907009999999999872e+00 9.931544999999999845e+01 1.439970000000000027e+03
1.600000000000000033e-02 5.472915000000000418e-01 -2.363105000000000011e+00 9.808459999999999468e+01 1.439634999999999991e+03
1.700000000000000122e-02 5.470120000000000537e-01 -2.731520000000000170e+00 9.681175000000000352e+01 1.439279999999999973e+03
1.800000000000000211e-02 5.467615000000000114e-01 -2.963937999999999739e+00 9.556544999999999845e+01 1.438914999999999964e+03
1.900000000000000300e-02 5.465435000000000709e-01 -3.039982500000000254e+00 9.438835000000000264e+01 1.438555000000000064e+03
2.000000000000000042e-02 5.463510000000000311e-01 -2.965723000000000109e+00 9.329165000000000418e+01 1.438210000000000036e+03
2.100000000000000130e-02 5.461694999999999744e-01 -2.765433999999999948e+00 9.225990000000000180e+01 1.437869999999999891e+03
2.200000000000000219e-02 5.459829999999999961e-01 -2.471093999999999902e+00 9.126160000000000139e+01 1.437534999999999854e+03
2.299999999999999961e-02 5.457799999999999319e-01 -2.112815000000000332e+00 9.026089999999999236e+01 1.437184999999999945e+03
2.400000000000000050e-02 5.455544999999999423e-01 -1.712095000000000145e+00 8.922849999999999682e+01 1.436835000000000036e+03
2.500000000000000139e-02 5.453040000000000109e-01 -1.278665000000000163e+00 8.814870000000000516e+01 1.436470000000000027e+03
2.600000000000000228e-02 5.450355000000000061e-01 -8.114850000000002339e-01 8.702125000000000909e+01 1.436085000000000036e+03
2.700000000000000316e-02 5.447554999999999481e-01 -3.029500000000000526e-01 8.585885000000000389e+01 1.435690000000000055e+03
2.800000000000000058e-02 5.444725000000000259e-01 2.551499999999999879e-01 8.468094999999999573e+01 1.435295000000000073e+03
2.900000000000000147e-02 5.441914999999999392e-01 8.658399999999999430e-01 8.350589999999999691e+01 1.434889999999999873e+03
3.000000000000000236e-02 5.439140000000000086e-01 1.523090000000000055e+00 8.234450000000001069e+01 1.434490000000000009e+03
3.099999999999999978e-02 5.436364999999999670e-01 2.210594999999999644e+00 8.119614999999998872e+01 1.434090000000000146e+03
3.200000000000000067e-02 5.433520000000000572e-01 2.903154999999999930e+00 8.004810000000000514e+01 1.433695000000000164e+03
3.300000000000000155e-02 5.430524999999999380e-01 3.570174999999999876e+00 7.887770000000000437e+01 1.433289999999999964e+03
3.400000000000000244e-02 5.427284999999999471e-01 4.180334999999999468e+00 7.765735000000000809e+01 1.432875000000000000e+03
3.500000000000000333e-02 5.423729999999999940e-01 4.706419999999999604e+00 7.636054999999998927e+01 1.432444999999999936e+03
3.600000000000000422e-02 5.419840000000000213e-01 5.129739999999999966e+00 7.496784999999999854e+01 1.431990000000000009e+03
3.700000000000000511e-02 5.415624999999999467e-01 5.442840000000000344e+00 7.347230000000000416e+01 1.431510000000000218e+03
3.799999999999999906e-02 5.411144999999999428e-01 5.650190000000000268e+00 7.188219999999999743e+01 1.431009999999999991e+03
3.899999999999999994e-02 5.406514999999999516e-01 5.767115000000000435e+00 7.022114999999999441e+01 1.430484999999999900e+03
4.000000000000000083e-02 5.401854999999999851e-01 5.816670000000000229e+00 6.852594999999999459e+01 1.429954999999999927e+03
4.100000000000000172e-02 5.397309999999999608e-01 5.826100000000000279e+00 6.684250000000000114e+01 1.429434999999999945e+03
4.200000000000000261e-02 5.393014999999999892e-01 5.822979999999999379e+00 6.522020000000000550e+01 1.428914999999999964e+03
4.300000000000000350e-02 5.389079999999999426e-01 5.832334999999999603e+00 6.370784999999999343e+01 1.428440000000000055e+03
4.400000000000000439e-02 5.385610000000000674e-01 5.874824999999999520e+00 6.234924999999999784e+01 1.427990000000000009e+03
4.499999999999999833e-02 5.382670000000000510e-01 5.966028000000000553e+00 6.118104999999999905e+01 1.427605000000000018e+03
4.599999999999999922e-02 5.380304999999999671e-01 6.116823500000000635e+00 6.023144999999999527e+01 1.427269999999999982e+03
4.700000000000000011e-02 5.378540000000000543e-01 6.334464999999999790e+00 5.952060000000000173e+01 1.427009999999999991e+03
4.800000000000000100e-02 5.377389999999999670e-01 6.623889999999999390e+00 5.906180000000000518e+01 1.426819999999999936e+03
4.900000000000000189e-02 5.376874999999999849e-01 6.989180000000000170e+00 5.886275000000000546e+01 1.426704999999999927e+03
5.000000000000000278e-02 5.376990000000000380e-01 7.434404999999999930e+00 5.892780000000000484e+01 1.426670000000000073e+03
5.100000000000000366e-02 5.377750000000000030e-01 7.964249999999999829e+00 5.925884999999999536e+01 1.426715000000000146e+03
5.200000000000000455e-02 5.379159999999999497e-01 8.584009999999999252e+00 5.985660000000000025e+01 1.426849999999999909e+03
5.300000000000000544e-02 5.381219999999999892e-01 9.299100000000001032e+00 6.072059999999999746e+01 1.427059999999999945e+03
5.399999999999999939e-02 5.383940000000000392e-01 1.011430999999999969e+01 6.184909999999999997e+01 1.427349999999999909e+03
5.500000000000000028e-02 5.387300000000000422e-01 1.103279999999999994e+01 6.323850000000000193e+01 1.427730000000000018e+03
5.600000000000000117e-02 5.391299999999999981e-01 1.205546999999999969e+01 6.488245000000000573e+01 1.428179999999999836e+03
5.700000000000000205e-02 5.395894999999999442e-01 1.318006500000000081e+01 6.677100000000000080e+01 1.428710000000000036e+03
5.800000000000000294e-02 5.401055000000000161e-01 1.440125499999999903e+01 6.889029999999999632e+01 1.429319999999999936e+03
5.900000000000000383e-02 5.406735000000000291e-01 1.571051999999999893e+01 7.122259999999999991e+01 1.429994999999999891e+03
6.000000000000000472e-02 5.412860000000000449e-01 1.709657500000000141e+01 7.374629999999999086e+01 1.430735000000000127e+03
6.099999999999999867e-02 5.419370000000000021e-01 1.854609999999999914e+01 7.643680000000000518e+01 1.431529999999999973e+03
6.199999999999999956e-02 5.426199999999999912e-01 2.004435000000000144e+01 7.926744999999999663e+01 1.432375000000000000e+03
6.300000000000000044e-02 5.433274999999999633e-01 2.157625000000000171e+01 8.221049999999999613e+01 1.433255000000000109e+03
6.400000000000000133e-02 5.440525000000000500e-01 2.312689999999999912e+01 8.523850000000000193e+01 1.434174999999999955e+03
6.500000000000000222e-02 5.447899999999999965e-01 2.468234999999999957e+01 8.832535000000000025e+01 1.435130000000000109e+03
6.600000000000000311e-02 5.455345000000000333e-01 2.623010000000000019e+01 9.144720000000000937e+01 1.436095000000000027e+03
6.700000000000000400e-02 5.462805000000000577e-01 2.775929999999999964e+01 9.458305000000000007e+01 1.437074999999999818e+03
6.800000000000000488e-02 5.470249999999999835e-01 2.926080000000000325e+01 9.771529999999999916e+01 1.438055000000000064e+03
6.900000000000000577e-02 5.477665000000000450e-01 3.072735000000000127e+01 1.008293500000000051e+02 1.439045000000000073e+03
7.000000000000000666e-02 5.485014999999999752e-01 3.215324999999999989e+01 1.039153000000000020e+02 1.440029999999999973e+03
7.100000000000000755e-02 5.492289999999999672e-01 3.353399999999999892e+01 1.069650499999999909e+02 1.441005000000000109e+03
7.200000000000000844e-02 5.499484999999999513e-01 3.486625000000000085e+01 1.099731500000000040e+02 1.441980000000000018e+03
7.300000000000000933e-02 5.506594999999999684e-01 3.614744999999999919e+01 1.129364999999999952e+02 1.442940000000000055e+03
7.399999999999999634e-02 5.513619999999999077e-01 3.737554999999999694e+01 1.158534999999999968e+02 1.443894999999999982e+03
7.499999999999999722e-02 5.520549999999999624e-01 3.854879999999999995e+01 1.187224999999999966e+02 1.444835000000000036e+03
7.599999999999999811e-02 5.527385000000000215e-01 3.966544999999999987e+01 1.215444999999999993e+02 1.445759999999999991e+03
7.699999999999999900e-02 5.534115000000000562e-01 4.072370000000000090e+01 1.243170000000000073e+02 1.446674999999999955e+03
7.799999999999999989e-02 5.540745000000000253e-01 4.172164999999999679e+01 1.270400000000000063e+02 1.447579999999999927e+03
7.900000000000000078e-02 5.547265000000000112e-01 4.265715000000000146e+01 1.297104999999999961e+02 1.448465000000000146e+03
8.000000000000000167e-02 5.553654999999999564e-01 4.352764999999999418e+01 1.323255000000000052e+02 1.449335000000000036e+03
8.100000000000000255e-02 5.559910000000000130e-01 4.433079999999999643e+01 1.348805000000000121e+02 1.450195000000000164e+03
8.200000000000000344e-02 5.566010000000000124e-01 4.506380000000000052e+01 1.373695000000000164e+02 1.451029999999999973e+03
8.300000000000000433e-02 5.571935000000000082e-01 4.572395000000000209e+01 1.397880000000000109e+02 1.451845000000000027e+03
8.400000000000000522e-02 5.577674999999999716e-01 4.630870000000000175e+01 1.421279999999999859e+02 1.452639999999999873e+03
8.500000000000000611e-02 5.583210000000000672e-01 4.681589999999999918e+01 1.443834999999999980e+02 1.453404999999999973e+03
8.600000000000000699e-02 5.588524999999999743e-01 4.724354999999999905e+01 1.465459999999999923e+02 1.454144999999999982e+03
8.700000000000000788e-02 5.593595000000000095e-01 4.759045000000000414e+01 1.486100000000000136e+02 1.454860000000000127e+03
8.800000000000000877e-02 5.598414999999999919e-01 4.785564999999999714e+01 1.505690000000000168e+02 1.455535000000000082e+03
8.899999999999999578e-02 5.602969999999999340e-01 4.803910000000000480e+01 1.524175000000000182e+02 1.456184999999999945e+03
8.999999999999999667e-02 5.607250000000000290e-01 4.814135000000000275e+01 1.541514999999999986e+02 1.456789999999999964e+03
9.099999999999999756e-02 5.611254999999999438e-01 4.816335000000000122e+01 1.557675000000000125e+02 1.457365000000000009e+03
9.199999999999999845e-02 5.614969999999999128e-01 4.810685000000000144e+01 1.572640000000000100e+02 1.457900000000000091e+03
9.299999999999999933e-02 5.618400000000000061e-01 4.797409999999999997e+01 1.586390000000000100e+02 1.458400000000000091e+03
9.400000000000000022e-02 5.621545000000000014e-01 4.776784999999999570e+01 1.598924999999999841e+02 1.458855000000000018e+03
9.500000000000000111e-02 5.624405000000000099e-01 4.749119999999999919e+01 1.610269999999999868e+02 1.459275000000000091e+03
9.600000000000000200e-02 5.626984999999999904e-01 4.714784999999999826e+01 1.620430000000000064e+02 1.459659999999999854e+03
9.700000000000000289e-02 5.629299999999999304e-01 4.674164999999999992e+01 1.629440000000000168e+02 1.460005000000000109e+03
9.800000000000000377e-02 5.631344999999999823e-01 4.627714999999999890e+01 1.637340000000000089e+02 1.460309999999999945e+03
9.900000000000000466e-02 5.633144999999999403e-01 4.575894999999999868e+01 1.644170000000000016e+02 1.460585000000000036e+03
1.000000000000000056e-01 5.634704999999999853e-01 4.519214999999999804e+01 1.649995000000000118e+02 1.460819999999999936e+03
1.010000000000000064e-01 5.636035000000000350e-01 4.458214999999999861e+01 1.654865000000000066e+02 1.461019999999999982e+03
1.020000000000000073e-01 5.637164999999999537e-01 4.393455000000000155e+01 1.658855000000000075e+02 1.461195000000000164e+03
1.030000000000000082e-01 5.638095000000000745e-01 4.325525000000000375e+01 1.662035000000000196e+02 1.461340000000000146e+03
1.040000000000000091e-01 5.638859999999999983e-01 4.255004999999999882e+01 1.664480000000000075e+02 1.461454999999999927e+03
1.050000000000000100e-01 5.639460000000000583e-01 4.182495000000000118e+01 1.666274999999999977e+02 1.461550000000000182e+03
1.059999999999999970e-01 5.639935000000000365e-01 4.108565000000000111e+01 1.667495000000000118e+02 1.461619999999999891e+03
1.069999999999999979e-01 5.640285000000000437e-01 4.033774999999999977e+01 1.668215000000000146e+02 1.461670000000000073e+03
1.079999999999999988e-01 5.640540000000000553e-01 3.958634999999999593e+01 1.668524999999999920e+02 1.461710000000000036e+03
1.089999999999999997e-01 5.640709999999999891e-01 3.883599999999999852e+01 1.668485000000000014e+02 1.461730000000000018e+03
1.100000000000000006e-01 5.640810000000000546e-01 3.809069999999999823e+01 1.668160000000000025e+02 1.461740000000000009e+03
1.110000000000000014e-01 5.640844999999999887e-01 3.735360000000000014e+01 1.667609999999999957e+02 1.461734999999999900e+03
1.120000000000000023e-01 5.640840000000000298e-01 3.662715000000000032e+01 1.666875000000000000e+02 1.461724999999999909e+03
1.130000000000000032e-01 5.640779999999999683e-01 3.591294999999999504e+01 1.665985000000000014e+02 1.461710000000000036e+03
1.140000000000000041e-01 5.640684999999999727e-01 3.521184999999999832e+01 1.664964999999999975e+02 1.461684999999999945e+03
1.150000000000000050e-01 5.640545000000000142e-01 3.452389999999999759e+01 1.663824999999999932e+02 1.461654999999999973e+03
1.160000000000000059e-01 5.640365000000000517e-01 3.384850000000000136e+01 1.662564999999999884e+02 1.461619999999999891e+03
1.170000000000000068e-01 5.640140000000000153e-01 3.318430000000000035e+01 1.661169999999999902e+02 1.461579999999999927e+03
1.180000000000000077e-01 5.639864999999999462e-01 3.252969999999999828e+01 1.659624999999999773e+02 1.461534999999999854e+03
1.190000000000000085e-01 5.639530000000000376e-01 3.188269999999999982e+01 1.657905000000000086e+02 1.461480000000000018e+03
1.200000000000000094e-01 5.639134999999999565e-01 3.124094999999999800e+01 1.655989999999999895e+02 1.461420000000000073e+03
1.209999999999999964e-01 5.638665000000000482e-01 3.060200000000000387e+01 1.653845000000000027e+02 1.461355000000000018e+03
1.219999999999999973e-01 5.638119999999999798e-01 2.996359999999999957e+01 1.651440000000000055e+02 1.461275000000000091e+03
1.229999999999999982e-01 5.637495000000000145e-01 2.932339999999999947e+01 1.648750000000000000e+02 1.461194999999999936e+03
1.239999999999999991e-01 5.636780000000000124e-01 2.867929999999999779e+01 1.645754999999999768e+02 1.461099999999999909e+03
1.250000000000000000e-01 5.635974999999999735e-01 2.802960000000000207e+01 1.642429999999999950e+02 1.460994999999999891e+03
1.260000000000000009e-01 5.635084999999999678e-01 2.737279999999999802e+01 1.638770000000000095e+02 1.460880000000000109e+03
1.270000000000000018e-01 5.634105000000000363e-01 2.670795000000000030e+01 1.634774999999999920e+02 1.460759999999999991e+03
1.280000000000000027e-01 5.633034999999999570e-01 2.603455000000000297e+01 1.630440000000000111e+02 1.460619999999999891e+03
1.290000000000000036e-01 5.631885000000000918e-01 2.535249999999999915e+01 1.625769999999999982e+02 1.460480000000000018e+03
1.300000000000000044e-01 5.630654999999999966e-01 2.466225000000000023e+01 1.620805000000000007e+02 1.460319999999999936e+03
1.310000000000000053e-01 5.629359999999999919e-01 2.396484999999999843e+01 1.615559999999999832e+02 1.460160000000000082e+03
1.320000000000000062e-01 5.628005000000000368e-01 2.326154999999999973e+01 1.610074999999999932e+02 1.459990000000000009e+03
1.330000000000000071e-01 5.626605000000000079e-01 2.255440000000000111e+01 1.604389999999999930e+02 1.459809999999999945e+03
1.340000000000000080e-01 5.625175000000000036e-01 2.184564999999999912e+01 1.598549999999999898e+02 1.459625000000000000e+03
1.350000000000000089e-01 5.623719999999999830e-01 2.113800000000000168e+01 1.592615000000000123e+02 1.459440000000000055e+03
1.360000000000000098e-01 5.622264999999999624e-01 2.043430000000000035e+01 1.586634999999999991e+02 1.459250000000000000e+03
1.370000000000000107e-01 5.620819999999999705e-01 1.973770000000000024e+01 1.580674999999999955e+02 1.459055000000000064e+03
1.380000000000000115e-01 5.619395000000000362e-01 1.905154999999999887e+01 1.574784999999999968e+02 1.458869999999999891e+03
1.390000000000000124e-01 5.618014999999999537e-01 1.837904999999999944e+01 1.569039999999999964e+02 1.458680000000000064e+03
1.400000000000000133e-01 5.616680000000000561e-01 1.772339999999999804e+01 1.563474999999999966e+02 1.458500000000000000e+03
1.410000000000000142e-01 5.615415000000000267e-01 1.708769999999999811e+01 1.558160000000000025e+02 1.458319999999999936e+03
1.420000000000000151e-01 5.614224999999999355e-01 1.647469999999999857e+01 1.553135000000000048e+02 1.458154999999999973e+03
1.430000000000000160e-01 5.613124999999999920e-01 1.588705000000000034e+01 1.548439999999999941e+02 1.458000000000000000e+03
1.440000000000000169e-01 5.612110000000000154e-01 1.532665000000000077e+01 1.544105000000000132e+02 1.457849999999999909e+03
1.450000000000000178e-01 5.611189999999999234e-01 1.479534999999999911e+01 1.540169999999999959e+02 1.457714999999999918e+03
1.459999999999999909e-01 5.610375000000000778e-01 1.429425000000000168e+01 1.536630000000000109e+02 1.457585000000000036e+03
1.469999999999999918e-01 5.609659999999999647e-01 1.382415000000000127e+01 1.533505000000000109e+02 1.457474999999999909e+03
1.479999999999999927e-01 5.609045000000000281e-01 1.338519999999999932e+01 1.530790000000000077e+02 1.457375000000000000e+03
1.489999999999999936e-01 5.608524999999999761e-01 1.297719999999999985e+01 1.528480000000000132e+02 1.457284999999999854e+03
1.499999999999999944e-01 5.608094999999999608e-01 1.259955000000000069e+01 1.526550000000000011e+02 1.457215000000000146e+03
1.509999999999999953e-01 5.607750000000000234e-01 1.225110499999999902e+01 1.524979999999999905e+02 1.457150000000000091e+03
1.519999999999999962e-01 5.607474999999999543e-01 1.193047500000000127e+01 1.523734999999999786e+02 1.457089999999999918e+03
1.529999999999999971e-01 5.607269999999999754e-01 1.163604499999999931e+01 1.522785000000000082e+02 1.457050000000000182e+03
1.539999999999999980e-01 5.607124999999999471e-01 1.136605499999999935e+01 1.522090000000000032e+02 1.457014999999999873e+03
1.549999999999999989e-01 5.607024999999999926e-01 1.111842500000000022e+01 1.521614999999999895e+02 1.456990000000000009e+03
1.559999999999999998e-01 5.606965000000000421e-01 1.089127500000000026e+01 1.521314999999999884e+02 1.456965000000000146e+03
1.570000000000000007e-01 5.606934999999999558e-01 1.068257999999999974e+01 1.521159999999999854e+02 1.456954999999999927e+03
1.580000000000000016e-01 5.606929999999999970e-01 1.049037500000000023e+01 1.521109999999999900e+02 1.456940000000000055e+03
1.590000000000000024e-01 5.606940000000000257e-01 1.031290500000000065e+01 1.521129999999999995e+02 1.456930000000000064e+03
