# t [s], A [cm^2], U [cm/s], P [cPa], c [cm/s]
1.000000000000000021e-03 6.089084999999999637e-01 3.546250000000000790e-03 9.597835000000000605e+01 1.432644999999999982e+03
2.000000000000000042e-03 6.088999999999999968e-01 -1.196120000000000169e-03 9.596214999999999407e+01 1.432639999999999873e+03
3.000000000000000062e-03 6.089275000000000659e-01 4.094865000000000310e-02 9.599869999999999948e+01 1.432650000000000091e+03
4.000000000000000083e-03 6.089820000000000233e-01 1.273528499999999897e-01 9.609720000000000084e+01 1.432680000000000064e+03
5.000000000000000104e-03 6.089984999999999982e-01 1.612335000000000018e-01 9.613760000000000616e+01 1.432695000000000164e+03
6.000000000000000125e-03 6.089634999999999909e-01 1.159578500000000012e-01 9.606180000000000518e+01 1.432679999999999836e+03
7.000000000000000146e-03 6.089139999999999553e-01 4.554049999999998377e-02 9.591169999999999618e+01 1.432644999999999982e+03
8.000000000000000167e-03 6.088694999999999524e-01 -2.153199999999999559e-02 9.572584999999999411e+01 1.432599999999999909e+03
9.000000000000001055e-03 6.088024999999999132e-01 -1.316050000000000275e-01 9.546240000000000236e+01 1.432529999999999973e+03
1.000000000000000194e-02 6.086934999999999985e-01 -3.198199999999999932e-01 9.507155000000000200e+01 1.432429999999999836e+03
1.099999999999999936e-02 6.085380000000000233e-01 -5.907499999999998863e-01 9.452665000000000362e+01 1.432295000000000073e+03
1.200000000000000025e-02 6.083274999999999100e-01 -9.527349999999999985e-01 9.379569999999999652e+01 1.432099999999999909e+03
1.300000000000000114e-02 6.080489999999999506e-01 -1.415855000000000086e+00 9.284215000000000373e+01 1.431855000000000018e+03
1.400000000000000203e-02 6.077059999999999684e-01 -1.961235000000000062e+00 9.165925000000000011e+01 1.431534999999999854e+03
1.499999999999999944e-02 6.073264999999999914e-01 -2.526365000000000194e+00 9.029619999999999891e+01 1.431170000000000073e+03
1.600000000000000033e-02 6.069515000000000882e-01 -3.023164999999999658e+00 8.884809999999998809e+01 1.430755000000000109e+03
1.700000000000000122e-02 6.066145000000000564e-01 -3.371331999999999773e+00 8.742095000000000482e+01 1.430340000000000146e+03
1.800000000000000211e-02 6.063335000000000807e-01 -3.523660499999999640e+00 8.609559999999999036e+01 1.429934999999999945e+03
1.900000000000000300e-02 6.061039999999999761e-01 -3.473803000000000196e+00 8.490905000000000769e+01 1.429549999999999955e+03
2.000000000000000042e-02 6.059090000000000309e-01 -3.249375285000000169e+00 8.385249999999999204e+01 1.429190000000000055e+03
2.100000000000000130e-02 6.057209999999999539e-01 -2.897536999999999807e+00 8.288349999999999795e+01 1.428849999999999909e+03
2.200000000000000219e-02 6.055170000000000829e-01 -2.468962499999999949e+00 8.194360000000000355e+01 1.428509999999999991e+03
2.299999999999999961e-02 6.052800000000000402e-01 -2.004329999999999945e+00 8.097745000000000459e+01 1.428164999999999964e+03
2.400000000000000050e-02 6.050050000000000150e-01 -1.526049999999999685e+00 7.994794999999999163e+01 1.427805000000000064e+03
2.500000000000000139e-02 6.046970000000000400e-01 -1.036734999999999962e+00 7.884354999999999336e+01 1.427425000000000182e+03
2.600000000000000228e-02 6.043680000000000163e-01 -5.243549999999999045e-01 7.767699999999999250e+01 1.427029999999999973e+03
2.700000000000000316e-02 6.040335000000000010e-01 2.831999999999990081e-02 7.647659999999999059e+01 1.426625000000000000e+03
2.800000000000000058e-02 6.037034999999999485e-01 6.335550000000003124e-01 7.527355000000000018e+01 1.426210000000000036e+03
2.900000000000000147e-02 6.033824999999999328e-01 1.290969999999999951e+00 7.409004999999999086e+01 1.425799999999999955e+03
3.000000000000000236e-02 6.030685000000000073e-01 1.984089999999999909e+00 7.293094999999999573e+01 1.425400000000000091e+03
3.099999999999999978e-02 6.027500000000000080e-01 2.681459999999999511e+00 7.178139999999999077e+01 1.425000000000000000e+03
3.200000000000000067e-02 6.024129999999999763e-01 3.341260000000000119e+00 7.060869999999999891e+01 1.424589999999999918e+03
3.300000000000000155e-02 6.020410000000000483e-01 3.918339999999999712e+00 6.936950000000000216e+01 1.424164999999999964e+03
3.400000000000000244e-02 6.016205000000000025e-01 4.372119999999999784e+00 6.801900000000000546e+01 1.423715000000000146e+03
3.500000000000000333e-02 6.011435000000000528e-01 4.673714999999999620e+00 6.652129999999999654e+01 1.423235000000000127e+03
3.600000000000000422e-02 6.006104999999999361e-01 4.811314999999999564e+00 6.485829999999999984e+01 1.422710000000000036e+03
3.700000000000000511e-02 6.000300000000000633e-01 4.791784999999999961e+00 6.303560000000000230e+01 1.422144999999999982e+03
3.799999999999999906e-02 5.994174999999999365e-01 4.639440000000000452e+00 6.108370000000000033e+01 1.421545000000000073e+03
3.899999999999999994e-02 5.987934999999999786e-01 4.391370000000000218e+00 5.905464999999999520e+01 1.420920000000000073e+03
4.000000000000000083e-02 5.981825000000000614e-01 4.091334999999999944e+00 5.701545000000000130e+01 1.420295000000000073e+03
4.100000000000000172e-02 5.976059999999999706e-01 3.783580000000000165e+00 5.503985000000000127e+01 1.419680000000000064e+03
4.200000000000000261e-02 5.970824999999999605e-01 3.508014999999999883e+00 5.320029999999999859e+01 1.419099999999999909e+03
4.300000000000000350e-02 5.966290000000000759e-01 3.296715000000000284e+00 5.156130000000000280e+01 1.418565000000000055e+03
4.400000000000000439e-02 5.962539999999999507e-01 3.173064999999999358e+00 5.017504999999999882e+01 1.418099999999999909e+03
4.499999999999999833e-02 5.959650000000000780e-01 3.151760000000000339e+00 4.907954999999999757e+01 1.417710000000000036e+03
4.599999999999999922e-02 5.957639999999999603e-01 3.240618500000000068e+00 4.829840000000000089e+01 1.417420000000000073e+03
4.700000000000000011e-02 5.956515000000000004e-01 3.442676500000000139e+00 4.784304999999999808e+01 1.417214999999999918e+03
4.800000000000000100e-02 5.956254999999999189e-01 3.758440000000000225e+00 4.771509999999999962e+01 1.417115000000000009e+03
4.900000000000000189e-02 5.956845000000000612e-01 4.187760000000000815e+00 4.790964999999999918e+01 1.417110000000000127e+03
5.000000000000000278e-02 5.958259999999999668e-01 4.730974999999999930e+00 4.841795000000000471e+01 1.417200000000000045e+03
5.100000000000000366e-02 5.960484999999999811e-01 5.389310000000000045e+00 4.922950000000000159e+01 1.417389999999999873e+03
5.200000000000000455e-02 5.963494999999999768e-01 6.164385000000000225e+00 5.033289999999999509e+01 1.417670000000000073e+03
5.300000000000000544e-02 5.967264999999999375e-01 7.057279999999999553e+00 5.171605000000000274e+01 1.418039999999999964e+03
5.399999999999999939e-02 5.971769999999999579e-01 8.067310000000000869e+00 5.336549999999999727e+01 1.418490000000000009e+03
5.500000000000000028e-02 5.976960000000000051e-01 9.190850000000001074e+00 5.526534999999999798e+01 1.419030000000000200e+03
5.600000000000000117e-02 5.982785000000000464e-01 1.042075499999999977e+01 5.739649999999999608e+01 1.419639999999999873e+03
5.700000000000000205e-02 5.989174999999999915e-01 1.174599500000000063e+01 5.973590000000000089e+01 1.420324999999999818e+03
5.800000000000000294e-02 5.996034999999999560e-01 1.315179499999999990e+01 6.225654999999999717e+01 1.421065000000000055e+03
5.900000000000000383e-02 6.003290000000000015e-01 1.462076499999999868e+01 6.492815000000000225e+01 1.421860000000000127e+03
6.000000000000000472e-02 6.010824999999999640e-01 1.613352499999999878e+01 6.771790000000000020e+01 1.422700000000000045e+03
6.099999999999999867e-02 6.018554999999999877e-01 1.767008500000000026e+01 7.059229999999999450e+01 1.423575000000000045e+03
6.199999999999999956e-02 6.026394999999999946e-01 1.921105000000000018e+01 7.351824999999999477e+01 1.424470000000000027e+03
6.300000000000000044e-02 6.034254999999999480e-01 2.073850000000000193e+01 7.646505000000000507e+01 1.425384999999999991e+03
6.400000000000000133e-02 6.042069999999999386e-01 2.223695000000000022e+01 7.940540000000000020e+01 1.426309999999999945e+03
6.500000000000000222e-02 6.049795000000000034e-01 2.369369999999999976e+01 8.231659999999999400e+01 1.427235000000000127e+03
6.600000000000000311e-02 6.057384999999999575e-01 2.509915000000000163e+01 8.518115000000000236e+01 1.428154999999999973e+03
6.700000000000000400e-02 6.064825000000000355e-01 2.644664999999999822e+01 8.798690000000000566e+01 1.429059999999999945e+03
6.800000000000000488e-02 6.072104999999999864e-01 2.773219999999999885e+01 9.072704999999999131e+01 1.429945000000000164e+03
6.900000000000000577e-02 6.079224999999999213e-01 2.895424999999999827e+01 9.339885000000001014e+01 1.430819999999999936e+03
7.000000000000000666e-02 6.086190000000000211e-01 3.011305000000000121e+01 9.600450000000000728e+01 1.431680000000000064e+03
7.100000000000000755e-02 6.093030000000000390e-01 3.121034999999999826e+01 9.854840000000000089e+01 1.432519999999999982e+03
7.200000000000000844e-02 6.099760000000000737e-01 3.224864999999999782e+01 1.010378499999999917e+02 1.433349999999999909e+03
7.300000000000000933e-02 6.106400000000000716e-01 3.323125000000000284e+01 1.034803500000000014e+02 1.434164999999999964e+03
7.399999999999999634e-02 6.112969999999999793e-01 3.416129999999999711e+01 1.058844500000000011e+02 1.434965000000000146e+03
7.499999999999999722e-02 6.119490000000000762e-01 3.504180000000000206e+01 1.082574999999999932e+02 1.435759999999999991e+03
7.599999999999999811e-02 6.125970000000000582e-01 3.587525000000000119e+01 1.106075000000000017e+02 1.436545000000000073e+03
7.699999999999999900e-02 6.132409999999999251e-01 3.666335000000000122e+01 1.129364999999999952e+02 1.437325000000000045e+03
7.799999999999999989e-02 6.138824999999999976e-01 3.740685000000000571e+01 1.152479999999999905e+02 1.438099999999999909e+03
7.900000000000000078e-02 6.145199999999999552e-01 3.810545000000000471e+01 1.175409999999999968e+02 1.438865000000000009e+03
8.000000000000000167e-02 6.151515000000000732e-01 3.875780000000000314e+01 1.198120000000000118e+02 1.439625000000000000e+03
8.100000000000000255e-02 6.157755000000000312e-01 3.936140000000000327e+01 1.220550000000000068e+02 1.440380000000000109e+03
8.200000000000000344e-02 6.163890000000000757e-01 3.991320000000000334e+01 1.242609999999999957e+02 1.441125000000000000e+03
8.300000000000000433e-02 6.169890000000000096e-01 4.040930000000000177e+01 1.264200000000000017e+02 1.441849999999999909e+03
8.400000000000000522e-02 6.175720000000000098e-01 4.084544999999999959e+01 1.285204999999999984e+02 1.442565000000000055e+03
8.500000000000000611e-02 6.181345000000000312e-01 4.121739999999999782e+01 1.305484999999999900e+02 1.443255000000000109e+03
8.600000000000000699e-02 6.186724999999999586e-01 4.152110000000000412e+01 1.324925000000000068e+02 1.443920000000000073e+03
8.700000000000000788e-02 6.191839999999999566e-01 4.175284999999999513e+01 1.343385000000000105e+02 1.444555000000000064e+03
8.800000000000000877e-02 6.196650000000000214e-01 4.190954999999999586e+01 1.360769999999999982e+02 1.445164999999999964e+03
8.899999999999999578e-02 6.201129999999999143e-01 4.198904999999999887e+01 1.376965000000000146e+02 1.445730000000000018e+03
8.999999999999999667e-02 6.205270000000000508e-01 4.198995000000000033e+01 1.391899999999999977e+02 1.446259999999999991e+03
9.099999999999999756e-02 6.209044999999999703e-01 4.191204999999999359e+01 1.405495000000000232e+02 1.446750000000000000e+03
9.199999999999999845e-02 6.212444999999999773e-01 4.175584999999999525e+01 1.417729999999999961e+02 1.447195000000000164e+03
9.299999999999999933e-02 6.215485000000000593e-01 4.152329999999999899e+01 1.428580000000000041e+02 1.447599999999999909e+03
9.400000000000000022e-02 6.218150000000000066e-01 4.121699999999999875e+01 1.438050000000000068e+02 1.447954999999999927e+03
9.500000000000000111e-02 6.220459999999999878e-01 4.084064999999999657e+01 1.446159999999999854e+02 1.448269999999999982e+03
9.600000000000000200e-02 6.222425000000000317e-01 4.039900000000000091e+01 1.452975000000000136e+02 1.448539999999999964e+03
9.700000000000000289e-02 6.224060000000000148e-01 3.989750000000000085e+01 1.458549999999999898e+02 1.448769999999999982e+03
9.800000000000000377e-02 6.225389999999999535e-01 3.934229999999999450e+01 1.462969999999999970e+02 1.448965000000000146e+03
9.900000000000000466e-02 6.226445000000000451e-01 3.874025000000000318e+01 1.466324999999999932e+02 1.449115000000000009e+03
1.000000000000000056e-01 6.227255000000000429e-01 3.809864999999999924e+01 1.468729999999999905e+02 1.449240000000000009e+03
1.010000000000000064e-01 6.227845000000000741e-01 3.742520000000000380e+01 1.470300000000000011e+02 1.449325000000000045e+03
1.020000000000000073e-01 6.228249999999999620e-01 3.672755000000000081e+01 1.471154999999999973e+02 1.449389999999999873e+03
1.030000000000000082e-01 6.228500000000000147e-01 3.601350000000000051e+01 1.471415000000000077e+02 1.449429999999999836e+03
1.040000000000000091e-01 6.228624999999999856e-01 3.529039999999999822e+01 1.471204999999999927e+02 1.449454999999999927e+03
1.050000000000000100e-01 6.228659999999999197e-01 3.456534999999999513e+01 1.470629999999999882e+02 1.449460000000000036e+03
1.059999999999999970e-01 6.228624999999999856e-01 3.384445000000000192e+01 1.469799999999999898e+02 1.449449999999999818e+03
1.069999999999999979e-01 6.228549999999999365e-01 3.313329999999999842e+01 1.468815000000000168e+02 1.449440000000000055e+03
1.079999999999999988e-01 6.228449999999999820e-01 3.243614999999999782e+01 1.467750000000000057e+02 1.449414999999999964e+03
1.089999999999999997e-01 6.228344999999999576e-01 3.175645000000000095e+01 1.466664999999999850e+02 1.449389999999999873e+03
1.100000000000000006e-01 6.228230000000000155e-01 3.109624999999999773e+01 1.465604999999999905e+02 1.449365000000000009e+03
1.110000000000000014e-01 6.228119999999999212e-01 3.045649999999999835e+01 1.464590000000000032e+02 1.449335000000000036e+03
1.120000000000000023e-01 6.228015000000000079e-01 2.983709999999999951e+01 1.463639999999999759e+02 1.449304999999999836e+03
1.130000000000000032e-01 6.227899999999999547e-01 2.923675000000000068e+01 1.462725000000000080e+02 1.449275000000000091e+03
1.140000000000000041e-01 6.227774999999999839e-01 2.865339999999999776e+01 1.461834999999999809e+02 1.449244999999999891e+03
1.150000000000000050e-01 6.227624999999999966e-01 2.808409999999999940e+01 1.460925000000000011e+02 1.449215000000000146e+03
1.160000000000000059e-01 6.227435000000000054e-01 2.752544999999999931e+01 1.459954999999999927e+02 1.449180000000000064e+03
1.170000000000000068e-01 6.227199999999999402e-01 2.697364999999999924e+01 1.458849999999999909e+02 1.449144999999999982e+03
1.180000000000000077e-01 6.226884999999999781e-01 2.642475000000000307e+01 1.457570000000000050e+02 1.449105000000000018e+03
1.190000000000000085e-01 6.226495000000000779e-01 2.587490000000000023e+01 1.456050000000000182e+02 1.449050000000000182e+03
1.200000000000000094e-01 6.226005000000000011e-01 2.532034999999999769e+01 1.454240000000000066e+02 1.448994999999999891e+03
1.209999999999999964e-01 6.225405000000000522e-01 2.475769999999999982e+01 1.452079999999999984e+02 1.448929999999999836e+03
1.219999999999999973e-01 6.224695000000000089e-01 2.418410000000000082e+01 1.449549999999999841e+02 1.448849999999999909e+03
1.229999999999999982e-01 6.223859999999999948e-01 2.359740000000000038e+01 1.446599999999999966e+02 1.448759999999999991e+03
1.239999999999999991e-01 6.222910000000000386e-01 2.299600000000000222e+01 1.443224999999999909e+02 1.448655000000000200e+03
1.250000000000000000e-01 6.221830000000000416e-01 2.237924999999999898e+01 1.439424999999999955e+02 1.448539999999999964e+03
1.260000000000000009e-01 6.220635000000001025e-01 2.174710000000000321e+01 1.435200000000000102e+02 1.448409999999999854e+03
1.270000000000000018e-01 6.219334999999999170e-01 2.110054999999999836e+01 1.430584999999999809e+02 1.448264999999999873e+03
1.280000000000000027e-01 6.217934999999999990e-01 2.044125000000000014e+01 1.425609999999999786e+02 1.448115000000000009e+03
1.290000000000000036e-01 6.216464999999999907e-01 1.977165000000000106e+01 1.420330000000000155e+02 1.447950000000000045e+03
1.300000000000000044e-01 6.214930000000000732e-01 1.909495000000000076e+01 1.414800000000000182e+02 1.447779999999999973e+03
1.310000000000000053e-01 6.213355000000000405e-01 1.841489999999999938e+01 1.409094999999999800e+02 1.447599999999999909e+03
1.320000000000000062e-01 6.211759999999999504e-01 1.773570000000000135e+01 1.403299999999999841e+02 1.447414999999999964e+03
1.330000000000000071e-01 6.210180000000000700e-01 1.706184999999999974e+01 1.397479999999999905e+02 1.447230000000000018e+03
1.340000000000000080e-01 6.208624999999999838e-01 1.639829999999999899e+01 1.391740000000000066e+02 1.447045000000000073e+03
1.350000000000000089e-01 6.207120000000000415e-01 1.574980000000000047e+01 1.386150000000000091e+02 1.446865000000000009e+03
1.360000000000000098e-01 6.205690000000000373e-01 1.512110000000000021e+01 1.380794999999999959e+02 1.446684999999999945e+03
1.370000000000000107e-01 6.204365000000000574e-01 1.451679999999999993e+01 1.375759999999999934e+02 1.446519999999999982e+03
1.380000000000000115e-01 6.203145000000001019e-01 1.394095000000000084e+01 1.371109999999999900e+02 1.446365000000000009e+03
1.390000000000000124e-01 6.202054999999999652e-01 1.339721500000000098e+01 1.366904999999999859e+02 1.446220000000000027e+03
1.400000000000000133e-01 6.201099999999999390e-01 1.288865999999999978e+01 1.363195000000000050e+02 1.446090000000000146e+03
1.410000000000000142e-01 6.200304999999999289e-01 1.241752999999999929e+01 1.360020000000000095e+02 1.445974999999999909e+03
1.420000000000000151e-01 6.199654999999999472e-01 1.198549999999999827e+01 1.357394999999999925e+02 1.445880000000000109e+03
1.430000000000000160e-01 6.199159999999999116e-01 1.159326000000000079e+01 1.355335000000000036e+02 1.445800000000000182e+03
1.440000000000000169e-01 6.198814999999999742e-01 1.124093000000000053e+01 1.353829999999999814e+02 1.445730000000000018e+03
1.450000000000000178e-01 6.198615000000000652e-01 1.092773500000000020e+01 1.352870000000000061e+02 1.445684999999999945e+03
1.459999999999999909e-01 6.198539999999999051e-01 1.065221499999999999e+01 1.352420000000000186e+02 1.445655000000000200e+03
1.469999999999999918e-01 6.198599999999999666e-01 1.041242500000000071e+01 1.352445000000000164e+02 1.445639999999999873e+03
1.479999999999999927e-01 6.198759999999999826e-01 1.020570999999999984e+01 1.352889999999999873e+02 1.445634999999999991e+03
1.489999999999999936e-01 6.199014999999999942e-01 1.002913500000000013e+01 1.353704999999999927e+02 1.445650000000000091e+03
1.499999999999999944e-01 6.199345000000000550e-01 9.879460000000001685e+00 1.354825000000000159e+02 1.445670000000000073e+03
1.509999999999999953e-01 6.199734999999999552e-01 9.753315000000000623e+00 1.356200000000000045e+02 1.445700000000000045e+03
1.519999999999999962e-01 6.200164999999999704e-01 9.647165000000001100e+00 1.357749999999999773e+02 1.445740000000000009e+03
1.529999999999999971e-01 6.200624999999999609e-01 9.557649999999998869e+00 1.359435000000000002e+02 1.445779999999999973e+03
1.539999999999999980e-01 6.201095000000000912e-01 9.481445000000000789e+00 1.361185000000000116e+02 1.445829999999999927e+03
1.549999999999999989e-01 6.201570000000000693e-01 9.415509999999999380e+00 1.362955000000000041e+02 1.445880000000000109e+03
1.559999999999999998e-01 6.202035000000000187e-01 9.357134999999999536e+00 1.364710000000000036e+02 1.445929999999999836e+03
1.570000000000000007e-01 6.202479999999999105e-01 9.303789999999999338e+00 1.366409999999999911e+02 1.445980000000000018e+03
1.580000000000000016e-01 6.202894999999999381e-01 9.253454999999998876e+00 1.368014999999999759e+02 1.446029999999999973e+03
1.590000000000000024e-01 6.203290000000000193e-01 9.204364999999999242e+00 1.369519999999999982e+02 1.446075000000000045e+03
