# t [s], A [cm^2], U [cm/s], P [cPa], c [cm/s]
1.000000000000000021e-03 7.009624999999999329e-01 5.337500000000001965e-03 1.060575000000000045e+02 1.754059999999999945e+03
2.000000000000000042e-03 7.009579999999999700e-01 1.120389999999999928e-02 1.060335000000000036e+02 1.754054999999999836e+03
3.000000000000000062e-03 7.010400000000001075e-01 1.583018499999999940e-01 1.062104999999999961e+02 1.754095000000000027e+03
4.000000000000000083e-03 7.010644999999999794e-01 2.247569999999999846e-01 1.062895000000000039e+02 1.754115000000000009e+03
5.000000000000000104e-03 7.009910000000000307e-01 1.238965000000000205e-01 1.060699999999999932e+02 1.754070000000000164e+03
6.000000000000000125e-03 7.009104999999999919e-01 -1.889499999999988411e-03 1.057040000000000077e+02 1.754000000000000000e+03
7.000000000000000146e-03 7.008060000000000400e-01 -1.839699999999999669e-01 1.051844999999999999e+02 1.753900000000000091e+03
8.000000000000000167e-03 7.006164999999999754e-01 -5.371900000000000563e-01 1.043379999999999939e+02 1.753735000000000127e+03
9.000000000000001055e-03 7.003359999999999586e-01 -1.068015000000000159e+00 1.030923499999999962e+02 1.753494999999999891e+03
1.000000000000000194e-02 6.999429999999999819e-01 -1.797900000000000276e+00 1.013579000000000008e+02 1.753150000000000091e+03
1.099999999999999936e-02 6.994214999999999183e-01 -2.730735000000000134e+00 9.906055000000000632e+01 1.752684999999999945e+03
1.200000000000000025e-02 6.988240000000000007e-01 -3.736650000000000471e+00 9.631940000000000168e+01 1.752119999999999891e+03
1.300000000000000114e-02 6.982595000000000329e-01 -4.578329000000000093e+00 9.346690000000000964e+01 1.751509999999999991e+03
1.400000000000000203e-02 6.978140000000000454e-01 -5.049366999999999273e+00 9.087030000000000030e+01 1.750920000000000073e+03
1.499999999999999944e-02 6.975099999999999634e-01 -5.075244999999999784e+00 8.874950000000001182e+01 1.750404999999999973e+03
1.600000000000000033e-02 6.973044999999999938e-01 -4.720299999999999940e+00 8.710669999999998936e+01 1.749970000000000027e+03
1.700000000000000122e-02 6.971240000000000769e-01 -4.131899999999999906e+00 8.576959999999999695e+01 1.749589999999999918e+03
1.800000000000000211e-02 6.969004999999999228e-01 -3.465780000000000083e+00 8.449465000000000714e+01 1.749224999999999909e+03
1.900000000000000300e-02 6.965974999999999806e-01 -2.823588439999999977e+00 8.307869999999999777e+01 1.748845000000000027e+03
2.000000000000000042e-02 6.962200000000000610e-01 -2.225254999999999761e+00 8.143494999999998640e+01 1.748425000000000182e+03
2.100000000000000130e-02 6.958024999999999904e-01 -1.625694999999999890e+00 7.960150000000000148e+01 1.747965000000000146e+03
2.200000000000000219e-02 6.953849999999999199e-01 -9.625099999999999767e-01 7.768680000000000518e+01 1.747494999999999891e+03
2.299999999999999961e-02 6.949894999999999268e-01 -2.056949999999999612e-01 7.579050000000000864e+01 1.747019999999999982e+03
2.400000000000000050e-02 6.946094999999999908e-01 6.142300000000000537e-01 7.393980000000000530e+01 1.746539999999999964e+03
2.500000000000000139e-02 6.942120000000000513e-01 1.406449999999999978e+00 7.206450000000000955e+01 1.746065000000000055e+03
2.600000000000000228e-02 6.937474999999999614e-01 2.043120000000000491e+00 7.001300000000000523e+01 1.745555000000000064e+03
2.700000000000000316e-02 6.931700000000000639e-01 2.395479999999999610e+00 6.759865000000000634e+01 1.744974999999999909e+03
2.800000000000000058e-02 6.924485000000000223e-01 2.371639999999999748e+00 6.466200000000000614e+01 1.744300000000000182e+03
2.900000000000000147e-02 6.915824999999999889e-01 1.944720000000000226e+00 6.112904999999999944e+01 1.743505000000000109e+03
3.000000000000000236e-02 6.906030000000000779e-01 1.161649999999999849e+00 5.704509999999999792e+01 1.742599999999999909e+03
3.099999999999999978e-02 6.895634999999999959e-01 1.303499999999999659e-01 5.257469999999999999e+01 1.741609999999999900e+03
3.200000000000000067e-02 6.885314999999999630e-01 -1.008050000000000779e+00 4.796784999999999854e+01 1.740579999999999927e+03
3.300000000000000155e-02 6.875709999999999322e-01 -2.110674999999999635e+00 4.351044999999999874e+01 1.739565000000000055e+03
3.400000000000000244e-02 6.867349999999999843e-01 -3.057559999999999611e+00 3.947384999999999877e+01 1.738619999999999891e+03
3.500000000000000333e-02 6.860584999999999045e-01 -3.764519999999999644e+00 3.607750000000000057e+01 1.737789999999999964e+03
3.600000000000000422e-02 6.855599999999999472e-01 -4.184905000000000541e+00 3.346909999999999741e+01 1.737119999999999891e+03
3.700000000000000511e-02 6.852424999999999766e-01 -4.303276000000000323e+00 3.172240000000000038e+01 1.736630000000000109e+03
3.799999999999999906e-02 6.851009999999999600e-01 -4.124274999999999913e+00 3.084810000000000230e+01 1.736325000000000045e+03
3.899999999999999994e-02 6.851240000000000663e-01 -3.661534999999999762e+00 3.081274999999999764e+01 1.736214999999999918e+03
4.000000000000000083e-02 6.852989999999999915e-01 -2.929307500000000175e+00 3.155874999999999631e+01 1.736284999999999854e+03
4.100000000000000172e-02 6.856150000000000855e-01 -1.938935000000000075e+00 3.301955000000000240e+01 1.736515000000000100e+03
4.200000000000000261e-02 6.860615000000001018e-01 -7.000299999999999301e-01 3.512785000000000224e+01 1.736909999999999854e+03
4.300000000000000350e-02 6.866265000000000285e-01 7.751300000000003187e-01 3.781600000000000250e+01 1.737440000000000055e+03
4.400000000000000439e-02 6.872964999999999769e-01 2.466544999999999543e+00 4.101230000000000331e+01 1.738099999999999909e+03
4.499999999999999833e-02 6.880535000000000956e-01 4.342954999999999899e+00 4.463595000000000113e+01 1.738864999999999782e+03
4.599999999999999922e-02 6.888760000000000439e-01 6.361379999999999590e+00 4.859434999999999860e+01 1.739715000000000146e+03
4.700000000000000011e-02 6.897409999999999375e-01 8.469124499999999500e+00 5.278374999999999773e+01 1.740639999999999873e+03
4.800000000000000100e-02 6.906235000000000568e-01 1.060865500000000061e+01 5.709414999999999907e+01 1.741599999999999909e+03
4.900000000000000189e-02 6.915000000000000036e-01 1.272278999999999982e+01 6.141684999999999661e+01 1.742579999999999927e+03
5.000000000000000278e-02 6.923515000000000086e-01 1.476002000000000081e+01 6.565250000000000341e+01 1.743554999999999836e+03
5.100000000000000366e-02 6.931620000000000559e-01 1.667866500000000229e+01 6.971920000000000073e+01 1.744514999999999873e+03
5.200000000000000455e-02 6.939224999999999977e-01 1.844910000000000139e+01 7.355764999999999532e+01 1.745424999999999955e+03
5.300000000000000544e-02 6.946295000000000108e-01 2.005454999999999899e+01 7.713394999999999868e+01 1.746300000000000182e+03
5.399999999999999939e-02 6.952840000000000131e-01 2.149005000000000010e+01 8.043965000000000032e+01 1.747115000000000009e+03
5.500000000000000028e-02 6.958910000000000373e-01 2.276095000000000113e+01 8.348859999999999104e+01 1.747875000000000000e+03
5.600000000000000117e-02 6.964589999999999392e-01 2.388040000000000163e+01 8.631334999999999980e+01 1.748590000000000146e+03
5.700000000000000205e-02 6.969984999999999653e-01 2.486744999999999806e+01 8.895969999999999800e+01 1.749259999999999991e+03
5.800000000000000294e-02 6.975209999999999466e-01 2.574465000000000003e+01 9.148179999999999268e+01 1.749904999999999973e+03
5.900000000000000383e-02 6.980374999999999774e-01 2.653650000000000020e+01 9.393670000000000186e+01 1.750529999999999973e+03
6.000000000000000472e-02 6.985590000000000410e-01 2.726705000000000112e+01 9.637985000000000468e+01 1.751144999999999982e+03
6.099999999999999867e-02 6.990939999999999932e-01 2.795844999999999914e+01 9.885984999999999445e+01 1.751765000000000100e+03
6.199999999999999956e-02 6.996504999999999530e-01 2.862910000000000110e+01 1.014155999999999977e+02 1.752394999999999982e+03
6.300000000000000044e-02 7.002304999999999779e-01 2.929214999999999947e+01 1.040724999999999909e+02 1.753045000000000073e+03
6.400000000000000133e-02 7.008354999999999446e-01 2.995449999999999946e+01 1.068395000000000010e+02 1.753715000000000146e+03
6.500000000000000222e-02 7.014614999999999601e-01 3.061610000000000298e+01 1.097090000000000032e+02 1.754409999999999854e+03
6.600000000000000311e-02 7.021030000000000326e-01 3.127060000000000173e+01 1.126579999999999870e+02 1.755119999999999891e+03
6.700000000000000400e-02 7.027495000000000269e-01 3.190585000000000093e+01 1.156479999999999961e+02 1.755840000000000146e+03
6.800000000000000488e-02 7.033910000000000995e-01 3.250554999999999950e+01 1.186315000000000026e+02 1.756565000000000055e+03
6.900000000000000577e-02 7.040155000000000163e-01 3.305100000000000193e+01 1.215534999999999997e+02 1.757279999999999973e+03
7.000000000000000666e-02 7.046109999999999873e-01 3.352275000000000205e+01 1.243574999999999875e+02 1.757965000000000146e+03
7.100000000000000755e-02 7.051665000000000294e-01 3.390200000000000102e+01 1.269869999999999948e+02 1.758619999999999891e+03
7.200000000000000844e-02 7.056724999999999248e-01 3.417265000000000441e+01 1.293949999999999818e+02 1.759230000000000018e+03
7.300000000000000933e-02 7.061209999999999987e-01 3.432160000000000366e+01 1.315394999999999754e+02 1.759775000000000091e+03
7.399999999999999634e-02 7.065080000000000249e-01 3.434005000000000507e+01 1.333910000000000196e+02 1.760264999999999873e+03
7.499999999999999722e-02 7.068290000000000406e-01 3.422390000000000043e+01 1.349320000000000164e+02 1.760680000000000064e+03
7.599999999999999811e-02 7.070855000000000334e-01 3.397355000000000302e+01 1.361560000000000059e+02 1.761019999999999982e+03
7.699999999999999900e-02 7.072780000000000733e-01 3.359425000000000239e+01 1.370709999999999980e+02 1.761295000000000073e+03
7.799999999999999989e-02 7.074119999999999298e-01 3.309564999999999912e+01 1.376924999999999955e+02 1.761500000000000000e+03
7.900000000000000078e-02 7.074925000000000797e-01 3.249125000000000085e+01 1.380489999999999782e+02 1.761639999999999873e+03
8.000000000000000167e-02 7.075274999999999759e-01 3.179779999999999873e+01 1.381734999999999900e+02 1.761720000000000027e+03
8.100000000000000255e-02 7.075260000000000993e-01 3.103439999999999799e+01 1.381075000000000159e+02 1.761744999999999891e+03
8.200000000000000344e-02 7.074955000000000549e-01 3.022175000000000011e+01 1.378940000000000055e+02 1.761735000000000127e+03
8.300000000000000433e-02 7.074469999999999370e-01 2.938070000000000093e+01 1.375774999999999864e+02 1.761699999999999818e+03
8.400000000000000522e-02 7.073880000000000168e-01 2.853179999999999694e+01 1.372035000000000196e+02 1.761634999999999991e+03
8.500000000000000611e-02 7.073270000000000390e-01 2.769364999999999810e+01 1.368095000000000141e+02 1.761565000000000055e+03
8.600000000000000699e-02 7.072700000000000653e-01 2.688234999999999886e+01 1.364309999999999832e+02 1.761490000000000009e+03
8.700000000000000788e-02 7.072220000000000173e-01 2.611080000000000112e+01 1.360955000000000155e+02 1.761414999999999964e+03
8.800000000000000877e-02 7.071874999999999689e-01 2.538785000000000025e+01 1.358220000000000027e+02 1.761355000000000018e+03
8.899999999999999578e-02 7.071665000000000312e-01 2.471835000000000093e+01 1.356220000000000141e+02 1.761304999999999836e+03
8.999999999999999667e-02 7.071589999999999820e-01 2.410309999999999775e+01 1.354954999999999927e+02 1.761269999999999982e+03
9.099999999999999756e-02 7.071635000000000559e-01 2.353880000000000194e+01 1.354370000000000118e+02 1.761250000000000000e+03
9.199999999999999845e-02 7.071760000000000268e-01 2.301890000000000214e+01 1.354329999999999927e+02 1.761234999999999900e+03
9.299999999999999933e-02 7.071929999999999605e-01 2.253395000000000081e+01 1.354625000000000057e+02 1.761235000000000127e+03
9.400000000000000022e-02 7.072085000000000177e-01 2.207260000000000133e+01 1.355024999999999977e+02 1.761235000000000127e+03
9.500000000000000111e-02 7.072169999999999845e-01 2.162209999999999965e+01 1.355249999999999773e+02 1.761234999999999900e+03
9.600000000000000200e-02 7.072129999999999805e-01 2.116929999999999978e+01 1.355035000000000025e+02 1.761224999999999909e+03
9.700000000000000289e-02 7.071910000000000140e-01 2.070165000000000077e+01 1.354114999999999895e+02 1.761204999999999927e+03
9.800000000000000377e-02 7.071469999999999700e-01 2.020775000000000077e+01 1.352245000000000061e+02 1.761164999999999964e+03
9.900000000000000466e-02 7.070775000000000254e-01 1.967824999999999847e+01 1.349250000000000114e+02 1.761094999999999800e+03
1.000000000000000056e-01 7.069799999999999418e-01 1.910629999999999740e+01 1.344989999999999952e+02 1.761005000000000109e+03
1.010000000000000064e-01 7.068544999999999412e-01 1.848819999999999908e+01 1.339389999999999930e+02 1.760884999999999991e+03
1.020000000000000073e-01 7.067004999999999537e-01 1.782349999999999923e+01 1.332454999999999927e+02 1.760735000000000127e+03
1.030000000000000082e-01 7.065209999999999546e-01 1.711520000000000152e+01 1.324254999999999995e+02 1.760555000000000064e+03
1.040000000000000091e-01 7.063194999999999890e-01 1.636955000000000027e+01 1.314939999999999998e+02 1.760349999999999909e+03
1.050000000000000100e-01 7.060999999999999499e-01 1.559585000000000043e+01 1.304710000000000036e+02 1.760119999999999891e+03
1.059999999999999970e-01 7.058695000000000386e-01 1.480587000000000053e+01 1.293815000000000168e+02 1.759875000000000000e+03
1.069999999999999979e-01 7.056339999999999835e-01 1.401315500000000114e+01 1.282570000000000050e+02 1.759619999999999891e+03
1.079999999999999988e-01 7.054000000000000270e-01 1.323251499999999936e+01 1.271285000000000025e+02 1.759355000000000018e+03
1.089999999999999997e-01 7.051745000000000374e-01 1.247890499999999925e+01 1.260280000000000058e+02 1.759099999999999909e+03
1.100000000000000006e-01 7.049635000000000762e-01 1.176697500000000041e+01 1.249875000000000114e+02 1.758849999999999909e+03
1.110000000000000014e-01 7.047730000000000938e-01 1.110996000000000095e+01 1.240354999999999990e+02 1.758615000000000009e+03
1.120000000000000023e-01 7.046075000000000532e-01 1.051921499999999909e+01 1.231965000000000003e+02 1.758404999999999973e+03
1.130000000000000032e-01 7.044710000000000694e-01 1.000354499999999902e+01 1.224884999999999877e+02 1.758220000000000027e+03
1.140000000000000041e-01 7.043645000000000600e-01 9.568905000000000882e+00 1.219250000000000114e+02 1.758069999999999936e+03
1.150000000000000050e-01 7.042895000000000127e-01 9.218075000000000685e+00 1.215120000000000005e+02 1.757949999999999818e+03
1.160000000000000059e-01 7.042450000000000099e-01 8.950890000000001123e+00 1.212485000000000070e+02 1.757865000000000009e+03
1.170000000000000068e-01 7.042284999999999240e-01 8.764089999999999492e+00 1.211274999999999977e+02 1.757809999999999945e+03
1.180000000000000077e-01 7.042375000000000718e-01 8.651749999999999829e+00 1.211370000000000005e+02 1.757789999999999964e+03
1.190000000000000085e-01 7.042694999999999927e-01 8.605924999999999159e+00 1.212595000000000027e+02 1.757795000000000073e+03
1.200000000000000094e-01 7.043174999999999297e-01 8.616894999999999527e+00 1.214755000000000109e+02 1.757824999999999818e+03
1.209999999999999964e-01 7.043790000000000884e-01 8.673880000000000479e+00 1.217620000000000005e+02 1.757869999999999891e+03
1.219999999999999973e-01 7.044479999999999631e-01 8.765589999999999549e+00 1.220974999999999966e+02 1.757934999999999945e+03
1.229999999999999982e-01 7.045204999999999940e-01 8.880734999999999602e+00 1.224590000000000032e+02 1.758000000000000000e+03
1.239999999999999991e-01 7.045930000000000248e-01 9.008535000000000181e+00 1.228255000000000052e+02 1.758079999999999927e+03
1.250000000000000000e-01 7.046615000000000517e-01 9.139124999999999943e+00 1.231790000000000020e+02 1.758155000000000200e+03
1.260000000000000009e-01 7.047229999999999883e-01 9.263860000000001094e+00 1.235045000000000073e+02 1.758224999999999909e+03
1.270000000000000018e-01 7.047749999999999293e-01 9.375560000000000116e+00 1.237900000000000063e+02 1.758284999999999854e+03
1.280000000000000027e-01 7.048175000000000967e-01 9.468730000000000757e+00 1.240270000000000010e+02 1.758345000000000027e+03
1.290000000000000036e-01 7.048484999999999889e-01 9.539470000000001448e+00 1.242125000000000057e+02 1.758389999999999873e+03
1.300000000000000044e-01 7.048695000000000377e-01 9.585519999999998930e+00 1.243439999999999941e+02 1.758430000000000064e+03
1.310000000000000053e-01 7.048799999999999510e-01 9.606335000000001401e+00 1.244234999999999900e+02 1.758454999999999927e+03
1.320000000000000062e-01 7.048815000000000497e-01 9.602729999999999322e+00 1.244575000000000102e+02 1.758470000000000027e+03
1.330000000000000071e-01 7.048760000000000581e-01 9.576819999999999666e+00 1.244509999999999934e+02 1.758469999999999800e+03
1.340000000000000080e-01 7.048650000000000748e-01 9.531779999999999475e+00 1.244139999999999873e+02 1.758470000000000027e+03
1.350000000000000089e-01 7.048510000000000053e-01 9.471545000000000769e+00 1.243559999999999945e+02 1.758465000000000146e+03
1.360000000000000098e-01 7.048360000000000181e-01 9.400479999999999947e+00 1.242860000000000014e+02 1.758454999999999927e+03
1.370000000000000107e-01 7.048209999999999198e-01 9.323270000000000834e+00 1.242160000000000082e+02 1.758440000000000055e+03
1.380000000000000115e-01 7.048090000000000188e-01 9.244489999999998986e+00 1.241535000000000082e+02 1.758430000000000064e+03
1.390000000000000124e-01 7.048019999999999285e-01 9.168449999999999989e+00 1.241069999999999993e+02 1.758420000000000073e+03
1.400000000000000133e-01 7.047995000000000232e-01 9.098779999999999646e+00 1.240835000000000008e+02 1.758414999999999964e+03
1.410000000000000142e-01 7.048034999999999162e-01 9.038460000000000605e+00 1.240875000000000057e+02 1.758414999999999964e+03
1.420000000000000151e-01 7.048140000000000516e-01 8.989584999999999937e+00 1.241214999999999975e+02 1.758420000000000073e+03
1.430000000000000160e-01 7.048309999999999853e-01 8.953224999999999767e+00 1.241860000000000070e+02 1.758434999999999945e+03
1.440000000000000169e-01 7.048544999999999394e-01 8.929595000000000837e+00 1.242804999999999893e+02 1.758454999999999927e+03
1.450000000000000178e-01 7.048825000000000784e-01 8.918025000000000091e+00 1.243995000000000033e+02 1.758480000000000018e+03
1.459999999999999909e-01 7.049140000000000406e-01 8.917099999999999582e+00 1.245399999999999920e+02 1.758515000000000100e+03
1.469999999999999918e-01 7.049490000000000478e-01 8.924834999999999852e+00 1.246955000000000098e+02 1.758545000000000073e+03
1.479999999999999927e-01 7.049845000000000139e-01 8.938800000000000523e+00 1.248589999999999947e+02 1.758585000000000036e+03
1.489999999999999936e-01 7.050205000000000499e-01 8.956419999999999604e+00 1.250244999999999891e+02 1.758619999999999891e+03
1.499999999999999944e-01 7.050540000000000695e-01 8.975134999999999863e+00 1.251850000000000023e+02 1.758659999999999854e+03
1.509999999999999953e-01 7.050855000000000317e-01 8.992509999999999337e+00 1.253350000000000080e+02 1.758690000000000055e+03
1.519999999999999962e-01 7.051129999999999898e-01 9.006550000000000722e+00 1.254689999999999941e+02 1.758724999999999909e+03
1.529999999999999971e-01 7.051370000000000138e-01 9.015634999999999621e+00 1.255854999999999961e+02 1.758750000000000000e+03
1.539999999999999980e-01 7.051560000000000050e-01 9.018705000000000638e+00 1.256810000000000116e+02 1.758775000000000091e+03
1.549999999999999989e-01 7.051704999999999224e-01 9.015264999999999418e+00 1.257554999999999978e+02 1.758800000000000182e+03
1.559999999999999998e-01 7.051810000000000578e-01 9.005304999999999893e+00 1.258100000000000023e+02 1.758809999999999945e+03
1.570000000000000007e-01 7.051880000000000370e-01 8.989539999999999864e+00 1.258470000000000084e+02 1.758825000000000045e+03
1.580000000000000016e-01 7.051920000000000410e-01 8.968960000000000932e+00 1.258695000000000022e+02 1.758829999999999927e+03
1.590000000000000024e-01 7.051944999999999464e-01 8.945135000000000502e+00 1.258830000000000098e+02 1.758835000000000036e+03
