# t [s], A [cm^2], U [cm/s], P [cPa], c [cm/s]
1.000000000000000021e-03 1.618425000000000002e-01 2.699799999999999978e-01 9.151239999999999952e+01 1.954619999999999891e+03
2.000000000000000042e-03 1.618124999999999980e-01 1.650098000000000065e+00 8.866394999999999982e+01 1.954335000000000036e+03
3.000000000000000062e-03 1.617135000000000100e-01 3.351103000000000165e+00 8.483905000000000030e+01 1.953440000000000055e+03
4.000000000000000083e-03 1.615690000000000182e-01 5.250523000000000273e+00 8.058905000000000030e+01 1.952164999999999964e+03
5.000000000000000104e-03 1.614065000000000083e-01 7.297779999999999490e+00 7.663925000000000409e+01 1.950735000000000127e+03
6.000000000000000125e-03 1.612434999999999841e-01 9.376199999999998980e+00 7.332730000000000814e+01 1.949319999999999936e+03
7.000000000000000146e-03 1.610884999999999956e-01 1.131635999999999953e+01 7.055155000000000598e+01 1.947985000000000127e+03
8.000000000000000167e-03 1.609424999999999883e-01 1.300878999999999941e+01 6.808084999999999809e+01 1.946755000000000109e+03
9.000000000000001055e-03 1.608090000000000075e-01 1.445305500000000087e+01 6.586530000000000484e+01 1.945639999999999873e+03
1.000000000000000194e-02 1.606914999999999871e-01 1.568294999999999995e+01 6.397225000000000250e+01 1.944680000000000064e+03
1.099999999999999936e-02 1.605914999999999981e-01 1.671504999999999797e+01 6.242020000000000834e+01 1.943865000000000009e+03
1.200000000000000025e-02 1.605079999999999840e-01 1.755734999999999957e+01 6.117034999999999911e+01 1.943190000000000055e+03
1.300000000000000114e-02 1.604389999999999983e-01 1.821509999999999962e+01 6.016069999999999851e+01 1.942644999999999982e+03
1.400000000000000203e-02 1.603820000000000245e-01 1.869024999999999892e+01 5.930785000000000196e+01 1.942194999999999936e+03
1.499999999999999944e-02 1.603335000000000177e-01 1.899924999999999997e+01 5.854354999999999620e+01 1.941824999999999818e+03
1.600000000000000033e-02 1.602934999999999777e-01 1.919989999999999952e+01 5.789555000000000007e+01 1.941519999999999982e+03
1.700000000000000122e-02 1.602640000000000176e-01 1.939179999999999993e+01 5.752960000000000207e+01 1.941304999999999836e+03
1.800000000000000211e-02 1.602510000000000046e-01 1.968200000000000216e+01 5.768805000000000405e+01 1.941214999999999918e+03
1.900000000000000300e-02 1.602609999999999868e-01 2.013719999999999999e+01 5.855734999999999957e+01 1.941304999999999836e+03
2.000000000000000042e-02 1.602955000000000074e-01 2.075285000000000224e+01 6.015024999999999977e+01 1.941585000000000036e+03
2.100000000000000130e-02 1.603519999999999945e-01 2.145455000000000112e+01 6.226980000000000359e+01 1.942050000000000182e+03
2.200000000000000219e-02 1.604220000000000090e-01 2.212644999999999840e+01 6.456354999999999222e+01 1.942630000000000109e+03
2.299999999999999961e-02 1.604944999999999844e-01 2.265180000000000149e+01 6.663544999999999163e+01 1.943235000000000127e+03
2.400000000000000050e-02 1.605595000000000216e-01 2.294784999999999897e+01 6.816349999999999909e+01 1.943784999999999854e+03
2.500000000000000139e-02 1.606090000000000018e-01 2.298570000000000135e+01 6.898125000000000284e+01 1.944215000000000146e+03
2.600000000000000228e-02 1.606390000000000040e-01 2.278979999999999961e+01 6.910160000000000480e+01 1.944480000000000018e+03
2.700000000000000316e-02 1.606500000000000150e-01 2.242190000000000083e+01 6.868315000000001191e+01 1.944594999999999800e+03
2.800000000000000058e-02 1.606474999999999986e-01 2.195584999999999809e+01 6.795805000000000007e+01 1.944579999999999927e+03
2.900000000000000147e-02 1.606350000000000000e-01 2.145364999999999966e+01 6.714990000000000236e+01 1.944500000000000000e+03
3.000000000000000236e-02 1.606194999999999984e-01 2.095015000000000072e+01 6.641065000000000396e+01 1.944369999999999891e+03
3.099999999999999978e-02 1.606019999999999948e-01 2.044964999999999833e+01 6.579205000000000325e+01 1.944235000000000127e+03
3.200000000000000067e-02 1.605854999999999921e-01 1.993274999999999864e+01 6.525414999999999566e+01 1.944099999999999909e+03
3.300000000000000155e-02 1.605675000000000019e-01 1.937055000000000149e+01 6.470215000000000316e+01 1.943954999999999927e+03
3.400000000000000244e-02 1.605464999999999809e-01 1.874009999999999820e+01 6.403570000000000562e+01 1.943784999999999854e+03
3.500000000000000333e-02 1.605205000000000104e-01 1.803699999999999903e+01 6.319474999999999909e+01 1.943574999999999818e+03
3.600000000000000422e-02 1.604889999999999928e-01 1.728215000000000146e+01 6.218979999999999819e+01 1.943320000000000164e+03
3.700000000000000511e-02 1.604530000000000123e-01 1.652015000000000100e+01 6.110864999999999725e+01 1.943029999999999973e+03
3.799999999999999906e-02 1.604165000000000174e-01 1.581075000000000053e+01 6.009870000000000090e+01 1.942735000000000127e+03
3.899999999999999994e-02 1.603839999999999988e-01 1.521624999999999872e+01 5.933180000000000121e+01 1.942465000000000146e+03
4.000000000000000083e-02 1.603605000000000169e-01 1.478679999999999950e+01 5.896094999999999686e+01 1.942264999999999873e+03
4.100000000000000172e-02 1.603505000000000069e-01 1.454979999999999940e+01 5.908209999999999695e+01 1.942170000000000073e+03
4.200000000000000261e-02 1.603554999999999842e-01 1.450359999999999872e+01 5.970949999999999847e+01 1.942204999999999927e+03
4.300000000000000350e-02 1.603760000000000185e-01 1.461789999999999878e+01 6.077094999999999914e+01 1.942365000000000009e+03
4.400000000000000439e-02 1.604099999999999970e-01 1.483980000000000032e+01 6.212099999999999511e+01 1.942625000000000000e+03
4.499999999999999833e-02 1.604519999999999835e-01 1.510294999999999987e+01 6.356795000000000329e+01 1.942965000000000146e+03
4.599999999999999922e-02 1.604970000000000008e-01 1.533814999999999884e+01 6.490649999999999409e+01 1.943325000000000045e+03
4.700000000000000011e-02 1.605385000000000006e-01 1.548280000000000101e+01 6.594939999999999714e+01 1.943664999999999964e+03
4.800000000000000100e-02 1.605699999999999905e-01 1.548760000000000048e+01 6.655150000000000432e+01 1.943930000000000064e+03
4.900000000000000189e-02 1.605884999999999951e-01 1.532080000000000020e+01 6.662385000000000446e+01 1.944085000000000036e+03
5.000000000000000278e-02 1.605904999999999971e-01 1.496814999999999962e+01 6.613644999999999641e+01 1.944110000000000127e+03
5.100000000000000366e-02 1.605745000000000089e-01 1.443149999999999977e+01 6.511164999999999736e+01 1.943990000000000009e+03
5.200000000000000455e-02 1.605415000000000036e-01 1.372469999999999857e+01 6.361150000000000659e+01 1.943720000000000027e+03
5.300000000000000544e-02 1.604915000000000092e-01 1.286990000000000123e+01 6.172240000000000748e+01 1.943320000000000164e+03
5.399999999999999939e-02 1.604280000000000150e-01 1.189381000000000022e+01 5.954090000000000060e+01 1.942799999999999955e+03
5.500000000000000028e-02 1.603535000000000099e-01 1.082496499999999884e+01 5.716235000000000355e+01 1.942199999999999818e+03
5.600000000000000117e-02 1.602704999999999824e-01 9.692170000000000840e+00 5.467459999999999809e+01 1.941519999999999982e+03
5.700000000000000205e-02 1.601819999999999911e-01 8.524020000000000152e+00 5.215564999999999429e+01 1.940800000000000182e+03
5.800000000000000294e-02 1.600914999999999977e-01 7.349190000000000111e+00 4.967489999999999384e+01 1.940054999999999836e+03
5.900000000000000383e-02 1.600004999999999900e-01 6.196779999999999511e+00 4.729605000000000103e+01 1.939304999999999836e+03
6.000000000000000472e-02 1.599119999999999986e-01 5.096735000000000682e+00 4.508015000000000327e+01 1.938579999999999927e+03
6.099999999999999867e-02 1.598284999999999845e-01 4.079959999999999809e+00 4.308825000000000216e+01 1.937889999999999873e+03
6.199999999999999956e-02 1.597525000000000195e-01 3.177774499999999946e+00 4.138224999999999909e+01 1.937259999999999991e+03
6.300000000000000044e-02 1.596859999999999946e-01 2.420913500000000163e+00 4.002365000000000350e+01 1.936704999999999927e+03
6.400000000000000133e-02 1.596309999999999951e-01 1.838160499999999864e+00 3.907085000000000008e+01 1.936244999999999891e+03
6.500000000000000222e-02 1.595909999999999829e-01 1.454709999999999948e+00 3.857569999999999766e+01 1.935910000000000082e+03
6.600000000000000311e-02 1.595670000000000144e-01 1.290607999999999977e+00 3.857905000000000229e+01 1.935694999999999936e+03
6.700000000000000400e-02 1.595610000000000084e-01 1.359404999999999974e+00 3.910734999999999673e+01 1.935634999999999991e+03
6.800000000000000488e-02 1.595739999999999936e-01 1.667224999999999735e+00 4.016979999999999507e+01 1.935720000000000027e+03
6.900000000000000577e-02 1.596059999999999979e-01 2.212349999999999817e+00 4.175699999999999790e+01 1.935970000000000027e+03
7.000000000000000666e-02 1.596569999999999934e-01 2.985325000000000006e+00 4.384120000000000061e+01 1.936369999999999891e+03
7.100000000000000755e-02 1.597270000000000079e-01 3.969605000000000050e+00 4.637800000000000011e+01 1.936925000000000182e+03
7.200000000000000844e-02 1.598134999999999972e-01 5.142549999999999955e+00 4.930904999999999916e+01 1.937619999999999891e+03
7.300000000000000933e-02 1.599149999999999738e-01 6.476784999999999570e+00 5.256584999999999752e+01 1.938440000000000055e+03
7.399999999999999634e-02 1.600300000000000056e-01 7.941695000000000171e+00 5.607404999999999973e+01 1.939369999999999891e+03
7.499999999999999722e-02 1.601544999999999774e-01 9.505060000000000286e+00 5.975740000000000407e+01 1.940389999999999873e+03
7.599999999999999811e-02 1.602874999999999994e-01 1.113460500000000053e+01 6.354229999999999734e+01 1.941480000000000018e+03
7.699999999999999900e-02 1.604249999999999843e-01 1.279954000000000036e+01 6.736129999999999995e+01 1.942609999999999900e+03
7.799999999999999989e-02 1.605665000000000009e-01 1.447180000000000000e+01 7.115619999999999834e+01 1.943775000000000091e+03
7.900000000000000078e-02 1.607080000000000175e-01 1.612709999999999866e+01 7.488030000000000541e+01 1.944945000000000164e+03
8.000000000000000167e-02 1.608489999999999920e-01 1.774555000000000149e+01 7.849979999999999336e+01 1.946110000000000127e+03
8.100000000000000255e-02 1.609869999999999912e-01 1.931230000000000047e+01 8.199405000000000143e+01 1.947264999999999873e+03
8.200000000000000344e-02 1.611225000000000018e-01 2.081735000000000113e+01 8.535519999999999641e+01 1.948389999999999873e+03
8.300000000000000433e-02 1.612545000000000228e-01 2.225529999999999831e+01 8.858655000000000257e+01 1.949490000000000009e+03
8.400000000000000522e-02 1.613819999999999977e-01 2.362474999999999881e+01 9.170035000000000025e+01 1.950559999999999945e+03
8.500000000000000611e-02 1.615064999999999973e-01 2.492774999999999963e+01 9.471555000000000746e+01 1.951605000000000018e+03
8.600000000000000699e-02 1.616275000000000073e-01 2.616864999999999952e+01 9.765385000000000559e+01 1.952625000000000000e+03
8.700000000000000788e-02 1.617465000000000153e-01 2.735310000000000130e+01 1.005392999999999972e+02 1.953630000000000109e+03
8.800000000000000877e-02 1.618640000000000079e-01 2.848729999999999762e+01 1.033930499999999881e+02 1.954615000000000009e+03
8.899999999999999578e-02 1.619789999999999841e-01 2.957734999999999914e+01 1.062330000000000041e+02 1.955589999999999918e+03
8.999999999999999667e-02 1.620945000000000025e-01 3.062824999999999775e+01 1.090715000000000003e+02 1.956559999999999945e+03
9.099999999999999756e-02 1.622089999999999921e-01 3.164349999999999952e+01 1.119159999999999968e+02 1.957529999999999973e+03
9.199999999999999845e-02 1.623239999999999961e-01 3.262510000000000332e+01 1.147655000000000030e+02 1.958500000000000000e+03
9.299999999999999933e-02 1.624384999999999857e-01 3.357300000000000040e+01 1.176150000000000091e+02 1.959470000000000027e+03
9.400000000000000022e-02 1.625535000000000174e-01 3.448530000000000229e+01 1.204535000000000053e+02 1.960434999999999945e+03
9.500000000000000111e-02 1.626670000000000060e-01 3.535844999999999771e+01 1.232634999999999934e+02 1.961405000000000200e+03
9.600000000000000200e-02 1.627799999999999803e-01 3.618730000000000047e+01 1.260254999999999939e+02 1.962355000000000018e+03
9.700000000000000289e-02 1.628910000000000080e-01 3.696549999999999869e+01 1.287169999999999845e+02 1.963295000000000073e+03
9.800000000000000377e-02 1.629990000000000050e-01 3.768590000000000373e+01 1.313140000000000214e+02 1.964215000000000146e+03
9.900000000000000466e-02 1.631029999999999980e-01 3.834059999999999491e+01 1.337919999999999732e+02 1.965099999999999909e+03
1.000000000000000056e-01 1.632035000000000013e-01 3.892180000000000462e+01 1.361264999999999930e+02 1.965954999999999927e+03
1.010000000000000064e-01 1.632985000000000131e-01 3.942170000000000130e+01 1.382955000000000041e+02 1.966764999999999873e+03
1.020000000000000073e-01 1.633870000000000045e-01 3.983315000000000339e+01 1.402775000000000034e+02 1.967525000000000091e+03
1.030000000000000082e-01 1.634694999999999898e-01 4.014995000000000402e+01 1.420570000000000164e+02 1.968230000000000018e+03
1.040000000000000091e-01 1.635440000000000227e-01 4.036710000000000065e+01 1.436189999999999998e+02 1.968865000000000009e+03
1.050000000000000100e-01 1.636104999999999920e-01 4.048104999999999620e+01 1.449535000000000196e+02 1.969440000000000055e+03
1.059999999999999970e-01 1.636690000000000089e-01 4.049020000000000152e+01 1.460570000000000164e+02 1.969945000000000164e+03
1.069999999999999979e-01 1.637184999999999890e-01 4.039470000000000027e+01 1.469275000000000091e+02 1.970369999999999891e+03
1.079999999999999988e-01 1.637595000000000023e-01 4.019679999999999609e+01 1.475704999999999814e+02 1.970730000000000018e+03
1.089999999999999997e-01 1.637915000000000065e-01 3.990090000000000003e+01 1.479959999999999809e+02 1.971014999999999873e+03
1.100000000000000006e-01 1.638155000000000028e-01 3.951314999999999600e+01 1.482169999999999845e+02 1.971230000000000018e+03
1.110000000000000014e-01 1.638315000000000188e-01 3.904149999999999920e+01 1.482520000000000095e+02 1.971369999999999891e+03
1.120000000000000023e-01 1.638405000000000000e-01 3.849559999999999604e+01 1.481225000000000023e+02 1.971460000000000036e+03
1.130000000000000032e-01 1.638430000000000164e-01 3.788595000000000113e+01 1.478505000000000109e+02 1.971485000000000127e+03
1.140000000000000041e-01 1.638394999999999990e-01 3.722395000000000209e+01 1.474629999999999939e+02 1.971460000000000036e+03
1.150000000000000050e-01 1.638310000000000044e-01 3.652129999999999654e+01 1.469830000000000041e+02 1.971394999999999982e+03
1.160000000000000059e-01 1.638180000000000192e-01 3.578969999999999629e+01 1.464360000000000070e+02 1.971295000000000073e+03
1.170000000000000068e-01 1.638029999999999764e-01 3.504030000000000200e+01 1.458455000000000155e+02 1.971170000000000073e+03
1.180000000000000077e-01 1.637850000000000139e-01 3.428350000000000364e+01 1.452315000000000111e+02 1.971019999999999982e+03
1.190000000000000085e-01 1.637649999999999939e-01 3.352850000000000108e+01 1.446109999999999900e+02 1.970860000000000127e+03
1.200000000000000094e-01 1.637450000000000017e-01 3.278309999999999746e+01 1.439989999999999952e+02 1.970684999999999945e+03
1.209999999999999964e-01 1.637239999999999807e-01 3.205360000000000298e+01 1.434055000000000177e+02 1.970509999999999991e+03
1.219999999999999973e-01 1.637029999999999874e-01 3.134459999999999980e+01 1.428375000000000057e+02 1.970335000000000036e+03
1.229999999999999982e-01 1.636829999999999952e-01 3.065894999999999726e+01 1.422969999999999970e+02 1.970159999999999854e+03
1.239999999999999991e-01 1.636630000000000029e-01 2.999780000000000157e+01 1.417835000000000036e+02 1.969990000000000009e+03
1.250000000000000000e-01 1.636434999999999973e-01 2.936064999999999969e+01 1.412920000000000016e+02 1.969825000000000045e+03
1.260000000000000009e-01 1.636245000000000061e-01 2.874569999999999936e+01 1.408160000000000025e+02 1.969659999999999854e+03
1.270000000000000018e-01 1.636060000000000014e-01 2.814979999999999905e+01 1.403455000000000155e+02 1.969500000000000000e+03
1.280000000000000027e-01 1.635874999999999968e-01 2.756859999999999999e+01 1.398689999999999998e+02 1.969340000000000146e+03
1.290000000000000036e-01 1.635685000000000056e-01 2.699734999999999729e+01 1.393740000000000236e+02 1.969175000000000182e+03
1.300000000000000044e-01 1.635484999999999856e-01 2.643045000000000044e+01 1.388474999999999966e+02 1.969005000000000109e+03
1.310000000000000053e-01 1.635274999999999923e-01 2.586254999999999882e+01 1.382764999999999986e+02 1.968824999999999818e+03
1.320000000000000062e-01 1.635044999999999971e-01 2.528810000000000002e+01 1.376494999999999891e+02 1.968634999999999991e+03
1.330000000000000071e-01 1.634800000000000142e-01 2.470210000000000150e+01 1.369560000000000173e+02 1.968420000000000073e+03
1.340000000000000080e-01 1.634530000000000149e-01 2.410034999999999883e+01 1.361879999999999882e+02 1.968195000000000164e+03
1.350000000000000089e-01 1.634234999999999993e-01 2.347954999999999970e+01 1.353394999999999868e+02 1.967940000000000055e+03
1.360000000000000098e-01 1.633904999999999941e-01 2.283739999999999881e+01 1.344080000000000155e+02 1.967664999999999964e+03
1.370000000000000107e-01 1.633550000000000002e-01 2.217314999999999969e+01 1.333935000000000173e+02 1.967360000000000127e+03
1.380000000000000115e-01 1.633165000000000033e-01 2.148720000000000141e+01 1.323000000000000114e+02 1.967039999999999964e+03
1.390000000000000124e-01 1.632750000000000035e-01 2.078144999999999953e+01 1.311349999999999909e+02 1.966684999999999945e+03
1.400000000000000133e-01 1.632310000000000150e-01 2.005930000000000035e+01 1.299079999999999870e+02 1.966315000000000055e+03
1.410000000000000142e-01 1.631845000000000101e-01 1.932509999999999906e+01 1.286324999999999932e+02 1.965920000000000073e+03
1.420000000000000151e-01 1.631354999999999889e-01 1.858464999999999989e+01 1.273234999999999957e+02 1.965514999999999873e+03
1.430000000000000160e-01 1.630860000000000087e-01 1.784445000000000192e+01 1.259980000000000047e+02 1.965094999999999800e+03
1.440000000000000169e-01 1.630354999999999999e-01 1.711169999999999902e+01 1.246744999999999948e+02 1.964670000000000073e+03
1.450000000000000178e-01 1.629849999999999910e-01 1.639399999999999835e+01 1.233719999999999999e+02 1.964240000000000009e+03
1.459999999999999909e-01 1.629345000000000099e-01 1.569894999999999996e+01 1.221080000000000041e+02 1.963815000000000055e+03
1.469999999999999918e-01 1.628855000000000164e-01 1.503384999999999927e+01 1.209000000000000057e+02 1.963405000000000200e+03
1.479999999999999927e-01 1.628384999999999971e-01 1.440554999999999986e+01 1.197639999999999958e+02 1.963000000000000000e+03
1.489999999999999936e-01 1.627935000000000076e-01 1.382005000000000017e+01 1.187125000000000057e+02 1.962619999999999891e+03
1.499999999999999944e-01 1.627514999999999934e-01 1.328245000000000076e+01 1.177574999999999932e+02 1.962265000000000100e+03
1.509999999999999953e-01 1.627129999999999965e-01 1.279659999999999975e+01 1.169060000000000059e+02 1.961934999999999945e+03
1.519999999999999962e-01 1.626779999999999893e-01 1.236514999999999986e+01 1.161629999999999967e+02 1.961634999999999991e+03
1.529999999999999971e-01 1.626464999999999994e-01 1.198944999999999972e+01 1.155300000000000011e+02 1.961365000000000009e+03
1.539999999999999980e-01 1.626195000000000002e-01 1.166949999999999932e+01 1.150054999999999978e+02 1.961130000000000109e+03
1.549999999999999989e-01 1.625964999999999772e-01 1.140429999999999922e+01 1.145865000000000009e+02 1.960934999999999945e+03
1.559999999999999998e-01 1.625769999999999993e-01 1.119159499999999952e+01 1.142659999999999911e+02 1.960764999999999873e+03
1.570000000000000007e-01 1.625610000000000110e-01 1.102806499999999978e+01 1.140364999999999895e+02 1.960625000000000000e+03
1.580000000000000016e-01 1.625484999999999847e-01 1.090986499999999992e+01 1.138880000000000052e+02 1.960514999999999873e+03
1.590000000000000024e-01 1.625395000000000034e-01 1.083227499999999921e+01 1.138100000000000023e+02 1.960434999999999945e+03
