# t [s], A [cm^2], U [cm/s], P [cPa], c [cm/s]
1.000000000000000021e-03 5.840115000000000167e-01 4.778150000000001840e-03 1.012644999999999982e+02 1.573990000000000009e+03
2.000000000000000042e-03 5.840020000000000211e-01 -2.158774999999999930e-03 1.012404999999999973e+02 1.573985000000000127e+03
3.000000000000000062e-03 5.840449999999999253e-01 7.536495000000001387e-02 1.013205000000000098e+02 1.574005000000000109e+03
4.000000000000000083e-03 5.840929999999999733e-01 1.703645000000000020e-01 1.014385000000000048e+02 1.574039999999999964e+03
5.000000000000000104e-03 5.840830000000000188e-01 1.673074999999999979e-01 1.014230000000000018e+02 1.574039999999999964e+03
6.000000000000000125e-03 5.840294999999999792e-01 8.288550000000000084e-02 1.012514999999999930e+02 1.573994999999999891e+03
7.000000000000000146e-03 5.839805000000000135e-01 2.154999999999795968e-04 1.010194999999999936e+02 1.573940000000000055e+03
8.000000000000000167e-03 5.839165000000000605e-01 -1.182934999999999959e-01 1.007000000000000028e+02 1.573865000000000009e+03
9.000000000000001055e-03 5.838060000000000471e-01 -3.370750000000000135e-01 1.002067499999999995e+02 1.573740000000000009e+03
1.000000000000000194e-02 5.836419999999999941e-01 -6.660199999999999454e-01 9.949609999999999843e+01 1.573559999999999945e+03
1.099999999999999936e-02 5.834160000000000457e-01 -1.116684999999999928e+00 9.851999999999999602e+01 1.573309999999999945e+03
1.200000000000000025e-02 5.831105000000000871e-01 -1.705330000000000013e+00 9.722129999999999939e+01 1.572974999999999909e+03
1.300000000000000114e-02 5.827350000000000030e-01 -2.397264999999999979e+00 9.560075000000000500e+01 1.572545000000000073e+03
1.400000000000000203e-02 5.823325000000000307e-01 -3.086415000000000131e+00 9.376364999999999839e+01 1.572049999999999955e+03
1.499999999999999944e-02 5.819579999999999753e-01 -3.638071000000000499e+00 9.188450000000000273e+01 1.571519999999999982e+03
1.600000000000000033e-02 5.816485000000000127e-01 -3.949764500000000123e+00 9.012964999999999804e+01 1.571005000000000109e+03
1.700000000000000122e-02 5.814114999999999700e-01 -3.985291999999999835e+00 8.859544999999999959e+01 1.570525000000000091e+03
1.800000000000000211e-02 5.812280000000000779e-01 -3.773447500000000066e+00 8.728919999999999391e+01 1.570089999999999918e+03
1.900000000000000300e-02 5.810619999999999674e-01 -3.384447499999999831e+00 8.614525000000000432e+01 1.569684999999999945e+03
2.000000000000000042e-02 5.808799999999999519e-01 -2.899333500000000008e+00 8.506059999999999377e+01 1.569299999999999955e+03
2.100000000000000130e-02 5.806580000000000075e-01 -2.382971999999999646e+00 8.393524999999999636e+01 1.568904999999999973e+03
2.200000000000000219e-02 5.803895000000000026e-01 -1.867615000000000025e+00 8.270465000000000089e+01 1.568484999999999900e+03
2.299999999999999961e-02 5.800819999999999865e-01 -1.350844999999999851e+00 8.135425000000000750e+01 1.568034999999999854e+03
2.400000000000000050e-02 5.797550000000000203e-01 -8.070899999999998631e-01 7.991450000000000387e+01 1.567559999999999945e+03
2.500000000000000139e-02 5.794280000000000541e-01 -2.067250000000000476e-01 7.843895000000000550e+01 1.567075000000000045e+03
2.600000000000000228e-02 5.791124999999999190e-01 4.655750000000002942e-01 7.697745000000000459e+01 1.566585000000000036e+03
2.700000000000000316e-02 5.788094999999999768e-01 1.199419999999999709e+00 7.555410000000000537e+01 1.566105000000000018e+03
2.800000000000000058e-02 5.785080000000000222e-01 1.956720000000000237e+00 7.415579999999999927e+01 1.565630000000000109e+03
2.900000000000000147e-02 5.781879999999999242e-01 2.677965000000000373e+00 7.273345000000000482e+01 1.565150000000000091e+03
3.000000000000000236e-02 5.778269999999999795e-01 3.294290000000000163e+00 7.121305000000000973e+01 1.564639999999999873e+03
3.099999999999999978e-02 5.774065000000000447e-01 3.742069999999999563e+00 6.951470000000000482e+01 1.564099999999999909e+03
3.200000000000000067e-02 5.769134999999999680e-01 3.976884999999999781e+00 6.757379999999999143e+01 1.563494999999999891e+03
3.300000000000000155e-02 5.763490000000000002e-01 3.983175000000000132e+00 6.535975000000000534e+01 1.562824999999999818e+03
3.400000000000000244e-02 5.757255000000000011e-01 3.777534999999999865e+00 6.288724999999999454e+01 1.562090000000000146e+03
3.500000000000000333e-02 5.750664999999999250e-01 3.404290000000000482e+00 6.021710000000000207e+01 1.561295000000000073e+03
3.600000000000000422e-02 5.744009999999999394e-01 2.926190000000000069e+00 5.744669999999999987e+01 1.560474999999999909e+03
3.700000000000000511e-02 5.737600000000000477e-01 2.412060000000000315e+00 5.469485000000000241e+01 1.559644999999999982e+03
3.799999999999999906e-02 5.731714999999999449e-01 1.926419999999999799e+00 5.208415000000000106e+01 1.558849999999999909e+03
3.899999999999999994e-02 5.726554999999999840e-01 1.521790000000000198e+00 4.972634999999999650e+01 1.558115000000000009e+03
4.000000000000000083e-02 5.722270000000000412e-01 1.235310000000000130e+00 4.771144999999999925e+01 1.557465000000000146e+03
4.100000000000000172e-02 5.718950000000000422e-01 1.088925000000000143e+00 4.610249999999999915e+01 1.556924999999999955e+03
4.200000000000000261e-02 5.716605000000000159e-01 1.092104999999999881e+00 4.493585000000000207e+01 1.556505000000000109e+03
4.300000000000000350e-02 5.715239999999999210e-01 1.245964999999999989e+00 4.422435000000000116e+01 1.556210000000000036e+03
4.400000000000000439e-02 5.714799999999999880e-01 1.547614999999999963e+00 4.396330000000000382e+01 1.556055000000000064e+03
4.499999999999999833e-02 5.715265000000000484e-01 1.993644999999999889e+00 4.413724999999999454e+01 1.556025000000000091e+03
4.599999999999999922e-02 5.716579999999999995e-01 2.582155000000000200e+00 4.472534999999999883e+01 1.556119999999999891e+03
4.700000000000000011e-02 5.718730000000000757e-01 3.313030499999999989e+00 4.570539999999999736e+01 1.556335000000000036e+03
4.800000000000000100e-02 5.721660000000000634e-01 4.186770499999999728e+00 4.705509999999999593e+01 1.556670000000000073e+03
4.900000000000000189e-02 5.725344999999999462e-01 5.202425500000000369e+00 4.875159999999999627e+01 1.557119999999999891e+03
5.000000000000000278e-02 5.729735000000000245e-01 6.355408500000000238e+00 5.076959999999999695e+01 1.557664999999999964e+03
5.100000000000000366e-02 5.734755000000000269e-01 7.635919999999999597e+00 5.307930000000000348e+01 1.558299999999999955e+03
5.200000000000000455e-02 5.740330000000000155e-01 9.028240000000000265e+00 5.564509999999999934e+01 1.559025000000000091e+03
5.300000000000000544e-02 5.746344999999999370e-01 1.051102000000000025e+01 5.842530000000000001e+01 1.559820000000000164e+03
5.399999999999999939e-02 5.752690000000000303e-01 1.205887000000000064e+01 6.137295000000000300e+01 1.560675000000000182e+03
5.500000000000000028e-02 5.759244999999999504e-01 1.364390500000000017e+01 6.443789999999999907e+01 1.561575000000000045e+03
5.600000000000000117e-02 5.765905000000000058e-01 1.523816500000000040e+01 6.756985000000000241e+01 1.562505000000000109e+03
5.700000000000000205e-02 5.772559999999999913e-01 1.681555499999999981e+01 7.072084999999999866e+01 1.563454999999999927e+03
5.800000000000000294e-02 5.779134999999999689e-01 1.835345000000000226e+01 7.384884999999999877e+01 1.564409999999999854e+03
5.900000000000000383e-02 5.785559999999999592e-01 1.983399999999999963e+01 7.691944999999999766e+01 1.565355000000000018e+03
6.000000000000000472e-02 5.791804999999999870e-01 2.124434999999999718e+01 7.990760000000000218e+01 1.566289999999999964e+03
6.099999999999999867e-02 5.797839999999999661e-01 2.257675000000000054e+01 8.279779999999999518e+01 1.567204999999999927e+03
6.199999999999999956e-02 5.803669999999999662e-01 2.382825000000000060e+01 8.558414999999999395e+01 1.568089999999999918e+03
6.300000000000000044e-02 5.809320000000000039e-01 2.499949999999999761e+01 8.826890000000000214e+01 1.568954999999999927e+03
6.400000000000000133e-02 5.814804999999999557e-01 2.609425000000000239e+01 9.086124999999999829e+01 1.569789999999999964e+03
6.500000000000000222e-02 5.820165000000000477e-01 2.711834999999999951e+01 9.337489999999999668e+01 1.570610000000000127e+03
6.600000000000000311e-02 5.825434999999999919e-01 2.807874999999999943e+01 9.582794999999998709e+01 1.571409999999999854e+03
6.700000000000000400e-02 5.830655000000000143e-01 2.898279999999999745e+01 9.823714999999999975e+01 1.572199999999999818e+03
6.800000000000000488e-02 5.835854999999999793e-01 2.983774999999999977e+01 1.006208500000000043e+02 1.572974999999999909e+03
6.900000000000000577e-02 5.841069999999999318e-01 3.064959999999999951e+01 1.029937500000000057e+02 1.573744999999999891e+03
7.000000000000000666e-02 5.846314999999999706e-01 3.142325000000000301e+01 1.053685499999999990e+02 1.574519999999999982e+03
7.100000000000000755e-02 5.851589999999999847e-01 3.216169999999999618e+01 1.077514999999999930e+02 1.575289999999999964e+03
7.200000000000000844e-02 5.856900000000000439e-01 3.286585000000000178e+01 1.101444999999999936e+02 1.576065000000000055e+03
7.300000000000000933e-02 5.862229999999999386e-01 3.353464999999999918e+01 1.125444999999999993e+02 1.576840000000000146e+03
7.399999999999999634e-02 5.867550000000000265e-01 3.416490000000000293e+01 1.149424999999999955e+02 1.577615000000000009e+03
7.499999999999999722e-02 5.872825000000000406e-01 3.475180000000000291e+01 1.173239999999999981e+02 1.578389999999999873e+03
7.599999999999999811e-02 5.878015000000000878e-01 3.528920000000000101e+01 1.196730000000000018e+02 1.579154999999999973e+03
7.699999999999999900e-02 5.883080000000000531e-01 3.577030000000000598e+01 1.219685000000000059e+02 1.579904999999999973e+03
7.799999999999999989e-02 5.887959999999999861e-01 3.618775000000000119e+01 1.241889999999999930e+02 1.580634999999999991e+03
7.900000000000000078e-02 5.892614999999999936e-01 3.653484999999999872e+01 1.263139999999999930e+02 1.581335000000000036e+03
8.000000000000000167e-02 5.897014999999999896e-01 3.680509999999999593e+01 1.283224999999999909e+02 1.582005000000000109e+03
8.100000000000000255e-02 5.901109999999999411e-01 3.699344999999999573e+01 1.301959999999999980e+02 1.582639999999999873e+03
8.200000000000000344e-02 5.904869999999999841e-01 3.709600000000000364e+01 1.319189999999999827e+02 1.583224999999999909e+03
8.300000000000000433e-02 5.908280000000000198e-01 3.711030000000000229e+01 1.334795000000000016e+02 1.583759999999999991e+03
8.400000000000000522e-02 5.911319999999999908e-01 3.703575000000000017e+01 1.348700000000000045e+02 1.584250000000000000e+03
8.500000000000000611e-02 5.913990000000000080e-01 3.687319999999999709e+01 1.360854999999999961e+02 1.584684999999999945e+03
8.600000000000000699e-02 5.916289999999999605e-01 3.662534999999999741e+01 1.371265000000000214e+02 1.585065000000000055e+03
8.700000000000000788e-02 5.918225000000000291e-01 3.629645000000000010e+01 1.379964999999999975e+02 1.585394999999999982e+03
8.800000000000000877e-02 5.919825000000000781e-01 3.589215000000000089e+01 1.387035000000000196e+02 1.585670000000000073e+03
8.899999999999999578e-02 5.921104999999999841e-01 3.541975000000000051e+01 1.392574999999999932e+02 1.585900000000000091e+03
8.999999999999999667e-02 5.922095000000000553e-01 3.488729999999999620e+01 1.396715000000000089e+02 1.586079999999999927e+03
9.099999999999999756e-02 5.922830000000000039e-01 3.430414999999999992e+01 1.399605000000000246e+02 1.586215000000000146e+03
9.199999999999999845e-02 5.923350000000000559e-01 3.368019999999999925e+01 1.401424999999999841e+02 1.586315000000000055e+03
9.299999999999999933e-02 5.923685000000000755e-01 3.302564999999999884e+01 1.402344999999999970e+02 1.586384999999999991e+03
9.400000000000000022e-02 5.923875000000000668e-01 3.235079999999999956e+01 1.402555000000000121e+02 1.586425000000000182e+03
9.500000000000000111e-02 5.923964999999999925e-01 3.166549999999999798e+01 1.402230000000000132e+02 1.586445000000000164e+03
9.600000000000000200e-02 5.923975000000000213e-01 3.097899999999999920e+01 1.401530000000000200e+02 1.586450000000000045e+03
9.700000000000000289e-02 5.923950000000000049e-01 3.029930000000000234e+01 1.400620000000000118e+02 1.586440000000000055e+03
9.800000000000000377e-02 5.923899999999999721e-01 2.963329999999999842e+01 1.399619999999999891e+02 1.586424999999999955e+03
9.900000000000000466e-02 5.923855000000000093e-01 2.898614999999999853e+01 1.398629999999999995e+02 1.586404999999999973e+03
1.000000000000000056e-01 5.923825000000000340e-01 2.836139999999999972e+01 1.397719999999999914e+02 1.586384999999999991e+03
1.010000000000000064e-01 5.923810000000000464e-01 2.776069999999999993e+01 1.396935000000000002e+02 1.586365000000000009e+03
1.020000000000000073e-01 5.923804999999999765e-01 2.718415000000000248e+01 1.396274999999999977e+02 1.586345000000000027e+03
1.030000000000000082e-01 5.923815000000000053e-01 2.663009999999999877e+01 1.395724999999999909e+02 1.586329999999999927e+03
1.040000000000000091e-01 5.923815000000000053e-01 2.609559999999999746e+01 1.395229999999999961e+02 1.586304999999999836e+03
1.050000000000000100e-01 5.923789999999999889e-01 2.557650000000000290e+01 1.394724999999999966e+02 1.586289999999999964e+03
1.059999999999999970e-01 5.923724999999999685e-01 2.506800000000000139e+01 1.394125000000000227e+02 1.586269999999999982e+03
1.069999999999999979e-01 5.923604999999999565e-01 2.456470000000000198e+01 1.393324999999999818e+02 1.586240000000000009e+03
1.079999999999999988e-01 5.923395000000000188e-01 2.406089999999999662e+01 1.392239999999999895e+02 1.586210000000000036e+03
1.089999999999999997e-01 5.923085000000000155e-01 2.355114999999999981e+01 1.390765000000000100e+02 1.586164999999999964e+03
1.100000000000000006e-01 5.922659999999999592e-01 2.303054999999999808e+01 1.388810000000000002e+02 1.586105000000000018e+03
1.110000000000000014e-01 5.922100000000000142e-01 2.249455000000000027e+01 1.386304999999999836e+02 1.586029999999999973e+03
1.120000000000000023e-01 5.921395000000000408e-01 2.193979999999999819e+01 1.383190000000000168e+02 1.585940000000000055e+03
1.130000000000000032e-01 5.920545000000000391e-01 2.136395000000000266e+01 1.379435000000000002e+02 1.585829999999999927e+03
1.140000000000000041e-01 5.919545000000000501e-01 2.076575000000000060e+01 1.375010000000000048e+02 1.585700000000000045e+03
1.150000000000000050e-01 5.918409999999999505e-01 2.014525000000000077e+01 1.369939999999999998e+02 1.585549999999999955e+03
1.160000000000000059e-01 5.917139999999999622e-01 1.950404999999999944e+01 1.364259999999999877e+02 1.585384999999999991e+03
1.170000000000000068e-01 5.915755000000000319e-01 1.884479999999999933e+01 1.358025000000000091e+02 1.585199999999999818e+03
1.180000000000000077e-01 5.914270000000000360e-01 1.817154999999999987e+01 1.351315000000000168e+02 1.585000000000000000e+03
1.190000000000000085e-01 5.912720000000000198e-01 1.748935000000000173e+01 1.344244999999999948e+02 1.584784999999999854e+03
1.200000000000000094e-01 5.911124999999999297e-01 1.680414999999999992e+01 1.336924999999999955e+02 1.584559999999999945e+03
1.209999999999999964e-01 5.909519999999999218e-01 1.612265000000000015e+01 1.329490000000000123e+02 1.584335000000000036e+03
1.219999999999999973e-01 5.907930000000000126e-01 1.545185000000000031e+01 1.322079999999999984e+02 1.584105000000000018e+03
1.229999999999999982e-01 5.906390000000000251e-01 1.479904999999999937e+01 1.314830000000000041e+02 1.583875000000000000e+03
1.239999999999999991e-01 5.904925000000000868e-01 1.417139500000000041e+01 1.307884999999999991e+02 1.583660000000000082e+03
1.250000000000000000e-01 5.903565000000000618e-01 1.357546500000000123e+01 1.301370000000000005e+02 1.583444999999999936e+03
1.260000000000000009e-01 5.902330000000000076e-01 1.301746500000000140e+01 1.295400000000000205e+02 1.583250000000000000e+03
1.270000000000000018e-01 5.901245000000000518e-01 1.250241000000000113e+01 1.290079999999999814e+02 1.583075000000000045e+03
1.280000000000000027e-01 5.900320000000000009e-01 1.203449999999999953e+01 1.285475000000000136e+02 1.582914999999999964e+03
1.290000000000000036e-01 5.899559999999999249e-01 1.161660999999999966e+01 1.281655000000000086e+02 1.582775000000000091e+03
1.300000000000000044e-01 5.898984999999999923e-01 1.125029999999999930e+01 1.278640000000000043e+02 1.582664999999999964e+03
1.310000000000000053e-01 5.898579999999999934e-01 1.093591500000000138e+01 1.276434999999999889e+02 1.582579999999999927e+03
1.320000000000000062e-01 5.898335000000000106e-01 1.067251500000000064e+01 1.275030000000000143e+02 1.582509999999999991e+03
1.330000000000000071e-01 5.898250000000000437e-01 1.045797500000000113e+01 1.274370000000000118e+02 1.582470000000000027e+03
1.340000000000000080e-01 5.898305000000000353e-01 1.028922000000000025e+01 1.274404999999999859e+02 1.582450000000000045e+03
1.350000000000000089e-01 5.898484999999999978e-01 1.016233000000000075e+01 1.275054999999999836e+02 1.582450000000000045e+03
1.360000000000000098e-01 5.898764999999999148e-01 1.007274500000000117e+01 1.276235000000000070e+02 1.582470000000000027e+03
1.370000000000000107e-01 5.899130000000000207e-01 1.001540999999999926e+01 1.277849999999999966e+02 1.582500000000000000e+03
1.380000000000000115e-01 5.899554999999999660e-01 9.985244999999999038e+00 1.279805000000000064e+02 1.582545000000000073e+03
1.390000000000000124e-01 5.900030000000000552e-01 9.977019999999999555e+00 1.282005000000000052e+02 1.582599999999999909e+03
1.400000000000000133e-01 5.900529999999999387e-01 9.985704999999999387e+00 1.284360000000000070e+02 1.582659999999999854e+03
1.410000000000000142e-01 5.901035000000000030e-01 1.000665000000000049e+01 1.286790000000000020e+02 1.582724999999999909e+03
1.420000000000000151e-01 5.901530000000000387e-01 1.003560500000000033e+01 1.289230000000000018e+02 1.582795000000000073e+03
1.430000000000000160e-01 5.902020000000000044e-01 1.006883000000000017e+01 1.291610000000000014e+02 1.582860000000000127e+03
1.440000000000000169e-01 5.902479999999999949e-01 1.010315500000000100e+01 1.293899999999999864e+02 1.582929999999999836e+03
1.450000000000000178e-01 5.902914999999999690e-01 1.013596500000000056e+01 1.296050000000000182e+02 1.582994999999999891e+03
1.459999999999999909e-01 5.903315000000000090e-01 1.016530000000000022e+01 1.298050000000000068e+02 1.583055000000000064e+03
1.469999999999999918e-01 5.903684999999999627e-01 1.018977999999999895e+01 1.299889999999999759e+02 1.583115000000000009e+03
1.479999999999999927e-01 5.904019999999999824e-01 1.020845500000000072e+01 1.301569999999999823e+02 1.583170000000000073e+03
1.489999999999999936e-01 5.904329999999999856e-01 1.022090500000000013e+01 1.303100000000000023e+02 1.583220000000000027e+03
1.499999999999999944e-01 5.904610000000000136e-01 1.022714500000000015e+01 1.304495000000000005e+02 1.583264999999999873e+03
1.509999999999999953e-01 5.904875000000000540e-01 1.022748499999999972e+01 1.305779999999999745e+02 1.583304999999999836e+03
1.519999999999999962e-01 5.905124999999999957e-01 1.022251500000000135e+01 1.306974999999999909e+02 1.583349999999999909e+03
1.529999999999999971e-01 5.905359999999999498e-01 1.021312499999999979e+01 1.308095000000000141e+02 1.583384999999999991e+03
1.539999999999999980e-01 5.905595000000000150e-01 1.020026999999999973e+01 1.309189999999999827e+02 1.583420000000000073e+03
1.549999999999999989e-01 5.905829999999999691e-01 1.018488999999999933e+01 1.310264999999999986e+02 1.583460000000000036e+03
1.559999999999999998e-01 5.906074999999999520e-01 1.016809500000000099e+01 1.311349999999999909e+02 1.583494999999999891e+03
1.570000000000000007e-01 5.906325000000000047e-01 1.015076000000000001e+01 1.312460000000000093e+02 1.583529999999999973e+03
1.580000000000000016e-01 5.906584999999999752e-01 1.013382499999999986e+01 1.313609999999999900e+02 1.583570000000000164e+03
1.590000000000000024e-01 5.906860000000000444e-01 1.011786000000000030e+01 1.314819999999999993e+02 1.583610000000000127e+03
