# t [s], A [cm^2], U [cm/s], P [cPa], c [cm/s]
1.000000000000000021e-03 5.698060000000000347e-01 5.619200000000004747e-03 1.029050000000000011e+02 1.604115000000000009e+03
2.000000000000000042e-03 5.697955000000000103e-01 -2.972180000000000048e-03 1.028770000000000095e+02 1.604110000000000127e+03
3.000000000000000062e-03 5.698415000000000008e-01 8.476979999999997850e-02 1.029699999999999989e+02 1.604130000000000109e+03
4.000000000000000083e-03 5.698879999999999502e-01 1.836158499999999971e-01 1.030925000000000011e+02 1.604160000000000082e+03
5.000000000000000104e-03 5.698689999999999589e-01 1.683349000000000095e-01 1.030515000000000043e+02 1.604154999999999973e+03
6.000000000000000125e-03 5.698090000000000099e-01 6.991800000000000792e-02 1.028405000000000058e+02 1.604110000000000127e+03
7.000000000000000146e-03 5.697564999999999991e-01 -2.006099999999999550e-02 1.025724999999999909e+02 1.604039999999999964e+03
8.000000000000000167e-03 5.696820000000000217e-01 -1.647724999999999884e-01 1.021935000000000002e+02 1.603954999999999927e+03
9.000000000000001055e-03 5.695550000000000335e-01 -4.280350000000000543e-01 1.016064999999999969e+02 1.603815000000000055e+03
1.000000000000000194e-02 5.693734999999999769e-01 -8.099650000000000460e-01 1.007761500000000012e+02 1.603619999999999891e+03
1.099999999999999936e-02 5.691249999999999920e-01 -1.326240000000000308e+00 9.964440000000000452e+01 1.603349999999999909e+03
1.200000000000000025e-02 5.687934999999999519e-01 -1.991600000000000037e+00 9.814949999999998909e+01 1.602985000000000127e+03
1.300000000000000114e-02 5.683964999999999712e-01 -2.748314999999999841e+00 9.631770000000000209e+01 1.602529999999999973e+03
1.400000000000000203e-02 5.679890000000000772e-01 -3.457644999999999857e+00 9.430234999999998990e+01 1.602014999999999873e+03
1.499999999999999944e-02 5.676309999999999967e-01 -3.965841999999999867e+00 9.231819999999999027e+01 1.601485000000000127e+03
1.600000000000000033e-02 5.673550000000000537e-01 -4.175713270000000144e+00 9.054140000000001010e+01 1.600985000000000127e+03
1.700000000000000122e-02 5.671559999999999935e-01 -4.075381000000000142e+00 8.904540000000000077e+01 1.600534999999999854e+03
1.800000000000000211e-02 5.670005000000000184e-01 -3.724864499999999801e+00 8.779445000000001187e+01 1.600134999999999991e+03
1.900000000000000300e-02 5.668450000000000433e-01 -3.220886499999999764e+00 8.667704999999999416e+01 1.599755000000000109e+03
2.000000000000000042e-02 5.666539999999999910e-01 -2.658038050000000041e+00 8.555760000000000787e+01 1.599384999999999991e+03
2.100000000000000130e-02 5.664080000000000226e-01 -2.098308499999999910e+00 8.432720000000000482e+01 1.598990000000000009e+03
2.200000000000000219e-02 5.661089999999999733e-01 -1.557350000000000234e+00 8.293770000000000664e+01 1.598554999999999836e+03
2.299999999999999961e-02 5.657765000000000155e-01 -1.010825000000000085e+00 8.140819999999999368e+01 1.598095000000000027e+03
2.400000000000000050e-02 5.654365000000000085e-01 -4.164699999999998958e-01 7.980410000000000537e+01 1.597605000000000018e+03
2.500000000000000139e-02 5.651085000000000136e-01 2.592449999999999477e-01 7.820130000000000337e+01 1.597114999999999782e+03
2.600000000000000228e-02 5.648009999999999975e-01 1.020839999999999748e+00 7.665125000000000455e+01 1.596634999999999991e+03
2.700000000000000316e-02 5.645050000000000345e-01 1.835849999999999982e+00 7.515850000000000364e+01 1.596159999999999854e+03
2.800000000000000058e-02 5.642004999999999937e-01 2.639215000000000089e+00 7.367624999999999602e+01 1.595695000000000164e+03
2.900000000000000147e-02 5.638594999999999580e-01 3.346944999999999837e+00 7.211670000000000869e+01 1.595210000000000036e+03
3.000000000000000236e-02 5.634565000000000268e-01 3.875029999999999752e+00 7.037420000000000186e+01 1.594684999999999945e+03
3.099999999999999978e-02 5.629724999999999868e-01 4.158934999999999604e+00 6.835460000000000491e+01 1.594099999999999909e+03
3.200000000000000067e-02 5.624035000000000561e-01 4.169285000000000352e+00 6.600274999999999181e+01 1.593440000000000055e+03
3.300000000000000155e-02 5.617615000000000247e-01 3.918890000000000207e+00 6.332175000000000153e+01 1.592699999999999818e+03
3.400000000000000244e-02 5.610724999999999740e-01 3.458989999999999565e+00 6.037744999999999607e+01 1.591894999999999982e+03
3.500000000000000333e-02 5.603719999999999812e-01 2.867340000000000000e+00 5.728770000000000095e+01 1.591050000000000182e+03
3.600000000000000422e-02 5.596965000000000412e-01 2.231335000000000068e+00 5.420130000000000337e+01 1.590200000000000045e+03
3.700000000000000511e-02 5.590785000000000338e-01 1.633359999999999701e+00 5.127394999999999925e+01 1.589369999999999891e+03
3.799999999999999906e-02 5.585440000000000405e-01 1.139640000000000430e+00 4.864685000000000059e+01 1.588610000000000127e+03
3.899999999999999994e-02 5.581104999999999539e-01 7.957099999999996953e-01 4.643169999999999931e+01 1.587949999999999818e+03
4.000000000000000083e-02 5.577845000000000164e-01 6.264949999999998020e-01 4.470420000000000016e+01 1.587404999999999973e+03
4.100000000000000172e-02 5.575679999999999525e-01 6.402200000000000113e-01 4.350365000000000038e+01 1.586994999999999891e+03
4.200000000000000261e-02 5.574574999999999392e-01 8.342800000000000216e-01 4.283840000000000003e+01 1.586724999999999909e+03
4.300000000000000350e-02 5.574479999999999436e-01 1.201300999999999952e+00 4.269490000000000407e+01 1.586605000000000018e+03
4.400000000000000439e-02 5.575324999999999864e-01 1.734135499999999830e+00 4.304670000000000130e+01 1.586619999999999891e+03
4.499999999999999833e-02 5.577060000000000350e-01 2.428630500000000136e+00 4.386325000000000074e+01 1.586769999999999982e+03
4.599999999999999922e-02 5.579655000000000031e-01 3.283865000000000034e+00 4.511414999999999509e+01 1.587045000000000073e+03
4.700000000000000011e-02 5.583065000000000389e-01 4.300295000000000201e+00 4.677145000000000152e+01 1.587440000000000055e+03
4.800000000000000100e-02 5.587245000000000683e-01 5.476676500000000836e+00 4.880760000000000076e+01 1.587945000000000164e+03
4.900000000000000189e-02 5.592139999999999889e-01 6.807016499999999581e+00 5.119254999999999711e+01 1.588555000000000064e+03
5.000000000000000278e-02 5.597680000000000433e-01 8.278304999999999580e+00 5.389079999999999870e+01 1.589255000000000109e+03
5.100000000000000366e-02 5.603759999999999852e-01 9.869814999999999117e+00 5.685914999999999964e+01 1.590045000000000073e+03
5.200000000000000455e-02 5.610249999999999959e-01 1.155400000000000027e+01 6.004635000000000389e+01 1.590894999999999982e+03
5.300000000000000544e-02 5.617030000000000634e-01 1.329839000000000127e+01 6.339485000000000525e+01 1.591809999999999945e+03
5.399999999999999939e-02 5.623964999999999659e-01 1.506844500000000053e+01 6.684395000000000664e+01 1.592759999999999991e+03
5.500000000000000028e-02 5.630919999999999259e-01 1.683041500000000212e+01 7.033344999999999914e+01 1.593735000000000127e+03
5.600000000000000117e-02 5.637799999999999478e-01 1.855379999999999896e+01 7.380800000000000693e+01 1.594715000000000146e+03
5.700000000000000205e-02 5.644514999999999949e-01 2.021359999999999957e+01 7.722055000000000291e+01 1.595690000000000055e+03
5.800000000000000294e-02 5.651009999999999645e-01 2.179104999999999848e+01 8.053499999999999659e+01 1.596650000000000091e+03
5.900000000000000383e-02 5.657250000000000334e-01 2.327394999999999925e+01 8.372735000000000127e+01 1.597585000000000036e+03
6.000000000000000472e-02 5.663234999999999797e-01 2.465644999999999953e+01 8.678565000000000396e+01 1.598494999999999891e+03
6.099999999999999867e-02 5.668969999999999843e-01 2.593789999999999907e+01 8.970945000000000391e+01 1.599369999999999891e+03
6.199999999999999956e-02 5.674495000000000511e-01 2.712184999999999846e+01 9.250675000000001091e+01 1.600210000000000036e+03
6.300000000000000044e-02 5.679845000000000033e-01 2.821499999999999986e+01 9.519379999999999598e+01 1.601025000000000091e+03
6.400000000000000133e-02 5.685054999999999970e-01 2.922589999999999932e+01 9.779139999999999588e+01 1.601815000000000055e+03
6.500000000000000222e-02 5.690184999999999826e-01 3.016440000000000055e+01 1.003221499999999935e+02 1.602585000000000036e+03
6.600000000000000311e-02 5.695270000000000055e-01 3.104029999999999845e+01 1.028091000000000008e+02 1.603340000000000146e+03
6.700000000000000400e-02 5.700344999999999995e-01 3.186289999999999978e+01 1.052740000000000009e+02 1.604090000000000146e+03
6.800000000000000488e-02 5.705455000000000387e-01 3.264025000000000176e+01 1.077350000000000136e+02 1.604840000000000146e+03
6.900000000000000577e-02 5.710600000000000120e-01 3.337814999999999799e+01 1.102050000000000125e+02 1.605579999999999927e+03
7.000000000000000666e-02 5.715795000000000181e-01 3.408034999999999570e+01 1.126899999999999977e+02 1.606329999999999927e+03
7.100000000000000755e-02 5.721024999999999583e-01 3.474734999999999729e+01 1.151905000000000001e+02 1.607079999999999927e+03
7.200000000000000844e-02 5.726269999999999971e-01 3.537725000000000364e+01 1.176974999999999909e+02 1.607835000000000036e+03
7.300000000000000933e-02 5.731494999999999784e-01 3.596529999999999916e+01 1.201990000000000123e+02 1.608590000000000146e+03
7.399999999999999634e-02 5.736645000000000216e-01 3.650469999999999970e+01 1.226730000000000018e+02 1.609335000000000036e+03
7.499999999999999722e-02 5.741680000000000117e-01 3.698714999999999975e+01 1.250974999999999966e+02 1.610070000000000164e+03
7.599999999999999811e-02 5.746534999999999282e-01 3.740359999999999729e+01 1.274454999999999956e+02 1.610779999999999973e+03
7.699999999999999900e-02 5.751165000000000305e-01 3.774510000000000076e+01 1.296899999999999977e+02 1.611464999999999918e+03
7.799999999999999989e-02 5.755510000000000348e-01 3.800314999999999799e+01 1.318040000000000020e+02 1.612119999999999891e+03
7.900000000000000078e-02 5.759520000000000195e-01 3.817064999999999486e+01 1.337644999999999982e+02 1.612730000000000018e+03
8.000000000000000167e-02 5.763169999999999682e-01 3.824219999999999686e+01 1.355509999999999877e+02 1.613295000000000073e+03
8.100000000000000255e-02 5.766430000000000167e-01 3.821419999999999817e+01 1.371475000000000080e+02 1.613809999999999945e+03
8.200000000000000344e-02 5.769279999999999964e-01 3.808525000000000205e+01 1.385444999999999993e+02 1.614269999999999982e+03
8.300000000000000433e-02 5.771720000000000184e-01 3.785620000000000118e+01 1.397359999999999900e+02 1.614664999999999964e+03
8.400000000000000522e-02 5.773745000000000127e-01 3.752994999999999948e+01 1.407219999999999800e+02 1.615005000000000109e+03
8.500000000000000611e-02 5.775375000000000369e-01 3.711155000000000115e+01 1.415074999999999932e+02 1.615289999999999964e+03
8.600000000000000699e-02 5.776630000000000376e-01 3.660795000000000243e+01 1.421020000000000039e+02 1.615515000000000100e+03
8.700000000000000788e-02 5.777544999999999487e-01 3.602774999999999750e+01 1.425190000000000055e+02 1.615690000000000055e+03
8.800000000000000877e-02 5.778140000000000498e-01 3.538119999999999976e+01 1.427760000000000105e+02 1.615809999999999945e+03
8.899999999999999578e-02 5.778475000000000694e-01 3.467950000000000443e+01 1.428924999999999841e+02 1.615889999999999873e+03
8.999999999999999667e-02 5.778579999999999828e-01 3.393475000000000108e+01 1.428890000000000100e+02 1.615929999999999836e+03
9.099999999999999756e-02 5.778499999999999748e-01 3.315944999999999965e+01 1.427895000000000039e+02 1.615934999999999945e+03
9.199999999999999845e-02 5.778289999999999260e-01 3.236594999999999800e+01 1.426169999999999902e+02 1.615914999999999964e+03
9.299999999999999933e-02 5.777984999999999927e-01 3.156630000000000180e+01 1.423915000000000077e+02 1.615880000000000109e+03
9.400000000000000022e-02 5.777619999999999978e-01 3.077120000000000033e+01 1.421349999999999909e+02 1.615824999999999818e+03
9.500000000000000111e-02 5.777244999999999742e-01 2.999029999999999774e+01 1.418654999999999973e+02 1.615764999999999873e+03
9.600000000000000200e-02 5.776864999999999917e-01 2.923129999999999740e+01 1.415964999999999918e+02 1.615694999999999936e+03
9.700000000000000289e-02 5.776514999999999844e-01 2.850000000000000000e+01 1.413404999999999916e+02 1.615625000000000000e+03
9.800000000000000377e-02 5.776194999999999524e-01 2.779995000000000260e+01 1.411050000000000182e+02 1.615565000000000055e+03
9.900000000000000466e-02 5.775909999999999656e-01 2.713244999999999862e+01 1.408924999999999841e+02 1.615494999999999891e+03
1.000000000000000056e-01 5.775665000000000937e-01 2.649690000000000012e+01 1.407024999999999864e+02 1.615440000000000055e+03
1.010000000000000064e-01 5.775430000000000286e-01 2.589059999999999917e+01 1.405314999999999941e+02 1.615384999999999991e+03
1.020000000000000073e-01 5.775204999999999922e-01 2.530940000000000012e+01 1.403704999999999927e+02 1.615335000000000036e+03
1.030000000000000082e-01 5.774960000000000093e-01 2.474759999999999849e+01 1.402119999999999891e+02 1.615284999999999854e+03
1.040000000000000091e-01 5.774669999999999526e-01 2.419894999999999996e+01 1.400420000000000016e+02 1.615230000000000018e+03
1.050000000000000100e-01 5.774314999999999864e-01 2.365650000000000119e+01 1.398500000000000227e+02 1.615170000000000073e+03
1.059999999999999970e-01 5.773865000000000247e-01 2.311319999999999908e+01 1.396214999999999975e+02 1.615099999999999909e+03
1.069999999999999979e-01 5.773295000000000510e-01 2.256240000000000023e+01 1.393460000000000036e+02 1.615019999999999982e+03
1.079999999999999988e-01 5.772595000000000365e-01 2.199790000000000134e+01 1.390110000000000241e+02 1.614929999999999836e+03
1.089999999999999997e-01 5.771739999999999648e-01 2.141460000000000008e+01 1.386089999999999804e+02 1.614815000000000055e+03
1.100000000000000006e-01 5.770720000000000294e-01 2.080854999999999677e+01 1.381324999999999932e+02 1.614679999999999836e+03
1.110000000000000014e-01 5.769545000000000368e-01 2.017725000000000080e+01 1.375774999999999864e+02 1.614529999999999973e+03
1.120000000000000023e-01 5.768195000000000405e-01 1.951995000000000147e+01 1.369435000000000002e+02 1.614355000000000018e+03
1.130000000000000032e-01 5.766694999999999460e-01 1.883739999999999881e+01 1.362334999999999923e+02 1.614159999999999854e+03
1.140000000000000041e-01 5.765055000000000041e-01 1.813220000000000098e+01 1.354524999999999864e+02 1.613940000000000055e+03
1.150000000000000050e-01 5.763295000000000501e-01 1.740845000000000198e+01 1.346100000000000136e+02 1.613704999999999927e+03
1.160000000000000059e-01 5.761445000000000594e-01 1.667194999999999894e+01 1.337164999999999964e+02 1.613449999999999818e+03
1.170000000000000068e-01 5.759535000000000071e-01 1.592950000000000088e+01 1.327874999999999943e+02 1.613190000000000055e+03
1.180000000000000077e-01 5.757590000000000208e-01 1.518912000000000084e+01 1.318369999999999891e+02 1.612920000000000073e+03
1.190000000000000085e-01 5.755654999999999522e-01 1.445937499999999964e+01 1.308834999999999980e+02 1.612644999999999982e+03
1.200000000000000094e-01 5.753770000000000273e-01 1.374916999999999945e+01 1.299439999999999884e+02 1.612369999999999891e+03
1.209999999999999964e-01 5.751960000000000406e-01 1.306728999999999985e+01 1.290355000000000132e+02 1.612105000000000018e+03
1.219999999999999973e-01 5.750260000000000371e-01 1.242213999999999885e+01 1.281750000000000114e+02 1.611849999999999909e+03
1.229999999999999982e-01 5.748699999999999921e-01 1.182121500000000047e+01 1.273770000000000095e+02 1.611610000000000127e+03
1.239999999999999991e-01 5.747299999999999631e-01 1.127104500000000087e+01 1.266539999999999964e+02 1.611384999999999991e+03
1.250000000000000000e-01 5.746080000000000076e-01 1.077665499999999987e+01 1.260164999999999935e+02 1.611184999999999945e+03
1.260000000000000009e-01 5.745055000000000023e-01 1.034165499999999938e+01 1.254705000000000013e+02 1.611009999999999991e+03
1.270000000000000018e-01 5.744219999999999882e-01 9.967995000000000161e+00 1.250210000000000008e+02 1.610855000000000018e+03
1.280000000000000027e-01 5.743580000000000352e-01 9.655915000000000248e+00 1.246674999999999898e+02 1.610735000000000127e+03
1.290000000000000036e-01 5.743125000000000036e-01 9.403990000000000293e+00 1.244085000000000036e+02 1.610634999999999991e+03
1.300000000000000044e-01 5.742844999999999756e-01 9.209455000000000169e+00 1.242379999999999995e+02 1.610559999999999945e+03
1.310000000000000053e-01 5.742715000000000458e-01 9.068229999999999791e+00 1.241485000000000127e+02 1.610514999999999873e+03
1.320000000000000062e-01 5.742715000000000458e-01 8.975125000000000242e+00 1.241304999999999978e+02 1.610490000000000009e+03
1.330000000000000071e-01 5.742825000000000291e-01 8.924240000000001061e+00 1.241719999999999970e+02 1.610474999999999909e+03
1.340000000000000080e-01 5.743019999999999792e-01 8.909159999999999968e+00 1.242624999999999886e+02 1.610485000000000127e+03
1.350000000000000089e-01 5.743280000000000607e-01 8.923280000000000101e+00 1.243889999999999958e+02 1.610505000000000109e+03
1.360000000000000098e-01 5.743574999999999653e-01 8.960079999999999600e+00 1.245395000000000039e+02 1.610535000000000082e+03
1.370000000000000107e-01 5.743884999999999685e-01 9.013284999999999769e+00 1.247040000000000077e+02 1.610569999999999936e+03
1.380000000000000115e-01 5.744195000000000828e-01 9.077120000000000744e+00 1.248725000000000023e+02 1.610610000000000127e+03
1.390000000000000124e-01 5.744489999999999874e-01 9.146315000000001305e+00 1.250364999999999895e+02 1.610650000000000091e+03
1.400000000000000133e-01 5.744754999999999168e-01 9.216544999999999987e+00 1.251885000000000048e+02 1.610684999999999945e+03
1.410000000000000142e-01 5.744985000000000230e-01 9.283999999999998920e+00 1.253250000000000028e+02 1.610720000000000027e+03
1.420000000000000151e-01 5.745175000000000143e-01 9.345860000000000056e+00 1.254419999999999931e+02 1.610755000000000109e+03
1.430000000000000160e-01 5.745325000000000015e-01 9.399954999999998506e+00 1.255384999999999991e+02 1.610779999999999973e+03
1.440000000000000169e-01 5.745434999999999848e-01 9.444970000000001420e+00 1.256129999999999995e+02 1.610805000000000064e+03
1.450000000000000178e-01 5.745504999999999640e-01 9.480235000000000412e+00 1.256665000000000134e+02 1.610820000000000164e+03
1.459999999999999909e-01 5.745544999999999680e-01 9.505720000000000169e+00 1.257024999999999864e+02 1.610835000000000036e+03
1.469999999999999918e-01 5.745550000000000379e-01 9.521959999999999980e+00 1.257229999999999990e+02 1.610839999999999918e+03
1.479999999999999927e-01 5.745550000000000379e-01 9.529840000000000089e+00 1.257305000000000064e+02 1.610844999999999800e+03
1.489999999999999936e-01 5.745525000000000215e-01 9.530719999999998748e+00 1.257309999999999945e+02 1.610849999999999909e+03
1.499999999999999944e-01 5.745504999999999640e-01 9.526049999999999685e+00 1.257265000000000015e+02 1.610855000000000018e+03
1.509999999999999953e-01 5.745489999999999764e-01 9.517620000000000857e+00 1.257214999999999918e+02 1.610849999999999909e+03
1.519999999999999962e-01 5.745480000000000587e-01 9.507094999999999629e+00 1.257205000000000013e+02 1.610855000000000018e+03
1.529999999999999971e-01 5.745495000000000463e-01 9.496064999999999756e+00 1.257254999999999967e+02 1.610860000000000127e+03
1.539999999999999980e-01 5.745529999999999804e-01 9.486084999999999212e+00 1.257400000000000091e+02 1.610865000000000009e+03
1.549999999999999989e-01 5.745595000000000008e-01 9.478335000000001287e+00 1.257650000000000006e+02 1.610869999999999891e+03
1.559999999999999998e-01 5.745679999999999676e-01 9.473815000000000097e+00 1.258029999999999973e+02 1.610884999999999991e+03
1.570000000000000007e-01 5.745799999999999796e-01 9.473110000000000142e+00 1.258534999999999968e+02 1.610894999999999982e+03
1.580000000000000016e-01 5.745940000000000492e-01 9.476510000000001099e+00 1.259170000000000016e+02 1.610914999999999964e+03
1.590000000000000024e-01 5.746100000000000652e-01 9.484004999999999797e+00 1.259909999999999997e+02 1.610930000000000064e+03
