# t [s], A [cm^2], U [cm/s], P [cPa], c [cm/s]
1.000000000000000021e-03 6.812070000000000070e-01 6.745500000000001495e-03 9.336499999999999488e+01 1.795295000000000073e+03
2.000000000000000042e-03 6.811964999999999826e-01 8.115500000000028941e-05 9.332850000000000534e+01 1.795284999999999854e+03
3.000000000000000062e-03 6.812639999999999807e-01 1.301089500000000010e-01 9.348310000000000741e+01 1.795320000000000164e+03
4.000000000000000083e-03 6.813005000000000866e-01 2.221732000000000151e-01 9.359629999999999939e+01 1.795345000000000027e+03
5.000000000000000104e-03 6.812389999999999279e-01 1.432824999999999793e-01 9.341904999999999859e+01 1.795309999999999945e+03
6.000000000000000125e-03 6.811625000000000041e-01 2.784500000000000863e-02 9.309055000000000746e+01 1.795240000000000009e+03
7.000000000000000146e-03 6.810869999999999980e-01 -1.006049999999999445e-01 9.267895000000000039e+01 1.795154999999999973e+03
8.000000000000000167e-03 6.809439999999999937e-01 -3.728699999999999237e-01 9.200974999999999682e+01 1.795014999999999873e+03
9.000000000000001055e-03 6.807279999999999998e-01 -8.043850000000000167e-01 9.101210000000000377e+01 1.794809999999999945e+03
1.000000000000000194e-02 6.804235000000000699e-01 -1.413350000000000328e+00 8.961189999999999145e+01 1.794514999999999873e+03
1.099999999999999936e-02 6.800055000000000405e-01 -2.231184999999999974e+00 8.770599999999998886e+01 1.794115000000000009e+03
1.200000000000000025e-02 6.795080000000000009e-01 -3.169540000000000024e+00 8.535529999999999973e+01 1.793610000000000127e+03
1.300000000000000114e-02 6.790270000000000472e-01 -4.011210999999999416e+00 8.284990000000000521e+01 1.793045000000000073e+03
1.400000000000000203e-02 6.786499999999999755e-01 -4.543621499999999536e+00 8.054579999999999984e+01 1.792505000000000109e+03
1.499999999999999944e-02 6.784044999999999659e-01 -4.675035000000000274e+00 7.866749999999998977e+01 1.792034999999999854e+03
1.600000000000000033e-02 6.782524999999999249e-01 -4.453139999999999432e+00 7.722675000000000978e+01 1.791634999999999991e+03
1.700000000000000122e-02 6.781239999999999490e-01 -4.012694999999999901e+00 7.606175000000000352e+01 1.791295000000000073e+03
1.800000000000000211e-02 6.779539999999999456e-01 -3.501339999999999897e+00 7.493934999999999036e+01 1.790970000000000027e+03
1.900000000000000300e-02 6.777070000000000594e-01 -3.017282999999999937e+00 7.366530000000000200e+01 1.790619999999999891e+03
2.000000000000000042e-02 6.773865000000000025e-01 -2.579591500000000259e+00 7.215935000000000343e+01 1.790220000000000027e+03
2.100000000000000130e-02 6.770279999999999632e-01 -2.139775000000000205e+00 7.046754999999998859e+01 1.789785000000000082e+03
2.200000000000000219e-02 6.766744999999999566e-01 -1.624829999999999774e+00 6.871304999999999552e+01 1.789335000000000036e+03
2.299999999999999961e-02 6.763544999999999696e-01 -9.867399999999999505e-01 6.701890000000000214e+01 1.788894999999999982e+03
2.400000000000000050e-02 6.760684999999999611e-01 -2.349900000000000322e-01 6.544015000000000271e+01 1.788465000000000146e+03
2.500000000000000139e-02 6.757895000000000429e-01 5.574649999999998773e-01 6.393244999999999578e+01 1.788059999999999945e+03
2.600000000000000228e-02 6.754725000000000312e-01 1.271725000000000216e+00 6.235954999999999870e+01 1.787634999999999991e+03
2.700000000000000316e-02 6.750690000000000301e-01 1.775795000000000012e+00 6.053399999999999892e+01 1.787164999999999964e+03
2.800000000000000058e-02 6.745434999999999626e-01 1.962940000000000129e+00 5.827785000000000082e+01 1.786615000000000009e+03
2.900000000000000147e-02 6.738859999999999850e-01 1.784344999999999626e+00 5.548444999999999538e+01 1.785954999999999927e+03
3.000000000000000236e-02 6.731184999999999530e-01 1.264384999999999870e+00 5.216145000000000209e+01 1.785184999999999945e+03
3.099999999999999978e-02 6.722865000000000091e-01 4.924499999999998323e-01 4.843720000000000425e+01 1.784324999999999818e+03
3.200000000000000067e-02 6.714525000000000077e-01 -4.039099999999997692e-01 4.453109999999999502e+01 1.783420000000000073e+03
3.300000000000000155e-02 6.706725000000000048e-01 -1.291900000000000048e+00 4.070315000000000083e+01 1.782509999999999991e+03
3.400000000000000244e-02 6.699939999999999785e-01 -2.059754999999999558e+00 3.720284999999999798e+01 1.781664999999999964e+03
3.500000000000000333e-02 6.694470000000000143e-01 -2.631249999999999645e+00 3.423094999999999999e+01 1.780909999999999854e+03
3.600000000000000422e-02 6.690439999999999721e-01 -2.967389999999999972e+00 3.192024999999999579e+01 1.780304999999999836e+03
3.700000000000000511e-02 6.687855000000000327e-01 -3.059728500000000295e+00 3.033409999999999940e+01 1.779845000000000027e+03
3.799999999999999906e-02 6.686630000000000074e-01 -2.918430000000000302e+00 2.947834999999999894e+01 1.779559999999999945e+03
3.899999999999999994e-02 6.686654999999999127e-01 -2.559859999999999580e+00 2.932114999999999938e+01 1.779440000000000055e+03
4.000000000000000083e-02 6.687849999999999628e-01 -1.996707999999999927e+00 2.981419999999999959e+01 1.779480000000000018e+03
4.100000000000000172e-02 6.690130000000000798e-01 -1.233334999999999848e+00 3.090905000000000058e+01 1.779664999999999964e+03
4.200000000000000261e-02 6.693464999999999554e-01 -2.667500000000000426e-01 3.256519999999999726e+01 1.779985000000000127e+03
4.300000000000000350e-02 6.697830000000000172e-01 9.079850000000000421e-01 3.474934999999999974e+01 1.780444999999999936e+03
4.400000000000000439e-02 6.703174999999998995e-01 2.290749999999999620e+00 3.742849999999999966e+01 1.781029999999999973e+03
4.499999999999999833e-02 6.709415000000000795e-01 3.870519999999999960e+00 4.056119999999999948e+01 1.781724999999999909e+03
4.599999999999999922e-02 6.716420000000000723e-01 5.622489999999999988e+00 4.409114999999999895e+01 1.782525000000000091e+03
4.700000000000000011e-02 6.724004999999999566e-01 7.508931500000000092e+00 4.794485000000000241e+01 1.783400000000000091e+03
4.800000000000000100e-02 6.731979999999999631e-01 9.482541000000001219e+00 5.203425000000000011e+01 1.784355000000000018e+03
4.900000000000000189e-02 6.740135000000000431e-01 1.149198499999999967e+01 5.626300000000000523e+01 1.785355000000000018e+03
5.000000000000000278e-02 6.748279999999999834e-01 1.348751500000000014e+01 6.053555000000000064e+01 1.786369999999999891e+03
5.100000000000000366e-02 6.756260000000000598e-01 1.542566500000000040e+01 6.476550000000000296e+01 1.787394999999999982e+03
5.200000000000000455e-02 6.763954999999999274e-01 1.727264999999999873e+01 6.888275000000000148e+01 1.788404999999999973e+03
5.300000000000000544e-02 6.771310000000000384e-01 1.900574999999999903e+01 7.283830000000000382e+01 1.789389999999999873e+03
5.399999999999999939e-02 6.778299999999999326e-01 2.061294999999999789e+01 7.660505000000000564e+01 1.790340000000000146e+03
5.500000000000000028e-02 6.784939999999999305e-01 2.209149999999999991e+01 8.017719999999999914e+01 1.791250000000000000e+03
5.600000000000000117e-02 6.791279999999999539e-01 2.344610000000000127e+01 8.356659999999999400e+01 1.792115000000000009e+03
5.700000000000000205e-02 6.797374999999999945e-01 2.468670000000000186e+01 8.679875000000001251e+01 1.792954999999999927e+03
5.800000000000000294e-02 6.803304999999999492e-01 2.582659999999999911e+01 8.990800000000000125e+01 1.793759999999999991e+03
5.900000000000000383e-02 6.809144999999999781e-01 2.688064999999999927e+01 9.293354999999999677e+01 1.794545000000000073e+03
6.000000000000000472e-02 6.814964999999999495e-01 2.786379999999999768e+01 9.591345000000001164e+01 1.795315000000000055e+03
6.099999999999999867e-02 6.820815000000000072e-01 2.878969999999999985e+01 9.888309999999999889e+01 1.796079999999999927e+03
6.199999999999999956e-02 6.826745000000000729e-01 2.966914999999999836e+01 1.018703500000000020e+02 1.796845000000000027e+03
6.300000000000000044e-02 6.832769999999999122e-01 3.050915000000000177e+01 1.048906999999999954e+02 1.797615000000000009e+03
6.400000000000000133e-02 6.838880000000000514e-01 3.131210000000000093e+01 1.079490000000000123e+02 1.798400000000000091e+03
6.500000000000000222e-02 6.845054999999999890e-01 3.207569999999999766e+01 1.110360000000000014e+02 1.799184999999999945e+03
6.600000000000000311e-02 6.851225000000000787e-01 3.279330000000000211e+01 1.141315000000000026e+02 1.799970000000000027e+03
6.700000000000000400e-02 6.857324999999999671e-01 3.345495000000000374e+01 1.172044999999999959e+02 1.800755000000000109e+03
6.800000000000000488e-02 6.863274999999999793e-01 3.404849999999999710e+01 1.202164999999999964e+02 1.801525000000000091e+03
6.900000000000000577e-02 6.868994999999999962e-01 3.456114999999999782e+01 1.231264999999999930e+02 1.802279999999999973e+03
7.000000000000000666e-02 6.874405000000000099e-01 3.498069999999999879e+01 1.258919999999999959e+02 1.802994999999999891e+03
7.100000000000000755e-02 6.879435000000000411e-01 3.529645000000000010e+01 1.284750000000000227e+02 1.803674999999999955e+03
7.200000000000000844e-02 6.884025000000000283e-01 3.550005000000000166e+01 1.308425000000000011e+02 1.804300000000000182e+03
7.300000000000000933e-02 6.888134999999999675e-01 3.558570000000000277e+01 1.329680000000000177e+02 1.804869999999999891e+03
7.399999999999999634e-02 6.891734999999999944e-01 3.555080000000000240e+01 1.348340000000000032e+02 1.805380000000000109e+03
7.499999999999999722e-02 6.894819999999999283e-01 3.539549999999999841e+01 1.364304999999999950e+02 1.805825000000000045e+03
7.599999999999999811e-02 6.897385000000000321e-01 3.512310000000000088e+01 1.377560000000000002e+02 1.806204999999999927e+03
7.699999999999999900e-02 6.899450000000000305e-01 3.473980000000000246e+01 1.388170000000000073e+02 1.806514999999999873e+03
7.799999999999999989e-02 6.901049999999999685e-01 3.425450000000000017e+01 1.396285000000000025e+02 1.806764999999999873e+03
7.900000000000000078e-02 6.902215000000000433e-01 3.367869999999999919e+01 1.402094999999999914e+02 1.806960000000000036e+03
8.000000000000000167e-02 6.903010000000000534e-01 3.302620000000000289e+01 1.405854999999999961e+02 1.807099999999999909e+03
8.100000000000000255e-02 6.903494999999999493e-01 3.231250000000000000e+01 1.407874999999999943e+02 1.807184999999999945e+03
8.200000000000000344e-02 6.903725000000000556e-01 3.155405000000000371e+01 1.408485000000000014e+02 1.807240000000000009e+03
8.300000000000000433e-02 6.903770000000000184e-01 3.076810000000000045e+01 1.408009999999999877e+02 1.807255000000000109e+03
8.400000000000000522e-02 6.903694999999999693e-01 2.997094999999999843e+01 1.406800000000000068e+02 1.807255000000000109e+03
8.500000000000000611e-02 6.903555000000000108e-01 2.917794999999999916e+01 1.405165000000000077e+02 1.807235000000000127e+03
8.600000000000000699e-02 6.903394999999999948e-01 2.840229999999999677e+01 1.403389999999999986e+02 1.807204999999999927e+03
8.700000000000000788e-02 6.903259999999999952e-01 2.765460000000000207e+01 1.401689999999999827e+02 1.807174999999999955e+03
8.800000000000000877e-02 6.903174999999999173e-01 2.694214999999999804e+01 1.400235000000000127e+02 1.807140000000000100e+03
8.899999999999999578e-02 6.903150000000000119e-01 2.626899999999999835e+01 1.399124999999999943e+02 1.807115000000000009e+03
8.999999999999999667e-02 6.903179999999999872e-01 2.563595000000000113e+01 1.398385000000000105e+02 1.807094999999999800e+03
9.099999999999999756e-02 6.903250000000000774e-01 2.504070000000000107e+01 1.397984999999999900e+02 1.807079999999999927e+03
9.199999999999999845e-02 6.903354999999999908e-01 2.447829999999999728e+01 1.397835000000000036e+02 1.807069999999999936e+03
9.299999999999999933e-02 6.903449999999999864e-01 2.394169999999999732e+01 1.397794999999999845e+02 1.807065000000000055e+03
9.400000000000000022e-02 6.903500000000000192e-01 2.342220000000000013e+01 1.397694999999999936e+02 1.807059999999999945e+03
9.500000000000000111e-02 6.903475000000000028e-01 2.291039999999999921e+01 1.397350000000000136e+02 1.807045000000000073e+03
9.600000000000000200e-02 6.903334999999999333e-01 2.239650000000000318e+01 1.396555000000000177e+02 1.807025000000000091e+03
9.700000000000000289e-02 6.903045000000000986e-01 2.187105000000000032e+01 1.395135000000000218e+02 1.806990000000000009e+03
9.800000000000000377e-02 6.902580000000000382e-01 2.132540000000000191e+01 1.392914999999999850e+02 1.806940000000000055e+03
9.900000000000000466e-02 6.901915000000000688e-01 2.075280000000000058e+01 1.389759999999999991e+02 1.806869999999999891e+03
1.000000000000000056e-01 6.901029999999999109e-01 2.014809999999999945e+01 1.385575000000000045e+02 1.806775000000000091e+03
1.010000000000000064e-01 6.899929999999999675e-01 1.950874999999999915e+01 1.380319999999999823e+02 1.806650000000000091e+03
1.020000000000000073e-01 6.898630000000000040e-01 1.883484999999999943e+01 1.374004999999999939e+02 1.806505000000000109e+03
1.030000000000000082e-01 6.897135000000000904e-01 1.812919999999999732e+01 1.366700000000000159e+02 1.806335000000000036e+03
1.040000000000000091e-01 6.895480000000000498e-01 1.739705000000000013e+01 1.358525000000000205e+02 1.806139999999999873e+03
1.050000000000000100e-01 6.893709999999999560e-01 1.664620000000000033e+01 1.349660000000000082e+02 1.805929999999999836e+03
1.059999999999999970e-01 6.891869999999999941e-01 1.588649999999999984e+01 1.340310000000000059e+02 1.805710000000000036e+03
1.069999999999999979e-01 6.890000000000000568e-01 1.512904999999999944e+01 1.330734999999999957e+02 1.805474999999999909e+03
1.079999999999999988e-01 6.888164999999999427e-01 1.438573500000000038e+01 1.321184999999999832e+02 1.805244999999999891e+03
1.089999999999999997e-01 6.886410000000000586e-01 1.366881000000000057e+01 1.311930000000000121e+02 1.805009999999999991e+03
1.100000000000000006e-01 6.884774999999999645e-01 1.298974999999999902e+01 1.303229999999999791e+02 1.804795000000000073e+03
1.110000000000000014e-01 6.883319999999999439e-01 1.235909499999999994e+01 1.295294999999999845e+02 1.804594999999999800e+03
1.120000000000000023e-01 6.882070000000000132e-01 1.178555000000000064e+01 1.288340000000000032e+02 1.804409999999999854e+03
1.130000000000000032e-01 6.881040000000000489e-01 1.127585499999999996e+01 1.282495000000000118e+02 1.804250000000000000e+03
1.140000000000000041e-01 6.880254999999999566e-01 1.083431500000000014e+01 1.277854999999999990e+02 1.804119999999999891e+03
1.150000000000000050e-01 6.879705000000000403e-01 1.046258500000000069e+01 1.274459999999999980e+02 1.804019999999999982e+03
1.160000000000000059e-01 6.879390000000000782e-01 1.015991500000000158e+01 1.272295000000000016e+02 1.803945000000000164e+03
1.170000000000000068e-01 6.879290000000000127e-01 9.923224999999998630e+00 1.271289999999999907e+02 1.803900000000000091e+03
1.180000000000000077e-01 6.879379999999999384e-01 9.747299999999999187e+00 1.271324999999999932e+02 1.803880000000000109e+03
1.190000000000000085e-01 6.879629999999999912e-01 9.625360000000000582e+00 1.272259999999999991e+02 1.803884999999999991e+03
1.200000000000000094e-01 6.879994999999999861e-01 9.549369999999999692e+00 1.273924999999999983e+02 1.803909999999999854e+03
1.209999999999999964e-01 6.880450000000000177e-01 9.510585000000000733e+00 1.276119999999999948e+02 1.803949999999999818e+03
1.219999999999999973e-01 6.880950000000000122e-01 9.500070000000000903e+00 1.278665000000000020e+02 1.804000000000000000e+03
1.229999999999999982e-01 6.881470000000000642e-01 9.508995000000000530e+00 1.281384999999999934e+02 1.804054999999999836e+03
1.239999999999999991e-01 6.881975000000000176e-01 9.529040000000000177e+00 1.284105000000000132e+02 1.804110000000000127e+03
1.250000000000000000e-01 6.882440000000000779e-01 9.552769999999998873e+00 1.286684999999999945e+02 1.804170000000000073e+03
1.260000000000000009e-01 6.882844999999999658e-01 9.573750000000000426e+00 1.289010000000000105e+02 1.804224999999999909e+03
1.270000000000000018e-01 6.883185000000000553e-01 9.586619999999999919e+00 1.290989999999999895e+02 1.804275000000000091e+03
1.280000000000000027e-01 6.883434999999999970e-01 9.587405000000000399e+00 1.292570000000000050e+02 1.804315000000000055e+03
1.290000000000000036e-01 6.883610000000000007e-01 9.573284999999998490e+00 1.293710000000000093e+02 1.804340000000000146e+03
1.300000000000000044e-01 6.883694999999999675e-01 9.542670000000001096e+00 1.294415000000000191e+02 1.804360000000000127e+03
1.310000000000000053e-01 6.883704999999999963e-01 9.495115000000000194e+00 1.294695000000000107e+02 1.804375000000000000e+03
1.320000000000000062e-01 6.883650000000000047e-01 9.431309999999999860e+00 1.294600000000000080e+02 1.804380000000000109e+03
1.330000000000000071e-01 6.883529999999999927e-01 9.352835000000000676e+00 1.294180000000000064e+02 1.804375000000000000e+03
1.340000000000000080e-01 6.883380000000000054e-01 9.261974999999999625e+00 1.293499999999999943e+02 1.804365000000000009e+03
1.350000000000000089e-01 6.883194999999999730e-01 9.161599999999999966e+00 1.292640000000000100e+02 1.804345000000000027e+03
1.360000000000000098e-01 6.883004999999999818e-01 9.054904999999999760e+00 1.291680000000000064e+02 1.804325000000000045e+03
1.370000000000000107e-01 6.882814999999999905e-01 8.945319999999998828e+00 1.290685000000000002e+02 1.804300000000000182e+03
1.380000000000000115e-01 6.882639999999999869e-01 8.836019999999999541e+00 1.289724999999999966e+02 1.804285000000000082e+03
1.390000000000000124e-01 6.882489999999999997e-01 8.730000000000000426e+00 1.288874999999999886e+02 1.804260000000000218e+03
1.400000000000000133e-01 6.882380000000000164e-01 8.629694999999999894e+00 1.288170000000000073e+02 1.804244999999999891e+03
1.410000000000000142e-01 6.882300000000000084e-01 8.536915000000000475e+00 1.287640000000000100e+02 1.804235000000000127e+03
1.420000000000000151e-01 6.882265000000000743e-01 8.452905000000001223e+00 1.287305000000000064e+02 1.804224999999999909e+03
1.430000000000000160e-01 6.882270000000000332e-01 8.378035000000000565e+00 1.287160000000000082e+02 1.804215000000000146e+03
1.440000000000000169e-01 6.882295000000000496e-01 8.312060000000000670e+00 1.287185000000000059e+02 1.804215000000000146e+03
1.450000000000000178e-01 6.882355000000000000e-01 8.254139999999999588e+00 1.287350000000000136e+02 1.804220000000000027e+03
1.459999999999999909e-01 6.882420000000000204e-01 8.202964999999998952e+00 1.287620000000000005e+02 1.804224999999999909e+03
1.469999999999999918e-01 6.882500000000000284e-01 8.156919999999999504e+00 1.287930000000000064e+02 1.804230000000000018e+03
1.479999999999999927e-01 6.882570000000000077e-01 8.114280000000000825e+00 1.288249999999999886e+02 1.804240000000000009e+03
1.489999999999999936e-01 6.882624999999999993e-01 8.073364999999999014e+00 1.288519999999999754e+02 1.804244999999999891e+03
1.499999999999999944e-01 6.882654999999999745e-01 8.032714999999999606e+00 1.288695000000000164e+02 1.804244999999999891e+03
1.509999999999999953e-01 6.882665000000000033e-01 7.991205000000000780e+00 1.288759999999999764e+02 1.804250000000000000e+03
1.519999999999999962e-01 6.882645000000000568e-01 7.948109999999999786e+00 1.288679999999999950e+02 1.804244999999999891e+03
1.529999999999999971e-01 6.882595000000000240e-01 7.903164999999999552e+00 1.288449999999999989e+02 1.804240000000000009e+03
1.539999999999999980e-01 6.882519999999999749e-01 7.856559999999999988e+00 1.288079999999999927e+02 1.804230000000000018e+03
1.549999999999999989e-01 6.882420000000000204e-01 7.808894999999999698e+00 1.287590000000000146e+02 1.804224999999999909e+03
1.559999999999999998e-01 6.882300000000000084e-01 7.761085000000000456e+00 1.286995000000000005e+02 1.804210000000000036e+03
1.570000000000000007e-01 6.882175000000000376e-01 7.714349999999999596e+00 1.286345000000000027e+02 1.804195000000000164e+03
1.580000000000000016e-01 6.882044999999999968e-01 7.670065000000000133e+00 1.285679999999999836e+02 1.804175000000000182e+03
1.590000000000000024e-01 6.881924999999999848e-01 7.629719999999999835e+00 1.285035000000000025e+02 1.804160000000000082e+03
