# t [s], A [cm^2], U [cm/s], P [cPa], c [cm/s]
1.000000000000000021e-03 1.809319999999999817e-01 2.660959499999999700e-01 8.947965000000000657e+01 2.260074999999999818e+03
2.000000000000000042e-03 1.808839999999999892e-01 1.626278500000000182e+00 8.622575000000000500e+01 2.259625000000000000e+03
3.000000000000000062e-03 1.807624999999999926e-01 3.337730499999999711e+00 8.159605000000000530e+01 2.258539999999999964e+03
4.000000000000000083e-03 1.806030000000000135e-01 5.294954499999999342e+00 7.661825000000000330e+01 2.257130000000000109e+03
5.000000000000000104e-03 1.804385000000000017e-01 7.415549999999999642e+00 7.227859999999999729e+01 2.255684999999999945e+03
6.000000000000000125e-03 1.802839999999999998e-01 9.473390000000000200e+00 6.877575000000000216e+01 2.254345000000000255e+03
7.000000000000000146e-03 1.801399999999999946e-01 1.123012999999999906e+01 6.570519999999999072e+01 2.253140000000000327e+03
8.000000000000000167e-03 1.800110000000000043e-01 1.265677499999999966e+01 6.291844999999999999e+01 2.252069999999999709e+03
9.000000000000001055e-03 1.799005000000000187e-01 1.381619999999999848e+01 6.057625000000000171e+01 2.251164999999999964e+03
1.000000000000000194e-02 1.798104999999999842e-01 1.473610000000000042e+01 5.872880000000000678e+01 2.250440000000000055e+03
1.099999999999999936e-02 1.797404999999999975e-01 1.543549999999999933e+01 5.732465000000000543e+01 2.249880000000000109e+03
1.200000000000000025e-02 1.796860000000000124e-01 1.592109999999999914e+01 5.625759999999999650e+01 2.249454999999999927e+03
1.300000000000000114e-02 1.796415000000000095e-01 1.618629999999999924e+01 5.534360000000000213e+01 2.249114999999999782e+03
1.400000000000000203e-02 1.796045000000000003e-01 1.628399999999999892e+01 5.450454999999999472e+01 2.248835000000000036e+03
1.499999999999999944e-02 1.795785000000000020e-01 1.637859999999999872e+01 5.400600000000000023e+01 2.248640000000000327e+03
1.600000000000000033e-02 1.795765000000000000e-01 1.668074999999999974e+01 5.438590000000000657e+01 2.248630000000000109e+03
1.700000000000000122e-02 1.796089999999999909e-01 1.731434999999999746e+01 5.607200000000000273e+01 2.248899999999999636e+03
1.800000000000000211e-02 1.796780000000000044e-01 1.822889999999999944e+01 5.901359999999999673e+01 2.249454999999999927e+03
1.900000000000000300e-02 1.797719999999999874e-01 1.921705000000000041e+01 6.260835000000000150e+01 2.250224999999999909e+03
2.000000000000000042e-02 1.798714999999999897e-01 2.001360000000000028e+01 6.594554999999999723e+01 2.251050000000000182e+03
2.100000000000000130e-02 1.799520000000000008e-01 2.041234999999999999e+01 6.819395000000000095e+01 2.251739999999999782e+03
2.200000000000000219e-02 1.799995000000000067e-01 2.034250000000000114e+01 6.892504999999999882e+01 2.252164999999999964e+03
2.299999999999999961e-02 1.800094999999999890e-01 1.987825000000000131e+01 6.823265000000000668e+01 2.252279999999999745e+03
2.400000000000000050e-02 1.799894999999999967e-01 1.918659999999999854e+01 6.662135000000000673e+01 2.252140000000000327e+03
2.500000000000000139e-02 1.799525000000000152e-01 1.844594999999999985e+01 6.474469999999999459e+01 2.251845000000000255e+03
2.600000000000000228e-02 1.799124999999999752e-01 1.777410000000000068e+01 6.312619999999999720e+01 2.251519999999999982e+03
2.700000000000000316e-02 1.798775000000000235e-01 1.719474999999999909e+01 6.198225000000000051e+01 2.251225000000000364e+03
2.800000000000000058e-02 1.798500000000000099e-01 1.664849999999999852e+01 6.119984999999999786e+01 2.250989999999999782e+03
2.900000000000000147e-02 1.798240000000000116e-01 1.603549999999999898e+01 6.045015000000000072e+01 2.250769999999999982e+03
3.000000000000000236e-02 1.797920000000000074e-01 1.527079999999999949e+01 5.937375000000000114e+01 2.250515000000000327e+03
3.099999999999999978e-02 1.797469999999999901e-01 1.433044999999999902e+01 5.776344999999999885e+01 2.250154999999999745e+03
3.200000000000000067e-02 1.796889999999999876e-01 1.327294999999999980e+01 5.567699999999999960e+01 2.249689999999999600e+03
3.300000000000000155e-02 1.796245000000000203e-01 1.222818999999999967e+01 5.344254999999999711e+01 2.249155000000000200e+03
3.400000000000000244e-02 1.795630000000000004e-01 1.135834999999999972e+01 5.155490000000000350e+01 2.248645000000000437e+03
3.500000000000000333e-02 1.795189999999999841e-01 1.080589499999999958e+01 5.050750000000000028e+01 2.248265000000000327e+03
3.600000000000000422e-02 1.795019999999999949e-01 1.064901499999999857e+01 5.062434999999999974e+01 2.248105000000000018e+03
3.700000000000000511e-02 1.795180000000000109e-01 1.087909999999999933e+01 5.195380000000000109e+01 2.248215000000000146e+03
3.799999999999999906e-02 1.795644999999999880e-01 1.140455000000000041e+01 5.425339999999999918e+01 2.248570000000000164e+03
3.899999999999999994e-02 1.796325000000000005e-01 1.207635000000000147e+01 5.705769999999999698e+01 2.249109999999999673e+03
4.000000000000000083e-02 1.797084999999999932e-01 1.272414999999999985e+01 5.979859999999999332e+01 2.249729999999999563e+03
4.100000000000000172e-02 1.797770000000000201e-01 1.319159999999999933e+01 6.193545000000000300e+01 2.250300000000000182e+03
4.200000000000000261e-02 1.798254999999999992e-01 1.336309999999999931e+01 6.306040000000000134e+01 2.250715000000000146e+03
4.300000000000000350e-02 1.798450000000000049e-01 1.317650000000000077e+01 6.295765000000000100e+01 2.250890000000000327e+03
4.400000000000000439e-02 1.798305000000000042e-01 1.262304999999999922e+01 6.161099999999999710e+01 2.250789999999999964e+03
4.499999999999999833e-02 1.797819999999999974e-01 1.173641999999999896e+01 5.916740000000000066e+01 2.250409999999999854e+03
4.599999999999999922e-02 1.797040000000000026e-01 1.057653499999999980e+01 5.587525000000000119e+01 2.249779999999999745e+03
4.700000000000000011e-02 1.796034999999999993e-01 9.213574999999998738e+00 5.201805000000000234e+01 2.248960000000000036e+03
4.800000000000000100e-02 1.794864999999999933e-01 7.716425000000000090e+00 4.786189999999999856e+01 2.248005000000000109e+03
4.900000000000000189e-02 1.793609999999999927e-01 6.146404999999999674e+00 4.362524999999999409e+01 2.246970000000000255e+03
5.000000000000000278e-02 1.792314999999999880e-01 4.557141500000000178e+00 3.947310000000000230e+01 2.245904999999999745e+03
5.100000000000000366e-02 1.791034999999999988e-01 2.997342999999999869e+00 3.552895000000000181e+01 2.244845000000000255e+03
5.200000000000000455e-02 1.789810000000000012e-01 1.515144999999999742e+00 3.189440000000000097e+01 2.243829999999999927e+03
5.300000000000000544e-02 1.788675000000000126e-01 1.611849999999999117e-01 2.866870000000000118e+01 2.242885000000000218e+03
5.399999999999999939e-02 1.787674999999999959e-01 -1.010464999999999947e+00 2.596054999999999779e+01 2.242045000000000073e+03
5.500000000000000028e-02 1.786834999999999951e-01 -1.944081400000000182e+00 2.388969999999999771e+01 2.241340000000000146e+03
5.600000000000000117e-02 1.786200000000000010e-01 -2.586224999999999774e+00 2.257925000000000182e+01 2.240800000000000182e+03
5.700000000000000205e-02 1.785820000000000185e-01 -2.890830000000000233e+00 2.214135000000000275e+01 2.240465000000000146e+03
5.800000000000000294e-02 1.785709999999999797e-01 -2.824219999999999953e+00 2.266080000000000183e+01 2.240349999999999909e+03
5.900000000000000383e-02 1.785904999999999854e-01 -2.368945000000000078e+00 2.418175000000000097e+01 2.240480000000000018e+03
6.000000000000000472e-02 1.786409999999999942e-01 -1.525773999999999964e+00 2.669890000000000185e+01 2.240864999999999782e+03
6.099999999999999867e-02 1.787210000000000187e-01 -3.137250000000000316e-01 3.015610000000000213e+01 2.241505000000000109e+03
6.199999999999999956e-02 1.788305000000000033e-01 1.231719999999999926e+00 3.445085000000000264e+01 2.242380000000000109e+03
6.300000000000000044e-02 1.789649999999999852e-01 3.061601000000000017e+00 3.944400000000000261e+01 2.243475000000000364e+03
6.400000000000000133e-02 1.791214999999999891e-01 5.117255499999999735e+00 4.497124999999999773e+01 2.244744999999999891e+03
6.500000000000000222e-02 1.792934999999999945e-01 7.334400000000000475e+00 5.085645000000000238e+01 2.246159999999999854e+03
6.600000000000000311e-02 1.794769999999999976e-01 9.647269999999998902e+00 5.692425000000000068e+01 2.247675000000000182e+03
6.700000000000000400e-02 1.796670000000000211e-01 1.199277000000000015e+01 6.301184999999999548e+01 2.249244999999999891e+03
6.800000000000000488e-02 1.798580000000000179e-01 1.431389500000000048e+01 6.897929999999999495e+01 2.250829999999999927e+03
6.900000000000000577e-02 1.800459999999999838e-01 1.656334999999999980e+01 7.471784999999999854e+01 2.252399999999999636e+03
7.000000000000000666e-02 1.802279999999999993e-01 1.870534999999999926e+01 8.015524999999999523e+01 2.253930000000000291e+03
7.100000000000000755e-02 1.804024999999999934e-01 2.071730000000000160e+01 8.525825000000000387e+01 2.255399999999999636e+03
7.200000000000000844e-02 1.805684999999999929e-01 2.258954999999999913e+01 9.003069999999999595e+01 2.256795000000000073e+03
7.300000000000000933e-02 1.807245000000000101e-01 2.432399999999999807e+01 9.450815000000000055e+01 2.258119999999999891e+03
7.399999999999999634e-02 1.808739999999999792e-01 2.593189999999999884e+01 9.874930000000000518e+01 2.259385000000000218e+03
7.499999999999999722e-02 1.810170000000000112e-01 2.743099999999999739e+01 1.028258500000000026e+02 2.260595000000000255e+03
7.599999999999999811e-02 1.811554999999999971e-01 2.884199999999999875e+01 1.068130000000000024e+02 2.261774999999999636e+03
7.699999999999999900e-02 1.812920000000000087e-01 3.018574999999999875e+01 1.107775000000000034e+02 2.262934999999999945e+03
7.799999999999999989e-02 1.814274999999999916e-01 3.148069999999999879e+01 1.147715000000000032e+02 2.264085000000000036e+03
7.900000000000000078e-02 1.815644999999999898e-01 3.274089999999999634e+01 1.188284999999999911e+02 2.265244999999999891e+03
8.000000000000000167e-02 1.817020000000000024e-01 3.397499999999999432e+01 1.229615000000000009e+02 2.266414999999999964e+03
8.100000000000000255e-02 1.818420000000000036e-01 3.518580000000000041e+01 1.271625000000000085e+02 2.267599999999999909e+03
8.200000000000000344e-02 1.819830000000000059e-01 3.637049999999999983e+01 1.314029999999999916e+02 2.268795000000000073e+03
8.300000000000000433e-02 1.821250000000000091e-01 3.752110000000000412e+01 1.356435000000000173e+02 2.270005000000000109e+03
8.400000000000000522e-02 1.822659999999999836e-01 3.862555000000000405e+01 1.398315000000000055e+02 2.271199999999999818e+03
8.500000000000000611e-02 1.824040000000000106e-01 3.966844999999999999e+01 1.439080000000000155e+02 2.272375000000000000e+03
8.600000000000000699e-02 1.825384999999999924e-01 4.063250000000000028e+01 1.478120000000000118e+02 2.273525000000000091e+03
8.700000000000000788e-02 1.826669999999999960e-01 4.149944999999999595e+01 1.514834999999999923e+02 2.274619999999999891e+03
8.800000000000000877e-02 1.827874999999999917e-01 4.225130000000000052e+01 1.548650000000000091e+02 2.275655000000000200e+03
8.899999999999999578e-02 1.828985000000000194e-01 4.287139999999999418e+01 1.579069999999999823e+02 2.276605000000000018e+03
8.999999999999999667e-02 1.829989999999999950e-01 4.334544999999999959e+01 1.605690000000000168e+02 2.277470000000000255e+03
9.099999999999999756e-02 1.830869999999999997e-01 4.366275000000000261e+01 1.628185000000000002e+02 2.278230000000000018e+03
9.199999999999999845e-02 1.831619999999999915e-01 4.381654999999999944e+01 1.646399999999999864e+02 2.278885000000000218e+03
9.299999999999999933e-02 1.832234999999999836e-01 4.380509999999999593e+01 1.660280000000000200e+02 2.279420000000000073e+03
9.400000000000000022e-02 1.832715000000000038e-01 4.363159999999999883e+01 1.669934999999999832e+02 2.279840000000000146e+03
9.500000000000000111e-02 1.833064999999999833e-01 4.330434999999999945e+01 1.675600000000000023e+02 2.280150000000000091e+03
9.600000000000000200e-02 1.833285000000000053e-01 4.283639999999999759e+01 1.677624999999999886e+02 2.280349999999999909e+03
9.700000000000000289e-02 1.833390000000000020e-01 4.224474999999999625e+01 1.676475000000000080e+02 2.280460000000000036e+03
9.800000000000000377e-02 1.833400000000000030e-01 4.154945000000000022e+01 1.672680000000000007e+02 2.280474999999999909e+03
9.900000000000000466e-02 1.833325000000000093e-01 4.077270000000000039e+01 1.666814999999999998e+02 2.280420000000000073e+03
1.000000000000000056e-01 1.833184999999999953e-01 3.993744999999999834e+01 1.659449999999999932e+02 2.280309999999999945e+03
1.010000000000000064e-01 1.832989999999999897e-01 3.906640000000000157e+01 1.651154999999999973e+02 2.280154999999999745e+03
1.020000000000000073e-01 1.832770000000000232e-01 3.818115000000000236e+01 1.642454999999999927e+02 2.279965000000000146e+03
1.030000000000000082e-01 1.832524999999999848e-01 3.730105000000000359e+01 1.633784999999999741e+02 2.279760000000000218e+03
1.040000000000000091e-01 1.832274999999999876e-01 3.644270000000000209e+01 1.625519999999999925e+02 2.279554999999999836e+03
1.050000000000000100e-01 1.832044999999999924e-01 3.561920000000000641e+01 1.617930000000000064e+02 2.279349999999999909e+03
1.059999999999999970e-01 1.831820000000000115e-01 3.483960000000000434e+01 1.611184999999999832e+02 2.279164999999999964e+03
1.069999999999999979e-01 1.831619999999999915e-01 3.410914999999999964e+01 1.605349999999999966e+02 2.278989999999999782e+03
1.079999999999999988e-01 1.831440000000000012e-01 3.342875000000000085e+01 1.600395000000000039e+02 2.278829999999999927e+03
1.089999999999999997e-01 1.831280000000000130e-01 3.279529999999999745e+01 1.596175000000000068e+02 2.278690000000000055e+03
1.100000000000000006e-01 1.831139999999999990e-01 3.220210000000000150e+01 1.592470000000000141e+02 2.278569999999999709e+03
1.110000000000000014e-01 1.831015000000000004e-01 3.163959999999999795e+01 1.588999999999999773e+02 2.278454999999999927e+03
1.120000000000000023e-01 1.830890000000000017e-01 3.109580000000000055e+01 1.585420000000000016e+02 2.278345000000000255e+03
1.130000000000000032e-01 1.830755000000000021e-01 3.055749999999999744e+01 1.581370000000000005e+02 2.278230000000000018e+03
1.140000000000000041e-01 1.830605000000000149e-01 3.001079999999999970e+01 1.576494999999999891e+02 2.278105000000000018e+03
1.150000000000000050e-01 1.830430000000000113e-01 2.944265000000000043e+01 1.570455000000000041e+02 2.277944999999999709e+03
1.160000000000000059e-01 1.830209999999999892e-01 2.884134999999999849e+01 1.562965000000000089e+02 2.277765000000000327e+03
1.170000000000000068e-01 1.829949999999999910e-01 2.819754999999999967e+01 1.553814999999999884e+02 2.277539999999999964e+03
1.180000000000000077e-01 1.829635000000000011e-01 2.750484999999999758e+01 1.542889999999999873e+02 2.277279999999999745e+03
1.190000000000000085e-01 1.829264999999999919e-01 2.676039999999999708e+01 1.530155000000000030e+02 2.276970000000000255e+03
1.200000000000000094e-01 1.828845000000000054e-01 2.596509999999999962e+01 1.515695000000000050e+02 2.276609999999999673e+03
1.209999999999999964e-01 1.828369999999999995e-01 2.512365000000000137e+01 1.499685000000000059e+02 2.276215000000000146e+03
1.219999999999999973e-01 1.827849999999999753e-01 2.424419999999999931e+01 1.482394999999999925e+02 2.275774999999999636e+03
1.229999999999999982e-01 1.827294999999999892e-01 2.333814999999999884e+01 1.464180000000000064e+02 2.275300000000000182e+03
1.239999999999999991e-01 1.826710000000000000e-01 2.241915000000000191e+01 1.445439999999999827e+02 2.274810000000000400e+03
1.250000000000000000e-01 1.826109999999999955e-01 2.150260000000000105e+01 1.426614999999999895e+02 2.274305000000000291e+03
1.260000000000000009e-01 1.825515000000000054e-01 2.060464999999999947e+01 1.408154999999999859e+02 2.273795000000000073e+03
1.270000000000000018e-01 1.824925000000000019e-01 1.974119999999999919e+01 1.390490000000000066e+02 2.273295000000000073e+03
1.280000000000000027e-01 1.824359999999999871e-01 1.892715000000000103e+01 1.374010000000000105e+02 2.272815000000000055e+03
1.290000000000000036e-01 1.823835000000000039e-01 1.817530000000000001e+01 1.359044999999999845e+02 2.272364999999999782e+03
1.300000000000000044e-01 1.823355000000000115e-01 1.749630000000000152e+01 1.345844999999999914e+02 2.271954999999999927e+03
1.310000000000000053e-01 1.822929999999999828e-01 1.689754999999999896e+01 1.334585000000000150e+02 2.271590000000000146e+03
1.320000000000000062e-01 1.822564999999999880e-01 1.638360000000000127e+01 1.325339999999999918e+02 2.271275000000000091e+03
1.330000000000000071e-01 1.822259999999999991e-01 1.595570000000000022e+01 1.318114999999999952e+02 2.271010000000000218e+03
1.340000000000000080e-01 1.822014999999999885e-01 1.561200000000000188e+01 1.312824999999999989e+02 2.270789999999999964e+03
1.350000000000000089e-01 1.821829999999999838e-01 1.534809999999999874e+01 1.309325000000000045e+02 2.270630000000000109e+03
1.360000000000000098e-01 1.821699999999999986e-01 1.515725000000000122e+01 1.307415000000000020e+02 2.270510000000000218e+03
1.370000000000000107e-01 1.821619999999999906e-01 1.503079999999999927e+01 1.306854999999999905e+02 2.270434999999999945e+03
1.380000000000000115e-01 1.821579999999999866e-01 1.495884999999999998e+01 1.307384999999999877e+02 2.270394999999999982e+03
1.390000000000000124e-01 1.821575000000000000e-01 1.493064999999999998e+01 1.308745000000000118e+02 2.270385000000000218e+03
1.400000000000000133e-01 1.821595000000000020e-01 1.493520000000000003e+01 1.310649999999999977e+02 2.270404999999999745e+03
1.410000000000000142e-01 1.821635000000000060e-01 1.496170000000000044e+01 1.312844999999999800e+02 2.270429999999999836e+03
1.420000000000000151e-01 1.821689999999999976e-01 1.499974999999999881e+01 1.315109999999999957e+02 2.270469999999999800e+03
1.430000000000000160e-01 1.821745000000000170e-01 1.504005000000000081e+01 1.317224999999999966e+02 2.270514999999999873e+03
1.440000000000000169e-01 1.821794999999999942e-01 1.507445000000000057e+01 1.319029999999999916e+02 2.270559999999999945e+03
1.450000000000000178e-01 1.821834999999999982e-01 1.509625000000000128e+01 1.320394999999999754e+02 2.270595000000000255e+03
1.459999999999999909e-01 1.821865000000000012e-01 1.510045000000000037e+01 1.321225000000000023e+02 2.270619999999999891e+03
1.469999999999999918e-01 1.821884999999999755e-01 1.508370000000000033e+01 1.321475000000000080e+02 2.270640000000000327e+03
1.479999999999999927e-01 1.821884999999999755e-01 1.504445000000000121e+01 1.321140000000000043e+02 2.270639999999999873e+03
1.489999999999999936e-01 1.821869999999999878e-01 1.498270000000000124e+01 1.320250000000000057e+02 2.270630000000000109e+03
1.499999999999999944e-01 1.821840000000000126e-01 1.490010000000000012e+01 1.318874999999999886e+02 2.270605000000000018e+03
1.509999999999999953e-01 1.821800000000000086e-01 1.479950000000000010e+01 1.317115000000000009e+02 2.270569999999999709e+03
1.519999999999999962e-01 1.821744999999999892e-01 1.468465000000000131e+01 1.315074999999999932e+02 2.270525000000000091e+03
1.529999999999999971e-01 1.821679999999999966e-01 1.456015000000000015e+01 1.312889999999999873e+02 2.270474999999999909e+03
1.539999999999999980e-01 1.821619999999999906e-01 1.443069999999999986e+01 1.310679999999999836e+02 2.270420000000000073e+03
1.549999999999999989e-01 1.821550000000000114e-01 1.430095000000000027e+01 1.308565000000000111e+02 2.270364999999999782e+03
1.559999999999999998e-01 1.821490000000000054e-01 1.417520000000000024e+01 1.306644999999999754e+02 2.270314999999999600e+03
1.570000000000000007e-01 1.821435000000000137e-01 1.405695000000000050e+01 1.305000000000000000e+02 2.270265000000000327e+03
1.580000000000000016e-01 1.821384999999999810e-01 1.394880000000000031e+01 1.303675000000000068e+02 2.270220000000000255e+03
1.590000000000000024e-01 1.821345000000000047e-01 1.385229999999999961e+01 1.302694999999999936e+02 2.270190000000000055e+03
