# t [s], A [cm^2], U [cm/s], P [cPa], c [cm/s]
1.000000000000000021e-03 1.920244999999999869e-01 2.453305000000000069e-01 9.263240000000000407e+01 2.151110000000000127e+03
2.000000000000000042e-03 1.919780000000000098e-01 1.624064999999999870e+00 8.955564999999999998e+01 2.150730000000000018e+03
3.000000000000000062e-03 1.918500000000000205e-01 3.360464499999999965e+00 8.519190000000000396e+01 2.149755000000000109e+03
4.000000000000000083e-03 1.916744999999999977e-01 5.333587499999999260e+00 8.036519999999998731e+01 2.148435000000000400e+03
5.000000000000000104e-03 1.914869999999999906e-01 7.475089999999999790e+00 7.599370000000000402e+01 2.147029999999999745e+03
6.000000000000000125e-03 1.913075000000000192e-01 9.607820000000000249e+00 7.240324999999999989e+01 2.145704999999999927e+03
7.000000000000000146e-03 1.911395000000000177e-01 1.150372500000000109e+01 6.933379999999999654e+01 2.144494999999999891e+03
8.000000000000000167e-03 1.909855000000000025e-01 1.307881000000000071e+01 6.655124999999999602e+01 2.143399999999999636e+03
9.000000000000001055e-03 1.908509999999999929e-01 1.437669999999999959e+01 6.413499999999999091e+01 2.142460000000000036e+03
1.000000000000000194e-02 1.907379999999999909e-01 1.543414999999999893e+01 6.217470000000000141e+01 2.141680000000000291e+03
1.099999999999999936e-02 1.906474999999999975e-01 1.626859999999999928e+01 6.065014999999999645e+01 2.141059999999999945e+03
1.200000000000000025e-02 1.905760000000000232e-01 1.689410000000000167e+01 5.949455000000000382e+01 2.140585000000000036e+03
1.300000000000000114e-02 1.905200000000000227e-01 1.731005000000000038e+01 5.858490000000000464e+01 2.140215000000000146e+03
1.400000000000000203e-02 1.904744999999999910e-01 1.752765000000000128e+01 5.778600000000000136e+01 2.139914999999999964e+03
1.499999999999999944e-02 1.904370000000000229e-01 1.762679999999999936e+01 5.712295000000000300e+01 2.139680000000000291e+03
1.600000000000000033e-02 1.904150000000000009e-01 1.776249999999999929e+01 5.688060000000000116e+01 2.139545000000000073e+03
1.700000000000000122e-02 1.904195000000000193e-01 1.809459999999999980e+01 5.746880000000000166e+01 2.139585000000000036e+03
1.800000000000000211e-02 1.904585000000000028e-01 1.869590000000000174e+01 5.914159999999999684e+01 2.139850000000000364e+03
1.900000000000000300e-02 1.905314999999999925e-01 1.950670000000000215e+01 6.178594999999999970e+01 2.140359999999999673e+03
2.000000000000000042e-02 1.906280000000000197e-01 2.036010000000000275e+01 6.491509999999999536e+01 2.141029999999999745e+03
2.100000000000000130e-02 1.907289999999999819e-01 2.105425000000000324e+01 6.785009999999999764e+01 2.141744999999999891e+03
2.200000000000000219e-02 1.908165000000000000e-01 2.143205000000000027e+01 6.997690000000000055e+01 2.142380000000000109e+03
2.299999999999999961e-02 1.908750000000000169e-01 2.143234999999999957e+01 7.095654999999999291e+01 2.142819999999999709e+03
2.400000000000000050e-02 1.909005000000000007e-01 2.109830000000000183e+01 7.080840000000000600e+01 2.143029999999999745e+03
2.500000000000000139e-02 1.908974999999999977e-01 2.054540000000000077e+01 6.984985000000000355e+01 2.143025000000000091e+03
2.600000000000000228e-02 1.908745000000000025e-01 1.990700000000000003e+01 6.853509999999999991e+01 2.142880000000000109e+03
2.700000000000000316e-02 1.908434999999999993e-01 1.928369999999999962e+01 6.727049999999999841e+01 2.142670000000000073e+03
2.800000000000000058e-02 1.908139999999999836e-01 1.871374999999999744e+01 6.627979999999999450e+01 2.142460000000000036e+03
2.900000000000000147e-02 1.907880000000000131e-01 1.817269999999999897e+01 6.556165000000000020e+01 2.142274999999999636e+03
3.000000000000000236e-02 1.907645000000000035e-01 1.759680000000000177e+01 6.493729999999999336e+01 2.142110000000000127e+03
3.099999999999999978e-02 1.907369999999999899e-01 1.691870000000000118e+01 6.415879999999999939e+01 2.141914999999999964e+03
3.200000000000000067e-02 1.907004999999999950e-01 1.610190000000000055e+01 6.303130000000000166e+01 2.141664999999999964e+03
3.300000000000000155e-02 1.906525000000000025e-01 1.516345000000000098e+01 6.150945000000000107e+01 2.141335000000000036e+03
3.400000000000000244e-02 1.905939999999999857e-01 1.417709999999999937e+01 5.973529999999999518e+01 2.140934999999999945e+03
3.500000000000000333e-02 1.905334999999999945e-01 1.325605000000000011e+01 5.800799999999999557e+01 2.140510000000000218e+03
3.600000000000000422e-02 1.904804999999999970e-01 1.252175000000000082e+01 5.669589999999999463e+01 2.140135000000000218e+03
3.700000000000000511e-02 1.904454999999999898e-01 1.206970000000000098e+01 5.612429999999999808e+01 2.139880000000000109e+03
3.799999999999999906e-02 1.904369999999999952e-01 1.194284999999999997e+01 5.647679999999999723e+01 2.139800000000000182e+03
3.899999999999999994e-02 1.904580000000000162e-01 1.212150000000000105e+01 5.774174999999999613e+01 2.139929999999999836e+03
4.000000000000000083e-02 1.905060000000000087e-01 1.252885000000000026e+01 5.971374999999999744e+01 2.140239999999999782e+03
4.100000000000000172e-02 1.905720000000000192e-01 1.304969999999999963e+01 6.204469999999999885e+01 2.140694999999999709e+03
4.200000000000000261e-02 1.906454999999999955e-01 1.355519999999999925e+01 6.432294999999999163e+01 2.141199999999999818e+03
4.300000000000000350e-02 1.907139999999999946e-01 1.392654999999999887e+01 6.615680000000000405e+01 2.141679999999999836e+03
4.400000000000000439e-02 1.907654999999999768e-01 1.407290000000000063e+01 6.724254999999999427e+01 2.142055000000000291e+03
4.499999999999999833e-02 1.907925000000000038e-01 1.394055000000000000e+01 6.740449999999999875e+01 2.142250000000000000e+03
4.599999999999999922e-02 1.907889999999999864e-01 1.351399999999999935e+01 6.660284999999998945e+01 2.142244999999999891e+03
4.700000000000000011e-02 1.907555000000000223e-01 1.280940000000000012e+01 6.491469999999999629e+01 2.142019999999999982e+03
4.800000000000000100e-02 1.906935000000000158e-01 1.186450500000000119e+01 6.249660000000000082e+01 2.141599999999999909e+03
4.900000000000000189e-02 1.906079999999999997e-01 1.072818000000000005e+01 5.954290000000000305e+01 2.141010000000000218e+03
5.000000000000000278e-02 1.905040000000000067e-01 9.451595000000001079e+00 5.624875000000000114e+01 2.140295000000000073e+03
5.100000000000000366e-02 1.903885000000000161e-01 8.083080000000000709e+00 5.278655000000000541e+01 2.139484999999999673e+03
5.200000000000000455e-02 1.902659999999999907e-01 6.666665000000000063e+00 4.929595000000000482e+01 2.138625000000000000e+03
5.300000000000000544e-02 1.901410000000000045e-01 5.242985000000000007e+00 4.588694999999999879e+01 2.137744999999999891e+03
5.399999999999999939e-02 1.900169999999999915e-01 3.851877500000000065e+00 4.265009999999999479e+01 2.136875000000000000e+03
5.500000000000000028e-02 1.898990000000000122e-01 2.534636499999999959e+00 3.966915000000000191e+01 2.136039999999999964e+03
5.600000000000000117e-02 1.897900000000000142e-01 1.335339999999999971e+00 3.703085000000000093e+01 2.135269999999999982e+03
5.700000000000000205e-02 1.896930000000000005e-01 3.005449999999998401e-01 3.482954999999999757e+01 2.134579999999999927e+03
5.800000000000000294e-02 1.896125000000000171e-01 -5.226949999999999097e-01 3.316564999999999941e+01 2.134000000000000000e+03
5.900000000000000383e-02 1.895525000000000126e-01 -1.089965999999999990e+00 3.213875000000000171e+01 2.133559999999999945e+03
6.000000000000000472e-02 1.895155000000000034e-01 -1.363160499999999997e+00 3.183745000000000047e+01 2.133289999999999964e+03
6.099999999999999867e-02 1.895054999999999934e-01 -1.313979999999999926e+00 3.232890000000000441e+01 2.133195000000000164e+03
6.199999999999999956e-02 1.895239999999999980e-01 -9.265942500000000637e-01 3.364985000000000070e+01 2.133304999999999836e+03
6.300000000000000044e-02 1.895725000000000049e-01 -1.991199999999999637e-01 3.580100000000000193e+01 2.133625000000000000e+03
6.400000000000000133e-02 1.896510000000000140e-01 8.562699999999999756e-01 3.874599999999999511e+01 2.134149999999999636e+03
6.500000000000000222e-02 1.897579999999999822e-01 2.214338999999999835e+00 4.241389999999999816e+01 2.134885000000000218e+03
6.600000000000000311e-02 1.898910000000000042e-01 3.838773000000000213e+00 4.670504999999999995e+01 2.135795000000000073e+03
6.700000000000000400e-02 1.900465000000000071e-01 5.684744999999999493e+00 5.149884999999999735e+01 2.136875000000000000e+03
6.800000000000000488e-02 1.902200000000000002e-01 7.701805000000000234e+00 5.666259999999999764e+01 2.138079999999999927e+03
6.900000000000000577e-02 1.904075000000000073e-01 9.836949999999999861e+00 6.206060000000000088e+01 2.139394999999999982e+03
7.000000000000000666e-02 1.906039999999999957e-01 1.203758000000000017e+01 6.756234999999999502e+01 2.140774999999999636e+03
7.100000000000000755e-02 1.908060000000000034e-01 1.425454000000000043e+01 7.305074999999999363e+01 2.142194999999999709e+03
7.200000000000000844e-02 1.910080000000000111e-01 1.644425000000000026e+01 7.842805000000001314e+01 2.143625000000000000e+03
7.300000000000000933e-02 1.912070000000000158e-01 1.857110000000000127e+01 8.362090000000000600e+01 2.145045000000000073e+03
7.399999999999999634e-02 1.914015000000000022e-01 2.060845000000000127e+01 8.858289999999999509e+01 2.146430000000000291e+03
7.499999999999999722e-02 1.915890000000000093e-01 2.253920000000000101e+01 9.329444999999999766e+01 2.147769999999999982e+03
7.599999999999999811e-02 1.917690000000000228e-01 2.435555000000000092e+01 9.776144999999999641e+01 2.149065000000000055e+03
7.699999999999999900e-02 1.919414999999999871e-01 2.605760000000000076e+01 1.020088000000000079e+02 2.150300000000000182e+03
7.799999999999999989e-02 1.921070000000000000e-01 2.765194999999999936e+01 1.060777500000000089e+02 2.151494999999999891e+03
7.900000000000000078e-02 1.922674999999999801e-01 2.914930000000000021e+01 1.100150000000000006e+02 2.152650000000000091e+03
8.000000000000000167e-02 1.924235000000000251e-01 3.056260000000000332e+01 1.138689999999999998e+02 2.153775000000000091e+03
8.100000000000000255e-02 1.925769999999999982e-01 3.190500000000000114e+01 1.176829999999999927e+02 2.154880000000000109e+03
8.200000000000000344e-02 1.927289999999999837e-01 3.318809999999999860e+01 1.214904999999999973e+02 2.155979999999999563e+03
8.300000000000000433e-02 1.928805000000000103e-01 3.442085000000000150e+01 1.253105000000000047e+02 2.157074999999999818e+03
8.400000000000000522e-02 1.930319999999999814e-01 3.560880000000000223e+01 1.291519999999999868e+02 2.158170000000000073e+03
8.500000000000000611e-02 1.931840000000000224e-01 3.675370000000000203e+01 1.330064999999999884e+02 2.159265000000000327e+03
8.600000000000000699e-02 1.933354999999999935e-01 3.785384999999999422e+01 1.368569999999999993e+02 2.160364999999999782e+03
8.700000000000000788e-02 1.934870000000000201e-01 3.890399999999999636e+01 1.406739999999999782e+02 2.161460000000000036e+03
8.800000000000000877e-02 1.936360000000000026e-01 3.989614999999999867e+01 1.444219999999999970e+02 2.162534999999999854e+03
8.899999999999999578e-02 1.937820000000000098e-01 4.082005000000000194e+01 1.480609999999999786e+02 2.163595000000000255e+03
8.999999999999999667e-02 1.939234999999999987e-01 4.166394999999999982e+01 1.515475000000000136e+02 2.164625000000000000e+03
9.099999999999999756e-02 1.940589999999999815e-01 4.241509999999999536e+01 1.548385000000000105e+02 2.165609999999999673e+03
9.199999999999999845e-02 1.941875000000000129e-01 4.306085000000000207e+01 1.578919999999999959e+02 2.166539999999999964e+03
9.299999999999999933e-02 1.943064999999999931e-01 4.358894999999999698e+01 1.606719999999999970e+02 2.167409999999999854e+03
9.400000000000000022e-02 1.944150000000000045e-01 4.398855000000000359e+01 1.631440000000000055e+02 2.168204999999999927e+03
9.500000000000000111e-02 1.945125000000000048e-01 4.425084999999999980e+01 1.652824999999999989e+02 2.168920000000000073e+03
9.600000000000000200e-02 1.945974999999999788e-01 4.436974999999999625e+01 1.670695000000000050e+02 2.169539999999999964e+03
9.700000000000000289e-02 1.946694999999999953e-01 4.434239999999999782e+01 1.684959999999999809e+02 2.170074999999999818e+03
9.800000000000000377e-02 1.947280000000000122e-01 4.416935000000000144e+01 1.695625000000000000e+02 2.170510000000000218e+03
9.900000000000000466e-02 1.947734999999999883e-01 4.385535000000000139e+01 1.702804999999999893e+02 2.170849999999999909e+03
1.000000000000000056e-01 1.948054999999999926e-01 4.340855000000000530e+01 1.706705000000000041e+02 2.171099999999999909e+03
1.010000000000000064e-01 1.948254999999999848e-01 4.284080000000000155e+01 1.707615000000000123e+02 2.171255000000000109e+03
1.020000000000000073e-01 1.948349999999999804e-01 4.216689999999999827e+01 1.705899999999999750e+02 2.171335000000000036e+03
1.030000000000000082e-01 1.948340000000000072e-01 4.140390000000000015e+01 1.701990000000000123e+02 2.171340000000000146e+03
1.040000000000000091e-01 1.948249999999999982e-01 4.057040000000000646e+01 1.696324999999999932e+02 2.171280000000000200e+03
1.050000000000000100e-01 1.948090000000000099e-01 3.968569999999999709e+01 1.689370000000000118e+02 2.171175000000000182e+03
1.059999999999999970e-01 1.947885000000000033e-01 3.876885000000000048e+01 1.681569999999999823e+02 2.171029999999999745e+03
1.069999999999999979e-01 1.947639999999999927e-01 3.783814999999999884e+01 1.673340000000000032e+02 2.170855000000000018e+03
1.079999999999999988e-01 1.947369999999999934e-01 3.690990000000000038e+01 1.665029999999999859e+02 2.170659999999999854e+03
1.089999999999999997e-01 1.947095000000000076e-01 3.599840000000000373e+01 1.656949999999999932e+02 2.170465000000000146e+03
1.100000000000000006e-01 1.946825000000000083e-01 3.511500000000000199e+01 1.649320000000000164e+02 2.170269999999999982e+03
1.110000000000000014e-01 1.946559999999999957e-01 3.426820000000000022e+01 1.642295000000000016e+02 2.170079999999999927e+03
1.120000000000000023e-01 1.946315000000000128e-01 3.346334999999999837e+01 1.635939999999999941e+02 2.169894999999999982e+03
1.130000000000000032e-01 1.946084999999999898e-01 3.270229999999999393e+01 1.630249999999999773e+02 2.169725000000000364e+03
1.140000000000000041e-01 1.945870000000000100e-01 3.198404999999999987e+01 1.625144999999999982e+02 2.169574999999999818e+03
1.150000000000000050e-01 1.945679999999999910e-01 3.130450000000000088e+01 1.620480000000000018e+02 2.169425000000000182e+03
1.160000000000000059e-01 1.945494999999999863e-01 3.065740000000000265e+01 1.616064999999999827e+02 2.169289999999999964e+03
1.170000000000000068e-01 1.945314999999999961e-01 3.003430000000000177e+01 1.611659999999999968e+02 2.169154999999999745e+03
1.180000000000000077e-01 1.945140000000000202e-01 2.942555000000000121e+01 1.607010000000000218e+02 2.169025000000000091e+03
1.190000000000000085e-01 1.944945000000000146e-01 2.882065000000000055e+01 1.601850000000000023e+02 2.168885000000000218e+03
1.200000000000000094e-01 1.944730000000000070e-01 2.820929999999999893e+01 1.595925000000000011e+02 2.168725000000000364e+03
1.209999999999999964e-01 1.944484999999999963e-01 2.758164999999999978e+01 1.589010000000000105e+02 2.168550000000000182e+03
1.219999999999999973e-01 1.944210000000000105e-01 2.692920000000000158e+01 1.580904999999999916e+02 2.168350000000000364e+03
1.229999999999999982e-01 1.943885000000000196e-01 2.624535000000000196e+01 1.571485000000000127e+02 2.168114999999999782e+03
1.239999999999999991e-01 1.943515000000000104e-01 2.552544999999999931e+01 1.560674999999999955e+02 2.167850000000000364e+03
1.250000000000000000e-01 1.943094999999999961e-01 2.476774999999999949e+01 1.548470000000000084e+02 2.167550000000000182e+03
1.260000000000000009e-01 1.942625000000000046e-01 2.397290000000000276e+01 1.534934999999999832e+02 2.167204999999999927e+03
1.270000000000000018e-01 1.942109999999999947e-01 2.314444999999999908e+01 1.520204999999999984e+02 2.166840000000000146e+03
1.280000000000000027e-01 1.941549999999999943e-01 2.228859999999999886e+01 1.504480000000000075e+02 2.166439999999999600e+03
1.290000000000000036e-01 1.940959999999999908e-01 2.141355000000000075e+01 1.488000000000000114e+02 2.166015000000000327e+03
1.300000000000000044e-01 1.940334999999999976e-01 2.052960000000000207e+01 1.471075000000000159e+02 2.165564999999999600e+03
1.310000000000000053e-01 1.939700000000000035e-01 1.964825000000000088e+01 1.454014999999999986e+02 2.165110000000000127e+03
1.320000000000000062e-01 1.939059999999999950e-01 1.878184999999999860e+01 1.437144999999999868e+02 2.164644999999999982e+03
1.330000000000000071e-01 1.938429999999999875e-01 1.794270000000000209e+01 1.420794999999999959e+02 2.164194999999999709e+03
1.340000000000000080e-01 1.937814999999999954e-01 1.714260000000000161e+01 1.405264999999999986e+02 2.163750000000000000e+03
1.350000000000000089e-01 1.937234999999999929e-01 1.639240000000000208e+01 1.390815000000000055e+02 2.163320000000000164e+03
1.360000000000000098e-01 1.936685000000000212e-01 1.570100000000000051e+01 1.377665000000000077e+02 2.162925000000000182e+03
1.370000000000000107e-01 1.936180000000000123e-01 1.507570000000000121e+01 1.365975000000000250e+02 2.162559999999999945e+03
1.380000000000000115e-01 1.935735000000000094e-01 1.452134999999999998e+01 1.355844999999999914e+02 2.162235000000000127e+03
1.390000000000000124e-01 1.935339999999999838e-01 1.404059999999999953e+01 1.347319999999999993e+02 2.161944999999999709e+03
1.400000000000000133e-01 1.935005000000000197e-01 1.363374999999999915e+01 1.340375000000000227e+02 2.161694999999999709e+03
1.410000000000000142e-01 1.934724999999999917e-01 1.329899999999999949e+01 1.334939999999999998e+02 2.161489999999999782e+03
1.420000000000000151e-01 1.934494999999999965e-01 1.303265000000000029e+01 1.330910000000000082e+02 2.161319999999999709e+03
1.430000000000000160e-01 1.934319999999999928e-01 1.282920000000000016e+01 1.328135000000000048e+02 2.161184999999999945e+03
1.440000000000000169e-01 1.934190000000000076e-01 1.268220000000000169e+01 1.326430000000000007e+02 2.161085000000000036e+03
1.450000000000000178e-01 1.934099999999999986e-01 1.258394999999999975e+01 1.325629999999999882e+02 2.161015000000000327e+03
1.459999999999999909e-01 1.934045000000000070e-01 1.252639999999999887e+01 1.325525000000000091e+02 2.160965000000000146e+03
1.469999999999999918e-01 1.934009999999999896e-01 1.250110000000000099e+01 1.325935000000000059e+02 2.160940000000000055e+03
1.479999999999999927e-01 1.934005000000000030e-01 1.249990000000000023e+01 1.326669999999999732e+02 2.160934999999999945e+03
1.489999999999999936e-01 1.934009999999999896e-01 1.251474999999999937e+01 1.327570000000000050e+02 2.160934999999999945e+03
1.499999999999999944e-01 1.934020000000000183e-01 1.253834999999999944e+01 1.328475000000000250e+02 2.160940000000000055e+03
1.509999999999999953e-01 1.934040000000000203e-01 1.256409999999999982e+01 1.329269999999999925e+02 2.160949999999999818e+03
1.519999999999999962e-01 1.934049999999999936e-01 1.258629999999999960e+01 1.329844999999999970e+02 2.160954999999999927e+03
1.529999999999999971e-01 1.934059999999999946e-01 1.260040000000000049e+01 1.330120000000000005e+02 2.160960000000000036e+03
1.539999999999999980e-01 1.934059999999999946e-01 1.260280000000000022e+01 1.330045000000000073e+02 2.160960000000000036e+03
1.549999999999999989e-01 1.934045000000000070e-01 1.259120000000000061e+01 1.329594999999999914e+02 2.160954999999999927e+03
1.559999999999999998e-01 1.934020000000000183e-01 1.256435000000000102e+01 1.328765000000000214e+02 2.160940000000000055e+03
1.570000000000000007e-01 1.933989999999999876e-01 1.252205000000000013e+01 1.327574999999999932e+02 2.160914999999999964e+03
1.580000000000000016e-01 1.933940000000000103e-01 1.246514999999999951e+01 1.326069999999999993e+02 2.160880000000000109e+03
1.590000000000000024e-01 1.933884999999999910e-01 1.239535000000000053e+01 1.324300000000000068e+02 2.160840000000000146e+03
