# t [s], A [cm^2], U [cm/s], P [cPa], c [cm/s]
1.000000000000000021e-03 1.579980000000000273e-01 4.985199999999999632e-01 9.842759999999999820e+01 1.805134999999999991e+03
2.000000000000000042e-03 1.579559999999999853e-01 2.304959499999999828e+00 9.485409999999998831e+01 1.804735000000000127e+03
3.000000000000000062e-03 1.578279999999999961e-01 4.433963499999999947e+00 9.030625000000000568e+01 1.803545000000000073e+03
4.000000000000000083e-03 1.576464999999999950e-01 6.765153500000000264e+00 8.559149999999999636e+01 1.801880000000000109e+03
5.000000000000000104e-03 1.574455000000000160e-01 9.226639999999999731e+00 8.149365000000000236e+01 1.800054999999999836e+03
6.000000000000000125e-03 1.572470000000000256e-01 1.165336999999999890e+01 7.820959999999999468e+01 1.798264999999999873e+03
7.000000000000000146e-03 1.570580000000000032e-01 1.385943999999999932e+01 7.548910000000000764e+01 1.796590000000000146e+03
8.000000000000000167e-03 1.568819999999999937e-01 1.576474999999999937e+01 7.308435000000000059e+01 1.795054999999999836e+03
9.000000000000001055e-03 1.567230000000000012e-01 1.739545000000000030e+01 7.098000000000000398e+01 1.793684999999999945e+03
1.000000000000000194e-02 1.565845000000000153e-01 1.878640000000000043e+01 6.922459999999999525e+01 1.792500000000000000e+03
1.099999999999999936e-02 1.564650000000000207e-01 1.994944999999999879e+01 6.778985000000000127e+01 1.791494999999999891e+03
1.200000000000000025e-02 1.563650000000000040e-01 2.089675000000000082e+01 6.661669999999999447e+01 1.790654999999999973e+03
1.300000000000000114e-02 1.562815000000000176e-01 2.164440000000000097e+01 6.565519999999999357e+01 1.789970000000000027e+03
1.400000000000000203e-02 1.562120000000000175e-01 2.220510000000000161e+01 6.484794999999999732e+01 1.789404999999999973e+03
1.499999999999999944e-02 1.561540000000000150e-01 2.260490000000000066e+01 6.415364999999999895e+01 1.788940000000000055e+03
1.600000000000000033e-02 1.561069999999999958e-01 2.290934999999999988e+01 6.362265000000000015e+01 1.788570000000000164e+03
1.700000000000000122e-02 1.560734999999999761e-01 2.322374999999999901e+01 6.343304999999999438e+01 1.788319999999999936e+03
1.800000000000000211e-02 1.560604999999999909e-01 2.365540000000000020e+01 6.382124999999999915e+01 1.788224999999999909e+03
1.900000000000000300e-02 1.560735000000000039e-01 2.426269999999999882e+01 6.494445000000000334e+01 1.788355000000000018e+03
2.000000000000000042e-02 1.561150000000000038e-01 2.502434999999999832e+01 6.676545000000000130e+01 1.788710000000000036e+03
2.100000000000000130e-02 1.561810000000000143e-01 2.584335000000000093e+01 6.902729999999999677e+01 1.789269999999999982e+03
2.200000000000000219e-02 1.562604999999999966e-01 2.658105000000000118e+01 7.132429999999999382e+01 1.789950000000000045e+03
2.299999999999999961e-02 1.563414999999999944e-01 2.710340000000000060e+01 7.322849999999999682e+01 1.790654999999999973e+03
2.400000000000000050e-02 1.564099999999999935e-01 2.732034999999999769e+01 7.441669999999999163e+01 1.791255000000000109e+03
2.500000000000000139e-02 1.564570000000000127e-01 2.720805000000000007e+01 7.475339999999999918e+01 1.791680000000000064e+03
2.600000000000000228e-02 1.564789999999999792e-01 2.680669999999999931e+01 7.430764999999999532e+01 1.791889999999999873e+03
2.700000000000000316e-02 1.564769999999999772e-01 2.620120000000000005e+01 7.330644999999999811e+01 1.791900000000000091e+03
2.800000000000000058e-02 1.564570000000000127e-01 2.549094999999999800e+01 7.204869999999999663e+01 1.791750000000000000e+03
2.900000000000000147e-02 1.564274999999999971e-01 2.476200000000000045e+01 7.081239999999999668e+01 1.791509999999999991e+03
3.000000000000000236e-02 1.563944999999999919e-01 2.406810000000000116e+01 6.978520000000000323e+01 1.791240000000000009e+03
3.099999999999999978e-02 1.563654999999999906e-01 2.342575000000000074e+01 6.903489999999999327e+01 1.790994999999999891e+03
3.200000000000000067e-02 1.563404999999999934e-01 2.282079999999999842e+01 6.852080000000000837e+01 1.790785000000000082e+03
3.300000000000000155e-02 1.563200000000000145e-01 2.222294999999999732e+01 6.813344999999999629e+01 1.790615000000000009e+03
3.400000000000000244e-02 1.563015000000000099e-01 2.160240000000000293e+01 6.774735000000001151e+01 1.790460000000000036e+03
3.500000000000000333e-02 1.562815000000000176e-01 2.094350000000000023e+01 6.726894999999998959e+01 1.790295000000000073e+03
3.600000000000000422e-02 1.562594999999999956e-01 2.025339999999999918e+01 6.666920000000000357e+01 1.790105000000000018e+03
3.700000000000000511e-02 1.562334999999999974e-01 1.956240000000000023e+01 6.599365000000000236e+01 1.789894999999999982e+03
3.799999999999999906e-02 1.562074999999999991e-01 1.891825000000000045e+01 6.535049999999999670e+01 1.789670000000000073e+03
3.899999999999999994e-02 1.561830000000000163e-01 1.837525000000000119e+01 6.488070000000000448e+01 1.789470000000000027e+03
4.000000000000000083e-02 1.561664999999999859e-01 1.798075000000000045e+01 6.472005000000000052e+01 1.789325000000000045e+03
4.100000000000000172e-02 1.561609999999999943e-01 1.776389999999999958e+01 6.496195000000000164e+01 1.789264999999999873e+03
4.200000000000000261e-02 1.561695000000000166e-01 1.772739999999999938e+01 6.563145000000000095e+01 1.789335000000000036e+03
4.300000000000000350e-02 1.561925000000000119e-01 1.784590000000000032e+01 6.667439999999999145e+01 1.789514999999999873e+03
4.400000000000000439e-02 1.562284999999999924e-01 1.806859999999999999e+01 6.796420000000000528e+01 1.789809999999999945e+03
4.499999999999999833e-02 1.562729999999999952e-01 1.832744999999999891e+01 6.932205000000000439e+01 1.790180000000000064e+03
4.599999999999999922e-02 1.563205000000000011e-01 1.854659999999999798e+01 7.054615000000001146e+01 1.790575000000000045e+03
4.700000000000000011e-02 1.563640000000000030e-01 1.865290000000000248e+01 7.144169999999999732e+01 1.790945000000000164e+03
4.800000000000000100e-02 1.563964999999999939e-01 1.858455000000000013e+01 7.184790000000000987e+01 1.791224999999999909e+03
4.900000000000000189e-02 1.564130000000000242e-01 1.829715000000000202e+01 7.165590000000000259e+01 1.791365000000000009e+03
5.000000000000000278e-02 1.564089999999999925e-01 1.776679999999999993e+01 7.081735000000000468e+01 1.791329999999999927e+03
5.100000000000000366e-02 1.563815000000000066e-01 1.698989999999999867e+01 6.934335000000000093e+01 1.791109999999999900e+03
5.200000000000000455e-02 1.563299999999999967e-01 1.598110000000000142e+01 6.729540000000000077e+01 1.790679999999999836e+03
5.300000000000000544e-02 1.562569999999999792e-01 1.476944999999999908e+01 6.477245000000000630e+01 1.790070000000000164e+03
5.399999999999999939e-02 1.561640000000000250e-01 1.339460000000000051e+01 6.189594999999999914e+01 1.789284999999999854e+03
5.500000000000000028e-02 1.560555000000000136e-01 1.190249999999999986e+01 5.879699999999999704e+01 1.788369999999999891e+03
5.600000000000000117e-02 1.559349999999999903e-01 1.034255000000000102e+01 5.560569999999999879e+01 1.787360000000000127e+03
5.700000000000000205e-02 1.558084999999999887e-01 8.765235000000000554e+00 5.244469999999999743e+01 1.786295000000000073e+03
5.800000000000000294e-02 1.556799999999999851e-01 7.220435000000000159e+00 4.942614999999999981e+01 1.785204999999999927e+03
5.900000000000000383e-02 1.555539999999999978e-01 5.756759999999999877e+00 4.665099999999999625e+01 1.784135000000000218e+03
6.000000000000000472e-02 1.554349999999999898e-01 4.420751000000000097e+00 4.420969999999999800e+01 1.783125000000000000e+03
6.099999999999999867e-02 1.553264999999999785e-01 3.256386000000000003e+00 4.218319999999999936e+01 1.782204999999999927e+03
6.199999999999999956e-02 1.552324999999999955e-01 2.304222499999999840e+00 4.064359999999999928e+01 1.781405000000000200e+03
6.300000000000000044e-02 1.551569999999999894e-01 1.600429499999999949e+00 3.965319999999999823e+01 1.780750000000000000e+03
6.400000000000000133e-02 1.551015000000000033e-01 1.175470000000000015e+00 3.926335000000000264e+01 1.780275000000000091e+03
6.500000000000000222e-02 1.550705000000000000e-01 1.052747499999999947e+00 3.951144999999999641e+01 1.779990000000000009e+03
6.600000000000000311e-02 1.550639999999999796e-01 1.247269999999999879e+00 4.041830000000000211e+01 1.779924999999999955e+03
6.700000000000000400e-02 1.550845000000000140e-01 1.764615000000000045e+00 4.198604999999999876e+01 1.780079999999999927e+03
6.800000000000000488e-02 1.551325000000000065e-01 2.600307499999999994e+00 4.419589999999999463e+01 1.780460000000000036e+03
6.900000000000000577e-02 1.552069999999999839e-01 3.739810000000000301e+00 4.700844999999999629e+01 1.781069999999999936e+03
7.000000000000000666e-02 1.553074999999999872e-01 5.159159999999999968e+00 5.036485000000000412e+01 1.781900000000000091e+03
7.100000000000000755e-02 1.554320000000000146e-01 6.826145000000000351e+00 5.418959999999999866e+01 1.782929999999999836e+03
7.200000000000000844e-02 1.555775000000000075e-01 8.701950000000000074e+00 5.839444999999999908e+01 1.784144999999999982e+03
7.300000000000000933e-02 1.557410000000000183e-01 1.074321999999999910e+01 6.288400000000000034e+01 1.785519999999999982e+03
7.399999999999999634e-02 1.559194999999999887e-01 1.290423499999999990e+01 6.755995000000000061e+01 1.787019999999999982e+03
7.499999999999999722e-02 1.561084999999999834e-01 1.513884999999999970e+01 7.232685000000000741e+01 1.788619999999999891e+03
7.599999999999999811e-02 1.563045000000000129e-01 1.740230000000000032e+01 7.709600000000000364e+01 1.790279999999999973e+03
7.699999999999999900e-02 1.565040000000000042e-01 1.965319999999999823e+01 8.178900000000000148e+01 1.791984999999999900e+03
7.799999999999999989e-02 1.567034999999999956e-01 2.185454999999999970e+01 8.634040000000000248e+01 1.793690000000000055e+03
7.900000000000000078e-02 1.569010000000000127e-01 2.397480000000000189e+01 9.069910000000000139e+01 1.795380000000000109e+03
8.000000000000000167e-02 1.570924999999999960e-01 2.598899999999999721e+01 9.482930000000000348e+01 1.797029999999999973e+03
8.100000000000000255e-02 1.572775000000000145e-01 2.787855000000000061e+01 9.871084999999999354e+01 1.798625000000000000e+03
8.200000000000000344e-02 1.574539999999999829e-01 2.963200000000000145e+01 1.023375000000000057e+02 1.800159999999999854e+03
8.300000000000000433e-02 1.576224999999999987e-01 3.124459999999999837e+01 1.057180500000000052e+02 1.801619999999999891e+03
8.400000000000000522e-02 1.577804999999999902e-01 3.271804999999999808e+01 1.088725000000000023e+02 1.803000000000000000e+03
8.500000000000000611e-02 1.579309999999999881e-01 3.405969999999999942e+01 1.118310000000000031e+02 1.804315000000000055e+03
8.600000000000000699e-02 1.580739999999999923e-01 3.528180000000000405e+01 1.146314999999999884e+02 1.805570000000000164e+03
8.700000000000000788e-02 1.582095000000000029e-01 3.640000000000000568e+01 1.173160000000000025e+02 1.806759999999999991e+03
8.800000000000000877e-02 1.583399999999999808e-01 3.743254999999999910e+01 1.199294999999999902e+02 1.807909999999999854e+03
8.899999999999999578e-02 1.584675000000000111e-01 3.839844999999999686e+01 1.225155000000000030e+02 1.809029999999999973e+03
8.999999999999999667e-02 1.585924999999999974e-01 3.931645000000000323e+01 1.251124999999999972e+02 1.810130000000000109e+03
9.099999999999999756e-02 1.587169999999999970e-01 4.020360000000000156e+01 1.277529999999999859e+02 1.811230000000000018e+03
9.199999999999999845e-02 1.588424999999999976e-01 4.107404999999999973e+01 1.304610000000000127e+02 1.812335000000000036e+03
9.299999999999999933e-02 1.589689999999999992e-01 4.193840000000000146e+01 1.332500000000000000e+02 1.813454999999999927e+03
9.400000000000000022e-02 1.590989999999999904e-01 4.280294999999999561e+01 1.361220000000000141e+02 1.814590000000000146e+03
9.500000000000000111e-02 1.592304999999999970e-01 4.366949999999999932e+01 1.390695000000000050e+02 1.815759999999999991e+03
9.600000000000000200e-02 1.593650000000000067e-01 4.453525000000000489e+01 1.420730000000000075e+02 1.816940000000000055e+03
9.700000000000000289e-02 1.595015000000000183e-01 4.539320000000000022e+01 1.451055000000000064e+02 1.818144999999999982e+03
9.800000000000000377e-02 1.596384999999999887e-01 4.623270000000000124e+01 1.481310000000000002e+02 1.819349999999999909e+03
9.900000000000000466e-02 1.597755000000000147e-01 4.704014999999999702e+01 1.511095000000000255e+02 1.820565000000000055e+03
1.000000000000000056e-01 1.599105000000000110e-01 4.779980000000000473e+01 1.539985000000000070e+02 1.821755000000000109e+03
1.010000000000000064e-01 1.600419999999999898e-01 4.849505000000000621e+01 1.567529999999999859e+02 1.822920000000000073e+03
1.020000000000000073e-01 1.601690000000000058e-01 4.910880000000000223e+01 1.593310000000000173e+02 1.824045000000000073e+03
1.030000000000000082e-01 1.602885000000000004e-01 4.962480000000000047e+01 1.616945000000000050e+02 1.825115000000000009e+03
1.040000000000000091e-01 1.604005000000000014e-01 5.002814999999999657e+01 1.638085000000000093e+02 1.826110000000000127e+03
1.050000000000000100e-01 1.605024999999999924e-01 5.030644999999999811e+01 1.656469999999999914e+02 1.827019999999999982e+03
1.059999999999999970e-01 1.605929999999999858e-01 5.044960000000000377e+01 1.671889999999999930e+02 1.827829999999999927e+03
1.069999999999999979e-01 1.606719999999999815e-01 5.045095000000000596e+01 1.684225000000000136e+02 1.828545000000000073e+03
1.079999999999999988e-01 1.607385000000000064e-01 5.030700000000000216e+01 1.693425000000000011e+02 1.829139999999999873e+03
1.089999999999999997e-01 1.607919999999999905e-01 5.001800000000000068e+01 1.699524999999999864e+02 1.829630000000000109e+03
1.100000000000000006e-01 1.608324999999999894e-01 4.958729999999999905e+01 1.702620000000000005e+02 1.830005000000000109e+03
1.110000000000000014e-01 1.608605000000000174e-01 4.902195000000000391e+01 1.702889999999999873e+02 1.830260000000000218e+03
1.120000000000000023e-01 1.608755000000000046e-01 4.833169999999999789e+01 1.700554999999999950e+02 1.830410000000000082e+03
1.130000000000000032e-01 1.608800000000000230e-01 4.752915000000000134e+01 1.695900000000000034e+02 1.830460000000000036e+03
1.140000000000000041e-01 1.608735000000000026e-01 4.662900000000000489e+01 1.689240000000000066e+02 1.830409999999999854e+03
1.150000000000000050e-01 1.608574999999999866e-01 4.564764999999999873e+01 1.680910000000000082e+02 1.830279999999999973e+03
1.160000000000000059e-01 1.608335000000000181e-01 4.460250000000000625e+01 1.671274999999999977e+02 1.830075000000000045e+03
1.170000000000000068e-01 1.608025000000000149e-01 4.351160000000000139e+01 1.660685000000000002e+02 1.829815000000000055e+03
1.180000000000000077e-01 1.607664999999999789e-01 4.239274999999999949e+01 1.649484999999999957e+02 1.829494999999999891e+03
1.190000000000000085e-01 1.607259999999999800e-01 4.126319999999999766e+01 1.638009999999999877e+02 1.829144999999999982e+03
1.200000000000000094e-01 1.606829999999999925e-01 4.013885000000000502e+01 1.626544999999999845e+02 1.828769999999999982e+03
1.209999999999999964e-01 1.606390000000000040e-01 3.903395000000000437e+01 1.615350000000000250e+02 1.828380000000000109e+03
1.219999999999999973e-01 1.605940000000000145e-01 3.796085000000000065e+01 1.604635000000000105e+02 1.827985000000000127e+03
1.229999999999999982e-01 1.605504999999999849e-01 3.692929999999999779e+01 1.594549999999999841e+02 1.827595000000000027e+03
1.239999999999999991e-01 1.605079999999999840e-01 3.594664999999999822e+01 1.585204999999999984e+02 1.827220000000000027e+03
1.250000000000000000e-01 1.604675000000000129e-01 3.501754999999999995e+01 1.576644999999999754e+02 1.826860000000000127e+03
1.260000000000000009e-01 1.604300000000000170e-01 3.414395000000000380e+01 1.568874999999999886e+02 1.826525000000000091e+03
1.270000000000000018e-01 1.603944999999999954e-01 3.332529999999999859e+01 1.561834999999999809e+02 1.826200000000000045e+03
1.280000000000000027e-01 1.603614999999999902e-01 3.255865000000000009e+01 1.555430000000000064e+02 1.825910000000000082e+03
1.290000000000000036e-01 1.603310000000000013e-01 3.183900000000000219e+01 1.549530000000000030e+02 1.825634999999999991e+03
1.300000000000000044e-01 1.603025000000000144e-01 3.115964999999999918e+01 1.543980000000000246e+02 1.825375000000000000e+03
1.310000000000000053e-01 1.602750000000000008e-01 3.051239999999999952e+01 1.538584999999999923e+02 1.825125000000000000e+03
1.320000000000000062e-01 1.602485000000000159e-01 2.988830000000000098e+01 1.533154999999999859e+02 1.824885000000000218e+03
1.330000000000000071e-01 1.602220000000000033e-01 2.927770000000000294e+01 1.527495000000000118e+02 1.824644999999999982e+03
1.340000000000000080e-01 1.601945000000000174e-01 2.867105000000000103e+01 1.521404999999999745e+02 1.824400000000000091e+03
1.350000000000000089e-01 1.601660000000000028e-01 2.805899999999999750e+01 1.514714999999999918e+02 1.824144999999999982e+03
1.360000000000000098e-01 1.601354999999999862e-01 2.743325000000000102e+01 1.507270000000000039e+02 1.823869999999999891e+03
1.370000000000000107e-01 1.601015000000000077e-01 2.678620000000000090e+01 1.498950000000000102e+02 1.823565000000000055e+03
1.380000000000000115e-01 1.600650000000000128e-01 2.611214999999999975e+01 1.489650000000000034e+02 1.823240000000000009e+03
1.390000000000000124e-01 1.600245000000000140e-01 2.540670000000000073e+01 1.479329999999999927e+02 1.822884999999999991e+03
1.400000000000000133e-01 1.599800000000000111e-01 2.466744999999999877e+01 1.467969999999999970e+02 1.822490000000000009e+03
1.410000000000000142e-01 1.599309999999999898e-01 2.389405000000000001e+01 1.455610000000000070e+02 1.822059999999999945e+03
1.420000000000000151e-01 1.598785000000000067e-01 2.308800000000000097e+01 1.442305000000000064e+02 1.821595000000000027e+03
1.430000000000000160e-01 1.598219999999999918e-01 2.225285000000000224e+01 1.428185000000000002e+02 1.821099999999999909e+03
1.440000000000000169e-01 1.597615000000000007e-01 2.139390000000000214e+01 1.413374999999999773e+02 1.820570000000000164e+03
1.450000000000000178e-01 1.596984999999999932e-01 2.051810000000000045e+01 1.398075000000000045e+02 1.820019999999999982e+03
1.459999999999999909e-01 1.596334999999999837e-01 1.963360000000000127e+01 1.382464999999999975e+02 1.819444999999999936e+03
1.469999999999999918e-01 1.595659999999999856e-01 1.874980000000000047e+01 1.366769999999999925e+02 1.818849999999999909e+03
1.479999999999999927e-01 1.594984999999999875e-01 1.787644999999999840e+01 1.351204999999999927e+02 1.818255000000000109e+03
1.489999999999999936e-01 1.594300000000000161e-01 1.702384999999999948e+01 1.335999999999999943e+02 1.817654999999999973e+03
1.499999999999999944e-01 1.593629999999999769e-01 1.620195000000000007e+01 1.321365000000000123e+02 1.817070000000000164e+03
1.509999999999999953e-01 1.592975000000000085e-01 1.542034999999999911e+01 1.307500000000000000e+02 1.816494999999999891e+03
1.519999999999999962e-01 1.592350000000000154e-01 1.468774999999999942e+01 1.294579999999999984e+02 1.815940000000000055e+03
1.529999999999999971e-01 1.591759999999999842e-01 1.401154999999999973e+01 1.282750000000000057e+02 1.815420000000000073e+03
1.539999999999999980e-01 1.591204999999999981e-01 1.339805000000000135e+01 1.272120000000000033e+02 1.814934999999999945e+03
1.549999999999999989e-01 1.590699999999999892e-01 1.285170000000000101e+01 1.262775000000000034e+02 1.814485000000000127e+03
1.559999999999999998e-01 1.590245000000000131e-01 1.237524999999999942e+01 1.254739999999999895e+02 1.814079999999999927e+03
1.570000000000000007e-01 1.589840000000000142e-01 1.196985000000000099e+01 1.248029999999999973e+02 1.813720000000000027e+03
1.580000000000000016e-01 1.589490000000000069e-01 1.163475000000000037e+01 1.242595000000000027e+02 1.813405000000000200e+03
1.590000000000000024e-01 1.589185000000000181e-01 1.136764499999999956e+01 1.238389999999999986e+02 1.813139999999999873e+03
