# t [s], A [cm^2], U [cm/s], P [cPa], c [cm/s]
1.000000000000000021e-03 1.615705000000000058e-01 4.721246000000000054e-01 9.722860000000000014e+01 1.949440000000000055e+03
2.000000000000000042e-03 1.615234999999999865e-01 2.213381499999999669e+00 9.355254999999999654e+01 1.948990000000000009e+03
3.000000000000000062e-03 1.613924999999999943e-01 4.282773500000000233e+00 8.875370000000000914e+01 1.947799999999999955e+03
4.000000000000000083e-03 1.612149999999999972e-01 6.569910499999999764e+00 8.382130000000000791e+01 1.946210000000000036e+03
5.000000000000000104e-03 1.610245000000000148e-01 8.987804999999999822e+00 7.961764999999999759e+01 1.944519999999999982e+03
6.000000000000000125e-03 1.608410000000000117e-01 1.133347999999999978e+01 7.627809999999999491e+01 1.942905000000000200e+03
7.000000000000000146e-03 1.606690000000000063e-01 1.340264999999999951e+01 7.345400000000000773e+01 1.941414999999999964e+03
8.000000000000000167e-03 1.605110000000000148e-01 1.514507000000000048e+01 7.092730000000000246e+01 1.940075000000000045e+03
9.000000000000001055e-03 1.603720000000000145e-01 1.661059999999999803e+01 6.876314999999999600e+01 1.938909999999999854e+03
1.000000000000000194e-02 1.602534999999999932e-01 1.782970000000000255e+01 6.700775000000000148e+01 1.937929999999999836e+03
1.099999999999999936e-02 1.601549999999999918e-01 1.881409999999999982e+01 6.560729999999999507e+01 1.937119999999999891e+03
1.200000000000000025e-02 1.600754999999999817e-01 1.958024999999999949e+01 6.449564999999999770e+01 1.936470000000000027e+03
1.300000000000000114e-02 1.600105000000000000e-01 2.013969999999999771e+01 6.359524999999999295e+01 1.935954999999999927e+03
1.400000000000000203e-02 1.599575000000000025e-01 2.050990000000000180e+01 6.282174999999999443e+01 1.935534999999999854e+03
1.499999999999999944e-02 1.599134999999999862e-01 2.075560000000000116e+01 6.219295000000000329e+01 1.935199999999999818e+03
1.600000000000000033e-02 1.598829999999999973e-01 2.100379999999999825e+01 6.191965000000000430e+01 1.934974999999999909e+03
1.700000000000000122e-02 1.598740000000000161e-01 2.139690000000000225e+01 6.233294999999999675e+01 1.934920000000000073e+03
1.800000000000000211e-02 1.598940000000000083e-01 2.201745000000000019e+01 6.367574999999999363e+01 1.935095000000000027e+03
1.900000000000000300e-02 1.599450000000000038e-01 2.283820000000000050e+01 6.591239999999999100e+01 1.935519999999999982e+03
2.000000000000000042e-02 1.600214999999999832e-01 2.372744999999999749e+01 6.868299999999999272e+01 1.936160000000000082e+03
2.100000000000000130e-02 1.601104999999999889e-01 2.450065000000000026e+01 7.141634999999999422e+01 1.936905000000000200e+03
2.200000000000000219e-02 1.601950000000000041e-01 2.498904999999999887e+01 7.353174999999998818e+01 1.937625000000000000e+03
2.299999999999999961e-02 1.602600000000000136e-01 2.509525000000000006e+01 7.463255000000000905e+01 1.938190000000000055e+03
2.400000000000000050e-02 1.602965000000000084e-01 2.481714999999999804e+01 7.461735000000000184e+01 1.938519999999999982e+03
2.500000000000000139e-02 1.603025000000000144e-01 2.423610000000000042e+01 7.367699999999999250e+01 1.938595000000000027e+03
2.600000000000000228e-02 1.602834999999999954e-01 2.347875000000000156e+01 7.219320000000000448e+01 1.938470000000000027e+03
2.700000000000000316e-02 1.602505000000000179e-01 2.267020000000000124e+01 7.058805000000000973e+01 1.938204999999999927e+03
2.800000000000000058e-02 1.602125000000000077e-01 2.189715000000000344e+01 6.918655000000001110e+01 1.937889999999999873e+03
2.900000000000000147e-02 1.601764999999999994e-01 2.119154999999999944e+01 6.813819999999999766e+01 1.937595000000000027e+03
3.000000000000000236e-02 1.601465000000000249e-01 2.053609999999999758e+01 6.741235000000000355e+01 1.937340000000000146e+03
3.099999999999999978e-02 1.601210000000000133e-01 1.988514999999999944e+01 6.685429999999999495e+01 1.937130000000000109e+03
3.200000000000000067e-02 1.600969999999999893e-01 1.919184999999999874e+01 6.627155000000000484e+01 1.936934999999999945e+03
3.300000000000000155e-02 1.600710000000000188e-01 1.843169999999999931e+01 6.551964999999999861e+01 1.936710000000000036e+03
3.400000000000000244e-02 1.600395000000000012e-01 1.761670000000000158e+01 6.456059999999999377e+01 1.936454999999999927e+03
3.500000000000000333e-02 1.600030000000000063e-01 1.679650000000000176e+01 6.348219999999999885e+01 1.936154999999999973e+03
3.600000000000000422e-02 1.599654999999999827e-01 1.604704999999999870e+01 6.247384999999999877e+01 1.935849999999999909e+03
3.700000000000000511e-02 1.599335000000000062e-01 1.545085000000000086e+01 6.177035000000000053e+01 1.935574999999999818e+03
3.799999999999999906e-02 1.599125000000000130e-01 1.507424999999999926e+01 6.158150000000000546e+01 1.935394999999999982e+03
3.899999999999999994e-02 1.599085000000000090e-01 1.494910000000000139e+01 6.202864999999999895e+01 1.935349999999999909e+03
4.000000000000000083e-02 1.599249999999999838e-01 1.506360000000000099e+01 6.310649999999999693e+01 1.935474999999999909e+03
4.100000000000000172e-02 1.599595000000000045e-01 1.536244999999999905e+01 6.467744999999999322e+01 1.935744999999999891e+03
4.200000000000000261e-02 1.600090000000000123e-01 1.575744999999999862e+01 6.649755000000000393e+01 1.936144999999999982e+03
4.300000000000000350e-02 1.600654999999999994e-01 1.614314999999999856e+01 6.826374999999998749e+01 1.936609999999999900e+03
4.400000000000000439e-02 1.601190000000000113e-01 1.641385000000000005e+01 6.966920000000000357e+01 1.937050000000000182e+03
4.499999999999999833e-02 1.601619999999999988e-01 1.647925000000000040e+01 7.045300000000000296e+01 1.937409999999999854e+03
4.599999999999999922e-02 1.601849999999999941e-01 1.627465000000000117e+01 7.043630000000000280e+01 1.937605000000000018e+03
4.700000000000000011e-02 1.601830000000000198e-01 1.576595000000000013e+01 6.953845000000001164e+01 1.937599999999999909e+03
4.800000000000000100e-02 1.601529999999999898e-01 1.494944999999999879e+01 6.777549999999999386e+01 1.937359999999999900e+03
4.900000000000000189e-02 1.600945000000000007e-01 1.384730000000000061e+01 6.524304999999999666e+01 1.936884999999999991e+03
5.000000000000000278e-02 1.600105000000000000e-01 1.250090499999999949e+01 6.209174999999999756e+01 1.936195000000000164e+03
5.100000000000000366e-02 1.599039999999999906e-01 1.096424999999999983e+01 5.850084999999999980e+01 1.935320000000000164e+03
5.200000000000000455e-02 1.597810000000000064e-01 9.297225000000000961e+00 5.465545000000000186e+01 1.934300000000000182e+03
5.300000000000000544e-02 1.596464999999999967e-01 7.561664999999999637e+00 5.073055000000000092e+01 1.933184999999999945e+03
5.399999999999999939e-02 1.595074999999999965e-01 5.818475000000000286e+00 4.688320000000000221e+01 1.932029999999999973e+03
5.500000000000000028e-02 1.593680000000000097e-01 4.126398750000000781e+00 4.325084999999999980e+01 1.930869999999999891e+03
5.600000000000000117e-02 1.592335000000000000e-01 2.541819999999999968e+00 3.995324999999999704e+01 1.929744999999999891e+03
5.700000000000000205e-02 1.591090000000000004e-01 1.118384999999999962e+00 3.709629999999999939e+01 1.928704999999999927e+03
5.800000000000000294e-02 1.589984999999999871e-01 -9.336499999999992028e-02 3.477544999999999931e+01 1.927775000000000091e+03
5.900000000000000383e-02 1.589054999999999773e-01 -1.047080000000000011e+00 3.307589999999999719e+01 1.926994999999999891e+03
6.000000000000000472e-02 1.588339999999999752e-01 -1.702240949999999975e+00 3.207164999999999822e+01 1.926384999999999991e+03
6.099999999999999867e-02 1.587870000000000115e-01 -2.026240000000000041e+00 3.182099999999999795e+01 1.925974999999999909e+03
6.199999999999999956e-02 1.587665000000000048e-01 -1.996494999999999909e+00 3.236195000000000022e+01 1.925789999999999964e+03
6.300000000000000044e-02 1.587749999999999995e-01 -1.602292500000000119e+00 3.370749999999999602e+01 1.925835000000000036e+03
6.400000000000000133e-02 1.588125000000000231e-01 -8.459129999999999150e-01 3.584179999999999922e+01 1.926119999999999891e+03
6.500000000000000222e-02 1.588785000000000058e-01 2.571450000000000680e-01 3.871949999999999648e+01 1.926644999999999982e+03
6.600000000000000311e-02 1.589720000000000022e-01 1.678920000000000190e+00 4.226694999999999425e+01 1.927409999999999854e+03
6.700000000000000400e-02 1.590914999999999968e-01 3.380698999999999899e+00 4.638684999999999548e+01 1.928375000000000000e+03
6.800000000000000488e-02 1.592330000000000134e-01 5.315355000000000274e+00 5.096399999999999864e+01 1.929534999999999854e+03
6.900000000000000577e-02 1.593924999999999925e-01 7.430144999999999555e+00 5.587330000000000041e+01 1.930849999999999909e+03
7.000000000000000666e-02 1.595665000000000000e-01 9.669494999999999507e+00 6.098675000000000068e+01 1.932289999999999964e+03
7.100000000000000755e-02 1.597504999999999897e-01 1.197797500000000070e+01 6.618104999999999905e+01 1.933820000000000164e+03
7.200000000000000844e-02 1.599399999999999988e-01 1.430246500000000154e+01 7.134340000000000259e+01 1.935400000000000091e+03
7.300000000000000933e-02 1.601309999999999956e-01 1.659465000000000146e+01 7.637624999999999886e+01 1.936994999999999891e+03
7.399999999999999634e-02 1.603200000000000180e-01 1.881230000000000047e+01 8.120080000000000098e+01 1.938585000000000036e+03
7.499999999999999722e-02 1.605040000000000078e-01 2.092129999999999868e+01 8.575909999999998945e+01 1.940139999999999873e+03
7.599999999999999811e-02 1.606805000000000039e-01 2.289590000000000103e+01 9.001525000000000887e+01 1.941630000000000109e+03
7.699999999999999900e-02 1.608479999999999910e-01 2.471970000000000312e+01 9.395515000000000327e+01 1.943059999999999945e+03
7.799999999999999989e-02 1.610059999999999825e-01 2.638569999999999993e+01 9.758635000000001014e+01 1.944405000000000200e+03
7.900000000000000078e-02 1.611540000000000195e-01 2.789555000000000007e+01 1.009350000000000023e+02 1.945664999999999964e+03
8.000000000000000167e-02 1.612925000000000053e-01 2.925905000000000200e+01 1.040422000000000082e+02 1.946855000000000018e+03
8.100000000000000255e-02 1.614225000000000243e-01 3.049240000000000350e+01 1.069619999999999891e+02 1.947970000000000027e+03
8.200000000000000344e-02 1.615465000000000095e-01 3.161670000000000158e+01 1.097560000000000002e+02 1.949035000000000082e+03
8.300000000000000433e-02 1.616650000000000031e-01 3.265595000000000425e+01 1.124865000000000066e+02 1.950059999999999945e+03
8.400000000000000522e-02 1.617815000000000225e-01 3.363500000000000512e+01 1.152154999999999916e+02 1.951065000000000055e+03
8.500000000000000611e-02 1.618970000000000131e-01 3.457750000000000057e+01 1.179944999999999879e+02 1.952054999999999836e+03
8.600000000000000699e-02 1.620130000000000181e-01 3.550424999999999898e+01 1.208669999999999902e+02 1.953059999999999945e+03
8.700000000000000788e-02 1.621319999999999983e-01 3.643155000000000143e+01 1.238615000000000066e+02 1.954079999999999927e+03
8.800000000000000877e-02 1.622544999999999960e-01 3.737045000000000528e+01 1.269890000000000043e+02 1.955134999999999991e+03
8.899999999999999578e-02 1.623809999999999976e-01 3.832580000000000098e+01 1.302479999999999905e+02 1.956219999999999800e+03
8.999999999999999667e-02 1.625114999999999754e-01 3.929635000000000389e+01 1.336179999999999950e+02 1.957340000000000146e+03
9.099999999999999756e-02 1.626449999999999840e-01 4.027505000000000024e+01 1.370660000000000025e+02 1.958494999999999891e+03
9.199999999999999845e-02 1.627814999999999956e-01 4.124965000000000259e+01 1.405480000000000018e+02 1.959660000000000082e+03
9.299999999999999933e-02 1.629189999999999805e-01 4.220374999999999943e+01 1.440120000000000005e+02 1.960839999999999918e+03
9.400000000000000022e-02 1.630550000000000055e-01 4.311795000000000044e+01 1.473985000000000127e+02 1.962019999999999982e+03
9.500000000000000111e-02 1.631890000000000007e-01 4.397109999999999985e+01 1.506505000000000223e+02 1.963170000000000073e+03
9.600000000000000200e-02 1.633180000000000187e-01 4.474170000000000158e+01 1.537099999999999795e+02 1.964289999999999964e+03
9.700000000000000289e-02 1.634410000000000029e-01 4.540919999999999845e+01 1.565254999999999939e+02 1.965349999999999909e+03
9.800000000000000377e-02 1.635550000000000059e-01 4.595470000000000255e+01 1.590509999999999877e+02 1.966335000000000036e+03
9.900000000000000466e-02 1.636584999999999845e-01 4.636249999999999716e+01 1.612504999999999882e+02 1.967244999999999891e+03
1.000000000000000056e-01 1.637505000000000210e-01 4.662040000000000362e+01 1.630985000000000014e+02 1.968049999999999955e+03
1.010000000000000064e-01 1.638304999999999900e-01 4.672060000000000457e+01 1.645794999999999959e+02 1.968750000000000000e+03
1.020000000000000073e-01 1.638965000000000005e-01 4.665955000000000297e+01 1.656910000000000025e+02 1.969329999999999927e+03
1.030000000000000082e-01 1.639494999999999980e-01 4.643864999999999554e+01 1.664385000000000048e+02 1.969799999999999955e+03
1.040000000000000091e-01 1.639889999999999959e-01 4.606365000000000265e+01 1.668410000000000082e+02 1.970154999999999973e+03
1.050000000000000100e-01 1.640154999999999808e-01 4.554464999999999719e+01 1.669239999999999782e+02 1.970394999999999982e+03
1.059999999999999970e-01 1.640294999999999948e-01 4.489539999999999509e+01 1.667224999999999966e+02 1.970529999999999973e+03
1.069999999999999979e-01 1.640329999999999844e-01 4.413285000000000480e+01 1.662750000000000057e+02 1.970570000000000164e+03
1.079999999999999988e-01 1.640260000000000051e-01 4.327625000000000455e+01 1.656264999999999930e+02 1.970529999999999973e+03
1.089999999999999997e-01 1.640115000000000045e-01 4.234649999999999892e+01 1.648230000000000075e+02 1.970404999999999973e+03
1.100000000000000006e-01 1.639899999999999969e-01 4.136499999999999488e+01 1.639105000000000132e+02 1.970230000000000018e+03
1.110000000000000014e-01 1.639634999999999843e-01 4.035320000000000107e+01 1.629339999999999975e+02 1.970005000000000109e+03
1.120000000000000023e-01 1.639329999999999954e-01 3.933140000000000214e+01 1.619345000000000141e+02 1.969750000000000000e+03
1.130000000000000032e-01 1.639010000000000189e-01 3.831839999999999691e+01 1.609499999999999886e+02 1.969480000000000018e+03
1.140000000000000041e-01 1.638680000000000136e-01 3.733044999999999902e+01 1.600099999999999909e+02 1.969194999999999936e+03
1.150000000000000050e-01 1.638354999999999950e-01 3.638105000000000189e+01 1.591384999999999934e+02 1.968914999999999964e+03
1.160000000000000059e-01 1.638049999999999784e-01 3.548049999999999926e+01 1.583530000000000086e+02 1.968650000000000091e+03
1.170000000000000068e-01 1.637759999999999772e-01 3.463564999999999827e+01 1.576614999999999895e+02 1.968400000000000091e+03
1.180000000000000077e-01 1.637500000000000067e-01 3.384985000000000355e+01 1.570649999999999977e+02 1.968170000000000073e+03
1.190000000000000085e-01 1.637270000000000114e-01 3.312290000000000134e+01 1.565584999999999809e+02 1.967965000000000146e+03
1.200000000000000094e-01 1.637060000000000182e-01 3.245175000000000409e+01 1.561284999999999741e+02 1.967784999999999854e+03
1.209999999999999964e-01 1.636880000000000002e-01 3.183009999999999806e+01 1.557584999999999980e+02 1.967619999999999891e+03
1.219999999999999973e-01 1.636714999999999975e-01 3.124960000000000093e+01 1.554250000000000114e+02 1.967469999999999800e+03
1.229999999999999982e-01 1.636565000000000103e-01 3.069984999999999786e+01 1.551030000000000086e+02 1.967340000000000146e+03
1.239999999999999991e-01 1.636414999999999953e-01 3.016949999999999932e+01 1.547655000000000030e+02 1.967204999999999927e+03
1.250000000000000000e-01 1.636265000000000081e-01 2.964639999999999986e+01 1.543859999999999957e+02 1.967069999999999936e+03
1.260000000000000009e-01 1.636100000000000054e-01 2.911854999999999905e+01 1.539379999999999882e+02 1.966924999999999955e+03
1.270000000000000018e-01 1.635909999999999864e-01 2.857469999999999999e+01 1.533975000000000080e+02 1.966759999999999991e+03
1.280000000000000027e-01 1.635689999999999922e-01 2.800479999999999947e+01 1.527454999999999927e+02 1.966570000000000164e+03
1.290000000000000036e-01 1.635435000000000083e-01 2.740055000000000263e+01 1.519680000000000177e+02 1.966345000000000027e+03
1.300000000000000044e-01 1.635130000000000194e-01 2.675600000000000023e+01 1.510545000000000186e+02 1.966085000000000036e+03
1.310000000000000053e-01 1.634784999999999988e-01 2.606759999999999877e+01 1.500024999999999977e+02 1.965785000000000082e+03
1.320000000000000062e-01 1.634384999999999866e-01 2.533449999999999847e+01 1.488139999999999930e+02 1.965444999999999936e+03
1.330000000000000071e-01 1.633939999999999837e-01 2.455870000000000175e+01 1.475000000000000000e+02 1.965059999999999945e+03
1.340000000000000080e-01 1.633449999999999902e-01 2.374490000000000123e+01 1.460749999999999886e+02 1.964639999999999873e+03
1.350000000000000089e-01 1.632919999999999927e-01 2.290024999999999977e+01 1.445600000000000023e+02 1.964184999999999945e+03
1.360000000000000098e-01 1.632355000000000056e-01 2.203414999999999679e+01 1.429800000000000182e+02 1.963700000000000045e+03
1.370000000000000107e-01 1.631759999999999877e-01 2.115775000000000006e+01 1.413634999999999877e+02 1.963190000000000055e+03
1.380000000000000115e-01 1.631150000000000100e-01 2.028324999999999889e+01 1.397420000000000186e+02 1.962670000000000073e+03
1.390000000000000124e-01 1.630535000000000179e-01 1.942389999999999972e+01 1.381455000000000268e+02 1.962139999999999873e+03
1.400000000000000133e-01 1.629929999999999990e-01 1.859280000000000044e+01 1.366055000000000064e+02 1.961619999999999891e+03
1.410000000000000142e-01 1.629335000000000089e-01 1.780270000000000152e+01 1.351504999999999939e+02 1.961105000000000018e+03
1.420000000000000151e-01 1.628769999999999940e-01 1.706530000000000058e+01 1.338060000000000116e+02 1.960619999999999891e+03
1.430000000000000160e-01 1.628235000000000099e-01 1.639085000000000036e+01 1.325944999999999823e+02 1.960160000000000082e+03
1.440000000000000169e-01 1.627750000000000030e-01 1.578774999999999906e+01 1.315324999999999989e+02 1.959740000000000009e+03
1.450000000000000178e-01 1.627315000000000011e-01 1.526224999999999810e+01 1.306314999999999884e+02 1.959360000000000127e+03
1.459999999999999909e-01 1.626934999999999909e-01 1.481820000000000093e+01 1.298985000000000127e+02 1.959029999999999973e+03
1.469999999999999918e-01 1.626615000000000144e-01 1.445704999999999885e+01 1.293329999999999984e+02 1.958750000000000000e+03
1.479999999999999927e-01 1.626354999999999884e-01 1.417794999999999916e+01 1.289309999999999832e+02 1.958519999999999982e+03
1.489999999999999936e-01 1.626154999999999962e-01 1.397759999999999891e+01 1.286820000000000164e+02 1.958340000000000146e+03
1.499999999999999944e-01 1.626009999999999955e-01 1.385085000000000122e+01 1.285730000000000075e+02 1.958210000000000036e+03
1.509999999999999953e-01 1.625920000000000143e-01 1.379074999999999918e+01 1.285869999999999891e+02 1.958125000000000000e+03
1.519999999999999962e-01 1.625874999999999959e-01 1.378885000000000005e+01 1.287044999999999959e+02 1.958085000000000036e+03
1.529999999999999971e-01 1.625874999999999959e-01 1.383590000000000053e+01 1.289039999999999964e+02 1.958074999999999818e+03
1.539999999999999980e-01 1.625904999999999989e-01 1.392194999999999894e+01 1.291645000000000039e+02 1.958099999999999909e+03
1.549999999999999989e-01 1.625965000000000049e-01 1.403669999999999973e+01 1.294635000000000105e+02 1.958139999999999873e+03
1.559999999999999998e-01 1.626039999999999985e-01 1.417020000000000124e+01 1.297819999999999823e+02 1.958204999999999927e+03
1.570000000000000007e-01 1.626130000000000075e-01 1.431285000000000096e+01 1.300995000000000061e+02 1.958279999999999973e+03
1.580000000000000016e-01 1.626225000000000032e-01 1.445589999999999975e+01 1.304010000000000105e+02 1.958355000000000018e+03
1.590000000000000024e-01 1.626319999999999988e-01 1.459154999999999980e+01 1.306714999999999804e+02 1.958434999999999945e+03
