# t [s], A [cm^2], U [cm/s], P [cPa], c [cm/s]
1.000000000000000021e-03 1.381195000000000062e-01 2.342464999999999686e-01 1.026359999999999957e+02 1.975529999999999973e+03
2.000000000000000042e-03 1.380905000000000049e-01 1.730309999999999793e+00 9.961420000000001096e+01 1.975210000000000036e+03
3.000000000000000062e-03 1.379954999999999932e-01 3.616140499999999758e+00 9.543489999999999895e+01 1.974215000000000146e+03
4.000000000000000083e-03 1.378570000000000073e-01 5.737907596000000332e+00 9.066204999999999359e+01 1.972799999999999955e+03
5.000000000000000104e-03 1.376999999999999891e-01 8.033319999999999794e+00 8.611440000000000339e+01 1.971200000000000045e+03
6.000000000000000125e-03 1.375429999999999986e-01 1.037618499999999955e+01 8.222745000000000459e+01 1.969630000000000109e+03
7.000000000000000146e-03 1.373940000000000161e-01 1.257510499999999887e+01 7.895349999999999113e+01 1.968154999999999973e+03
8.000000000000000167e-03 1.372545000000000015e-01 1.449138999999999911e+01 7.604974999999998886e+01 1.966799999999999955e+03
9.000000000000001055e-03 1.371279999999999999e-01 1.611315000000000097e+01 7.344845000000000823e+01 1.965590000000000146e+03
1.000000000000000194e-02 1.370175000000000143e-01 1.747874999999999801e+01 7.122624999999999318e+01 1.964545000000000073e+03
1.099999999999999936e-02 1.369245000000000045e-01 1.861209999999999809e+01 6.941660000000000252e+01 1.963670000000000073e+03
1.200000000000000025e-02 1.368475000000000108e-01 1.952969999999999828e+01 6.799209999999999354e+01 1.962960000000000036e+03
1.300000000000000114e-02 1.367864999999999776e-01 2.024510000000000076e+01 6.689875000000000682e+01 1.962400000000000091e+03
1.400000000000000203e-02 1.367379999999999984e-01 2.076225000000000165e+01 6.604695000000000960e+01 1.961965000000000146e+03
1.499999999999999944e-02 1.366985000000000006e-01 2.109284999999999854e+01 6.533920000000000528e+01 1.961619999999999891e+03
1.600000000000000033e-02 1.366674999999999973e-01 2.129025000000000034e+01 6.476564999999999372e+01 1.961355000000000018e+03
1.700000000000000122e-02 1.366459999999999897e-01 2.145884999999999820e+01 6.447185000000000343e+01 1.961174999999999955e+03
1.800000000000000211e-02 1.366395000000000248e-01 2.171950000000000003e+01 6.471020000000000039e+01 1.961134999999999991e+03
1.900000000000000300e-02 1.366534999999999833e-01 2.215409999999999968e+01 6.569525000000000148e+01 1.961279999999999973e+03
2.000000000000000042e-02 1.366910000000000069e-01 2.276595000000000013e+01 6.746240000000000236e+01 1.961630000000000109e+03
2.100000000000000130e-02 1.367470000000000074e-01 2.347724999999999795e+01 6.981215000000000259e+01 1.962159999999999854e+03
2.200000000000000219e-02 1.368150000000000199e-01 2.415990000000000038e+01 7.236310000000000286e+01 1.962815000000000055e+03
2.299999999999999961e-02 1.368845000000000200e-01 2.468269999999999698e+01 7.467510000000000048e+01 1.963480000000000018e+03
2.400000000000000050e-02 1.369460000000000122e-01 2.495315000000000083e+01 7.638710000000000377e+01 1.964079999999999927e+03
2.500000000000000139e-02 1.369914999999999883e-01 2.494180000000000064e+01 7.731520000000000437e+01 1.964529999999999973e+03
2.600000000000000228e-02 1.370175000000000143e-01 2.468260000000000076e+01 7.748384999999998968e+01 1.964809999999999945e+03
2.700000000000000316e-02 1.370274999999999965e-01 2.425285000000000224e+01 7.708744999999998981e+01 1.964930000000000064e+03
2.800000000000000058e-02 1.370255000000000223e-01 2.374220000000000041e+01 7.640380000000000393e+01 1.964925000000000182e+03
2.900000000000000147e-02 1.370164999999999855e-01 2.322314999999999685e+01 7.569474999999999909e+01 1.964849999999999909e+03
3.000000000000000236e-02 1.370065000000000033e-01 2.273149999999999693e+01 7.512835000000001173e+01 1.964755000000000109e+03
3.099999999999999978e-02 1.369980000000000087e-01 2.226304999999999978e+01 7.474445000000000050e+01 1.964674999999999955e+03
3.200000000000000067e-02 1.369905000000000150e-01 2.178275000000000006e+01 7.446719999999999118e+01 1.964599999999999909e+03
3.300000000000000155e-02 1.369819999999999927e-01 2.124394999999999811e+01 7.415234999999999843e+01 1.964525000000000091e+03
3.400000000000000244e-02 1.369694999999999940e-01 2.060889999999999844e+01 7.365205000000000268e+01 1.964414999999999964e+03
3.500000000000000333e-02 1.369509999999999894e-01 1.986609999999999943e+01 7.287600000000000477e+01 1.964239999999999782e+03
3.600000000000000422e-02 1.369245000000000045e-01 1.903934999999999889e+01 7.183140000000000214e+01 1.964000000000000000e+03
3.700000000000000511e-02 1.368929999999999869e-01 1.818585000000000207e+01 7.063254999999999484e+01 1.963704999999999927e+03
3.799999999999999906e-02 1.368594999999999950e-01 1.738445000000000107e+01 6.947695000000000221e+01 1.963394999999999982e+03
3.899999999999999994e-02 1.368300000000000072e-01 1.671724999999999994e+01 6.859620000000001028e+01 1.963110000000000127e+03
4.000000000000000083e-02 1.368099999999999872e-01 1.625029999999999930e+01 6.819650000000000034e+01 1.962909999999999854e+03
4.100000000000000172e-02 1.368034999999999946e-01 1.601834999999999809e+01 6.840610000000000923e+01 1.962835000000000036e+03
4.200000000000000261e-02 1.368134999999999768e-01 1.601754999999999995e+01 6.924385000000000900e+01 1.962914999999999964e+03
4.300000000000000350e-02 1.368395000000000028e-01 1.620730000000000004e+01 7.061475000000000080e+01 1.963150000000000091e+03
4.400000000000000439e-02 1.368785000000000140e-01 1.651895000000000024e+01 7.233064999999999145e+01 1.963500000000000000e+03
4.499999999999999833e-02 1.369250000000000189e-01 1.686905000000000143e+01 7.414785000000000537e+01 1.963934999999999945e+03
4.599999999999999922e-02 1.369734999999999980e-01 1.717345000000000255e+01 7.581250000000000000e+01 1.964394999999999982e+03
4.700000000000000011e-02 1.370169999999999999e-01 1.735934999999999917e+01 7.710065000000000168e+01 1.964809999999999945e+03
4.800000000000000100e-02 1.370500000000000052e-01 1.737364999999999782e+01 7.784900000000000375e+01 1.965125000000000000e+03
4.900000000000000189e-02 1.370684999999999820e-01 1.718655000000000044e+01 7.796999999999999886e+01 1.965309999999999945e+03
5.000000000000000278e-02 1.370699999999999974e-01 1.679064999999999941e+01 7.745154999999999745e+01 1.965339999999999918e+03
5.100000000000000366e-02 1.370550000000000102e-01 1.619729999999999848e+01 7.634520000000000550e+01 1.965204999999999927e+03
5.200000000000000455e-02 1.370230000000000059e-01 1.543070000000000164e+01 7.474619999999998754e+01 1.964914999999999964e+03
5.300000000000000544e-02 1.369775000000000020e-01 1.452224999999999966e+01 7.277199999999999136e+01 1.964490000000000009e+03
5.399999999999999939e-02 1.369215000000000015e-01 1.350574999999999903e+01 7.054325000000000045e+01 1.963965000000000146e+03
5.500000000000000028e-02 1.368564999999999920e-01 1.241429499999999919e+01 6.817095000000000482e+01 1.963355000000000018e+03
5.600000000000000117e-02 1.367865000000000053e-01 1.127940500000000057e+01 6.575034999999999741e+01 1.962690000000000055e+03
5.700000000000000205e-02 1.367140000000000022e-01 1.013105999999999973e+01 6.336104999999999876e+01 1.962000000000000000e+03
5.800000000000000294e-02 1.366410000000000124e-01 8.999304999999999666e+00 6.107144999999999868e+01 1.961309999999999945e+03
5.900000000000000383e-02 1.365704999999999836e-01 7.915014999999999468e+00 5.894504999999999484e+01 1.960639999999999873e+03
6.000000000000000472e-02 1.365045000000000008e-01 6.911455000000000126e+00 5.704579999999999984e+01 1.960005000000000109e+03
6.099999999999999867e-02 1.364444999999999963e-01 6.024019999999999264e+00 5.544230000000000302e+01 1.959434999999999945e+03
6.199999999999999956e-02 1.363940000000000152e-01 5.289690000000000225e+00 5.420779999999999887e+01 1.958945000000000164e+03
6.300000000000000044e-02 1.363550000000000040e-01 4.745385000000000630e+00 5.341840000000000543e+01 1.958565000000000055e+03
6.400000000000000133e-02 1.363289999999999780e-01 4.425890000000000768e+00 5.314829999999999899e+01 1.958304999999999836e+03
6.500000000000000222e-02 1.363189999999999957e-01 4.361444999999999794e+00 5.346335000000000548e+01 1.958194999999999936e+03
6.600000000000000311e-02 1.363280000000000047e-01 4.575524999999999842e+00 5.441549999999999443e+01 1.958255000000000109e+03
6.700000000000000400e-02 1.363550000000000040e-01 5.083085000000000520e+00 5.603699999999999903e+01 1.958500000000000000e+03
6.800000000000000488e-02 1.364035000000000108e-01 5.889454999999999885e+00 5.833735000000000070e+01 1.958940000000000055e+03
6.900000000000000577e-02 1.364730000000000110e-01 6.989929999999999310e+00 6.130159999999999343e+01 1.959574999999999818e+03
7.000000000000000666e-02 1.365625000000000033e-01 8.370140000000001024e+00 6.489140000000000441e+01 1.960404999999999973e+03
7.100000000000000755e-02 1.366705000000000003e-01 1.000702000000000069e+01 6.904715000000000202e+01 1.961424999999999955e+03
7.200000000000000844e-02 1.367975000000000163e-01 1.187019500000000072e+01 7.369274999999998954e+01 1.962610000000000127e+03
7.300000000000000933e-02 1.369394999999999918e-01 1.392364999999999853e+01 7.873964999999999748e+01 1.963950000000000045e+03
7.399999999999999634e-02 1.370945000000000080e-01 1.612764999999999915e+01 8.409264999999999191e+01 1.965414999999999964e+03
7.499999999999999722e-02 1.372595000000000065e-01 1.844055000000000177e+01 8.965484999999999616e+01 1.966990000000000009e+03
7.599999999999999811e-02 1.374325000000000130e-01 2.082094999999999985e+01 9.533254999999999768e+01 1.968634999999999991e+03
7.699999999999999900e-02 1.376100000000000101e-01 2.322909999999999897e+01 1.010397000000000105e+02 1.970335000000000036e+03
7.799999999999999989e-02 1.377900000000000236e-01 2.562875000000000014e+01 1.067019499999999965e+02 1.972065000000000055e+03
7.900000000000000078e-02 1.379690000000000083e-01 2.798829999999999885e+01 1.122580000000000098e+02 1.973795000000000073e+03
8.000000000000000167e-02 1.381470000000000198e-01 3.028175000000000239e+01 1.176640000000000015e+02 1.975514999999999873e+03
8.100000000000000255e-02 1.383214999999999861e-01 3.248910000000000053e+01 1.228905000000000030e+02 1.977204999999999927e+03
8.200000000000000344e-02 1.384910000000000030e-01 3.459645000000000437e+01 1.279244999999999948e+02 1.978860000000000127e+03
8.300000000000000433e-02 1.386560000000000015e-01 3.659555000000000291e+01 1.327665000000000077e+02 1.980474999999999909e+03
8.400000000000000522e-02 1.388165000000000093e-01 3.848295000000000243e+01 1.374269999999999925e+02 1.982039999999999964e+03
8.500000000000000611e-02 1.389714999999999978e-01 4.025889999999999702e+01 1.419239999999999782e+02 1.983559999999999945e+03
8.600000000000000699e-02 1.391220000000000234e-01 4.192650000000000432e+01 1.462789999999999964e+02 1.985039999999999964e+03
8.700000000000000788e-02 1.392685000000000173e-01 4.349020000000000152e+01 1.505129999999999768e+02 1.986480000000000018e+03
8.800000000000000877e-02 1.394115000000000215e-01 4.495499999999999829e+01 1.546455000000000268e+02 1.987884999999999991e+03
8.899999999999999578e-02 1.395510000000000084e-01 4.632540000000000191e+01 1.586889999999999930e+02 1.989264999999999873e+03
8.999999999999999667e-02 1.396880000000000066e-01 4.760500000000000398e+01 1.626505000000000223e+02 1.990615000000000009e+03
9.099999999999999756e-02 1.398220000000000018e-01 4.879585000000000150e+01 1.665310000000000059e+02 1.991940000000000055e+03
9.199999999999999845e-02 1.399529999999999941e-01 4.989855000000000018e+01 1.703234999999999957e+02 1.993235000000000127e+03
9.299999999999999933e-02 1.400814999999999977e-01 5.091210000000000235e+01 1.740160000000000196e+02 1.994509999999999991e+03
9.400000000000000022e-02 1.402059999999999973e-01 5.183405000000000484e+01 1.775919999999999845e+02 1.995740000000000009e+03
9.500000000000000111e-02 1.403265000000000207e-01 5.266075000000000017e+01 1.810310000000000059e+02 1.996940000000000055e+03
9.600000000000000200e-02 1.404424999999999979e-01 5.338779999999999859e+01 1.843100000000000023e+02 1.998099999999999909e+03
9.700000000000000289e-02 1.405540000000000123e-01 5.400995000000000346e+01 1.874064999999999941e+02 1.999204999999999927e+03
9.800000000000000377e-02 1.406584999999999919e-01 5.452200000000000557e+01 1.902984999999999900e+02 2.000250000000000000e+03
9.900000000000000466e-02 1.407574999999999799e-01 5.491854999999999620e+01 1.929625000000000057e+02 2.001235000000000127e+03
1.000000000000000056e-01 1.408484999999999876e-01 5.519469999999999743e+01 1.953805000000000121e+02 2.002150000000000091e+03
1.010000000000000064e-01 1.409320000000000017e-01 5.534620000000000317e+01 1.975335000000000036e+02 2.002990000000000009e+03
1.020000000000000073e-01 1.410069999999999935e-01 5.536969999999999459e+01 1.994085000000000036e+02 2.003744999999999891e+03
1.030000000000000082e-01 1.410735000000000183e-01 5.526330000000000098e+01 2.009954999999999927e+02 2.004404999999999973e+03
1.040000000000000091e-01 1.411299999999999777e-01 5.502655000000000030e+01 2.022889999999999873e+02 2.004985000000000127e+03
1.050000000000000100e-01 1.411775000000000113e-01 5.466084999999999638e+01 2.032874999999999943e+02 2.005474999999999909e+03
1.059999999999999970e-01 1.412164999999999948e-01 5.416980000000000217e+01 2.039950000000000045e+02 2.005865000000000009e+03
1.069999999999999979e-01 1.412450000000000094e-01 5.355899999999999750e+01 2.044215000000000089e+02 2.006164999999999964e+03
1.079999999999999988e-01 1.412649999999999739e-01 5.283634999999999593e+01 2.045835000000000150e+02 2.006375000000000000e+03
1.089999999999999997e-01 1.412765000000000271e-01 5.201180000000000092e+01 2.044995000000000118e+02 2.006500000000000000e+03
1.100000000000000006e-01 1.412795000000000023e-01 5.109714999999999918e+01 2.041955000000000098e+02 2.006545000000000073e+03
1.110000000000000014e-01 1.412760000000000127e-01 5.010575000000000045e+01 2.036999999999999886e+02 2.006519999999999982e+03
1.120000000000000023e-01 1.412660000000000027e-01 4.905199999999999960e+01 2.030439999999999827e+02 2.006430000000000064e+03
1.130000000000000032e-01 1.412505000000000011e-01 4.795105000000000217e+01 2.022595000000000027e+02 2.006275000000000091e+03
1.140000000000000041e-01 1.412304999999999811e-01 4.681790000000000163e+01 2.013790000000000191e+02 2.006085000000000036e+03
1.150000000000000050e-01 1.412069999999999992e-01 4.566729999999999734e+01 2.004339999999999975e+02 2.005855000000000018e+03
1.160000000000000059e-01 1.411804999999999866e-01 4.451300000000000523e+01 1.994524999999999864e+02 2.005599999999999909e+03
1.170000000000000068e-01 1.411525000000000141e-01 4.336754999999999427e+01 1.984600000000000080e+02 2.005324999999999818e+03
1.180000000000000077e-01 1.411239999999999994e-01 4.224155000000000371e+01 1.974769999999999754e+02 2.005045000000000073e+03
1.190000000000000085e-01 1.410949999999999982e-01 4.114374999999999716e+01 1.965199999999999818e+02 2.004755000000000109e+03
1.200000000000000094e-01 1.410659999999999969e-01 4.008064999999999856e+01 1.955994999999999777e+02 2.004465000000000146e+03
1.209999999999999964e-01 1.410374999999999823e-01 3.905655000000000143e+01 1.947224999999999966e+02 2.004184999999999945e+03
1.219999999999999973e-01 1.410099999999999965e-01 3.807344999999999402e+01 1.938890000000000100e+02 2.003904999999999973e+03
1.229999999999999982e-01 1.409834999999999838e-01 3.713105000000000189e+01 1.930955000000000155e+02 2.003644999999999982e+03
1.239999999999999991e-01 1.409580000000000000e-01 3.622695000000000221e+01 1.923335000000000150e+02 2.003384999999999991e+03
1.250000000000000000e-01 1.409329999999999750e-01 3.535719999999999885e+01 1.915914999999999964e+02 2.003130000000000109e+03
1.260000000000000009e-01 1.409084999999999921e-01 3.451604999999999990e+01 1.908534999999999968e+02 2.002884999999999991e+03
1.270000000000000018e-01 1.408834999999999948e-01 3.369675000000000153e+01 1.901050000000000182e+02 2.002634999999999991e+03
1.280000000000000027e-01 1.408579999999999832e-01 3.289170000000000016e+01 1.893265000000000100e+02 2.002380000000000109e+03
1.290000000000000036e-01 1.408320000000000127e-01 3.209290000000000020e+01 1.885000000000000000e+02 2.002115000000000009e+03
1.300000000000000044e-01 1.408039999999999847e-01 3.129254999999999853e+01 1.876090000000000089e+02 2.001840000000000146e+03
1.310000000000000053e-01 1.407740000000000102e-01 3.048315000000000197e+01 1.866374999999999886e+02 2.001545000000000073e+03
1.320000000000000062e-01 1.407420000000000060e-01 2.965809999999999746e+01 1.855730000000000075e+02 2.001220000000000027e+03
1.330000000000000071e-01 1.407065000000000121e-01 2.881199999999999761e+01 1.844050000000000011e+02 2.000875000000000000e+03
1.340000000000000080e-01 1.406685000000000019e-01 2.794075000000000131e+01 1.831279999999999859e+02 2.000494999999999891e+03
1.350000000000000089e-01 1.406264999999999876e-01 2.704194999999999993e+01 1.817395000000000209e+02 2.000085000000000036e+03
1.360000000000000098e-01 1.405814999999999981e-01 2.611514999999999986e+01 1.802415000000000020e+02 1.999640000000000100e+03
1.370000000000000107e-01 1.405334999999999779e-01 2.516154999999999831e+01 1.786409999999999911e+02 1.999164999999999964e+03
1.380000000000000115e-01 1.404819999999999958e-01 2.418419999999999703e+01 1.769479999999999791e+02 1.998659999999999854e+03
1.390000000000000124e-01 1.404279999999999973e-01 2.318799999999999883e+01 1.751769999999999925e+02 1.998130000000000109e+03
1.400000000000000133e-01 1.403710000000000235e-01 2.217920000000000158e+01 1.733464999999999918e+02 1.997570000000000164e+03
1.410000000000000142e-01 1.403125000000000067e-01 2.116560000000000130e+01 1.714764999999999873e+02 1.996994999999999891e+03
1.420000000000000151e-01 1.402525000000000022e-01 2.015565000000000140e+01 1.695889999999999986e+02 1.996404999999999973e+03
1.430000000000000160e-01 1.401920000000000111e-01 1.915869999999999962e+01 1.677075000000000102e+02 1.995809999999999945e+03
1.440000000000000169e-01 1.401320000000000066e-01 1.818415000000000248e+01 1.658539999999999850e+02 1.995215000000000146e+03
1.450000000000000178e-01 1.400720000000000021e-01 1.724125000000000085e+01 1.640514999999999759e+02 1.994625000000000000e+03
1.459999999999999909e-01 1.400135000000000129e-01 1.633875000000000099e+01 1.623199999999999932e+02 1.994049999999999955e+03
1.469999999999999918e-01 1.399575000000000125e-01 1.548440000000000083e+01 1.606775000000000091e+02 1.993490000000000009e+03
1.479999999999999927e-01 1.399035000000000140e-01 1.468495000000000061e+01 1.591379999999999768e+02 1.992960000000000036e+03
1.489999999999999936e-01 1.398524999999999907e-01 1.394549999999999912e+01 1.577124999999999773e+02 1.992460000000000036e+03
1.499999999999999944e-01 1.398050000000000126e-01 1.326984999999999992e+01 1.564080000000000155e+02 1.991990000000000009e+03
1.509999999999999953e-01 1.397614999999999830e-01 1.265984999999999872e+01 1.552270000000000039e+02 1.991549999999999955e+03
1.519999999999999962e-01 1.397209999999999841e-01 1.211614499999999950e+01 1.541700000000000159e+02 1.991150000000000091e+03
1.529999999999999971e-01 1.396844999999999892e-01 1.163754499999999936e+01 1.532319999999999993e+02 1.990784999999999854e+03
1.539999999999999980e-01 1.396515000000000117e-01 1.122161000000000008e+01 1.524060000000000059e+02 1.990460000000000036e+03
1.549999999999999989e-01 1.396224999999999827e-01 1.086473499999999959e+01 1.516829999999999927e+02 1.990164999999999964e+03
1.559999999999999998e-01 1.395965000000000122e-01 1.056237499999999940e+01 1.510520000000000209e+02 1.989900000000000091e+03
1.570000000000000007e-01 1.395730000000000026e-01 1.030921999999999983e+01 1.505014999999999930e+02 1.989670000000000073e+03
1.580000000000000016e-01 1.395524999999999960e-01 1.009951500000000024e+01 1.500174999999999841e+02 1.989465000000000146e+03
1.590000000000000024e-01 1.395339999999999914e-01 9.927289999999999281e+00 1.495885000000000105e+02 1.989275000000000091e+03
