# t [s], A [cm^2], U [cm/s], P [cPa], c [cm/s]
1.000000000000000021e-03 1.329905000000000115e-01 2.749185000000000101e-01 1.002721500000000106e+02 1.957894999999999982e+03
2.000000000000000042e-03 1.329684999999999895e-01 1.721043499999999948e+00 9.728215000000000146e+01 1.957615000000000009e+03
3.000000000000000062e-03 1.328885000000000205e-01 3.504187500000000011e+00 9.333164999999999623e+01 1.956630000000000109e+03
4.000000000000000083e-03 1.327694999999999848e-01 5.487985999999999365e+00 8.891685000000001082e+01 1.955195000000000164e+03
5.000000000000000104e-03 1.326324999999999865e-01 7.617899999999999672e+00 8.475714999999999577e+01 1.953559999999999945e+03
6.000000000000000125e-03 1.324925000000000130e-01 9.785600000000000520e+00 8.121985000000000809e+01 1.951904999999999973e+03
7.000000000000000146e-03 1.323584999999999900e-01 1.183301999999999943e+01 7.825549999999999784e+01 1.950335000000000036e+03
8.000000000000000167e-03 1.322315000000000018e-01 1.364513999999999960e+01 7.565070000000000050e+01 1.948875000000000000e+03
9.000000000000001055e-03 1.321144999999999958e-01 1.520538999999999952e+01 7.332479999999999620e+01 1.947550000000000182e+03
1.000000000000000194e-02 1.320109999999999895e-01 1.654165000000000063e+01 7.132479999999999620e+01 1.946384999999999991e+03
1.099999999999999936e-02 1.319210000000000105e-01 1.767259999999999920e+01 6.967615000000000691e+01 1.945394999999999982e+03
1.200000000000000025e-02 1.318449999999999900e-01 1.860660000000000025e+01 6.834839999999999804e+01 1.944565000000000055e+03
1.300000000000000114e-02 1.317824999999999969e-01 1.934844999999999970e+01 6.728220000000000312e+01 1.943884999999999991e+03
1.400000000000000203e-02 1.317309999999999870e-01 1.989969999999999928e+01 6.639704999999999302e+01 1.943329999999999927e+03
1.499999999999999944e-02 1.316869999999999985e-01 2.027205000000000013e+01 6.561879999999999313e+01 1.942875000000000000e+03
1.600000000000000033e-02 1.316505000000000036e-01 2.050985000000000014e+01 6.494565000000000055e+01 1.942490000000000009e+03
1.700000000000000122e-02 1.316220000000000168e-01 2.069594999999999985e+01 6.449490000000000123e+01 1.942210000000000036e+03
1.800000000000000211e-02 1.316055000000000141e-01 2.092830000000000013e+01 6.446999999999999886e+01 1.942049999999999955e+03
1.900000000000000300e-02 1.316049999999999998e-01 2.128089999999999904e+01 6.505899999999999750e+01 1.942059999999999945e+03
2.000000000000000042e-02 1.316235000000000044e-01 2.177335000000000065e+01 6.632729999999999393e+01 1.942269999999999982e+03
2.100000000000000130e-02 1.316594999999999849e-01 2.236424999999999841e+01 6.816675000000000750e+01 1.942680000000000064e+03
2.200000000000000219e-02 1.317094999999999794e-01 2.296875000000000000e+01 7.031829999999999359e+01 1.943235000000000127e+03
2.299999999999999961e-02 1.317659999999999942e-01 2.348890000000000100e+01 7.245154999999999745e+01 1.943875000000000000e+03
2.400000000000000050e-02 1.318215000000000081e-01 2.384394999999999953e+01 7.426089999999999236e+01 1.944509999999999991e+03
2.500000000000000139e-02 1.318699999999999872e-01 2.399060000000000059e+01 7.554325000000000045e+01 1.945070000000000164e+03
2.600000000000000228e-02 1.319069999999999965e-01 2.392869999999999919e+01 7.623525000000000773e+01 1.945505000000000109e+03
2.700000000000000316e-02 1.319319999999999937e-01 2.369344999999999857e+01 7.640450000000001296e+01 1.945805000000000064e+03
2.800000000000000058e-02 1.319454999999999933e-01 2.333820000000000050e+01 7.620515000000000327e+01 1.945970000000000027e+03
2.900000000000000147e-02 1.319504999999999983e-01 2.291570000000000107e+01 7.581604999999998995e+01 1.946045000000000073e+03
3.000000000000000236e-02 1.319494999999999973e-01 2.246330000000000027e+01 7.538505000000000678e+01 1.946050000000000182e+03
3.099999999999999978e-02 1.319464999999999943e-01 2.199605000000000032e+01 7.499330000000000496e+01 1.946025000000000091e+03
3.200000000000000067e-02 1.319420000000000037e-01 2.150809999999999889e+01 7.464764999999999873e+01 1.945980000000000018e+03
3.300000000000000155e-02 1.319359999999999977e-01 2.098110000000000142e+01 7.429795000000000016e+01 1.945909999999999854e+03
3.400000000000000244e-02 1.319275000000000031e-01 2.039544999999999675e+01 7.387019999999999698e+01 1.945824999999999818e+03
3.500000000000000333e-02 1.319154999999999911e-01 1.974130000000000251e+01 7.330289999999999395e+01 1.945695000000000164e+03
3.600000000000000422e-02 1.318989999999999885e-01 1.902580000000000027e+01 7.257704999999999984e+01 1.945519999999999982e+03
3.700000000000000511e-02 1.318785000000000096e-01 1.827544999999999931e+01 7.173134999999999195e+01 1.945299999999999955e+03
3.799999999999999906e-02 1.318560000000000010e-01 1.753269999999999840e+01 7.085944999999999538e+01 1.945050000000000182e+03
3.899999999999999994e-02 1.318334999999999924e-01 1.684799999999999898e+01 7.009074999999999989e+01 1.944800000000000182e+03
4.000000000000000083e-02 1.318139999999999867e-01 1.626930000000000121e+01 6.956094999999999118e+01 1.944585000000000036e+03
4.100000000000000172e-02 1.318014999999999881e-01 1.583230000000000004e+01 6.938005000000001132e+01 1.944434999999999945e+03
4.200000000000000261e-02 1.317979999999999985e-01 1.555339999999999989e+01 6.960715000000000430e+01 1.944389999999999873e+03
4.300000000000000350e-02 1.318044999999999911e-01 1.542639999999999922e+01 7.023625000000001251e+01 1.944454999999999927e+03
4.400000000000000439e-02 1.318209999999999937e-01 1.542459999999999987e+01 7.119720000000000937e+01 1.944630000000000109e+03
4.499999999999999833e-02 1.318455000000000044e-01 1.550560000000000116e+01 7.236875000000000568e+01 1.944894999999999982e+03
4.599999999999999922e-02 1.318759999999999932e-01 1.561864999999999881e+01 7.360024999999998840e+01 1.945214999999999918e+03
4.700000000000000011e-02 1.319069999999999965e-01 1.571219999999999928e+01 7.473545000000000016e+01 1.945559999999999945e+03
4.800000000000000100e-02 1.319365000000000121e-01 1.574029999999999951e+01 7.563530000000000086e+01 1.945884999999999991e+03
4.900000000000000189e-02 1.319599999999999940e-01 1.566724999999999923e+01 7.619389999999999930e+01 1.946155000000000200e+03
5.000000000000000278e-02 1.319754999999999956e-01 1.546965000000000146e+01 7.634675000000000011e+01 1.946324999999999818e+03
5.100000000000000366e-02 1.319805000000000006e-01 1.513650000000000162e+01 7.607189999999999941e+01 1.946389999999999873e+03
5.200000000000000455e-02 1.319744999999999946e-01 1.466755000000000031e+01 7.538394999999999868e+01 1.946329999999999927e+03
5.300000000000000544e-02 1.319575000000000053e-01 1.407085000000000008e+01 7.432489999999999952e+01 1.946150000000000091e+03
5.399999999999999939e-02 1.319305000000000061e-01 1.335999999999999943e+01 7.295339999999998781e+01 1.945849999999999909e+03
5.500000000000000028e-02 1.318940000000000112e-01 1.255164999999999864e+01 7.133509999999999707e+01 1.945450000000000045e+03
5.600000000000000117e-02 1.318495000000000084e-01 1.166447499999999948e+01 6.953565000000000396e+01 1.944964999999999918e+03
5.700000000000000205e-02 1.317995000000000139e-01 1.071770500000000048e+01 6.761679999999999779e+01 1.944405000000000200e+03
5.800000000000000294e-02 1.317445000000000144e-01 9.731600000000000250e+00 6.563550000000000750e+01 1.943795000000000073e+03
5.900000000000000383e-02 1.316864999999999841e-01 8.727515000000000356e+00 6.364499999999999602e+01 1.943150000000000091e+03
6.000000000000000472e-02 1.316275000000000084e-01 7.728320000000000078e+00 6.169724999999999682e+01 1.942500000000000000e+03
6.099999999999999867e-02 1.315695000000000059e-01 6.758620000000000516e+00 5.984510000000000218e+01 1.941840000000000146e+03
6.199999999999999956e-02 1.315125000000000044e-01 5.844934999999999548e+00 5.814369999999999550e+01 1.941210000000000036e+03
6.300000000000000044e-02 1.314595000000000069e-01 5.014934999999999476e+00 5.665080000000000382e+01 1.940615000000000009e+03
6.400000000000000133e-02 1.314124999999999877e-01 4.296680000000000277e+00 5.542539999999999623e+01 1.940085000000000036e+03
6.500000000000000222e-02 1.313725000000000032e-01 3.717285000000000394e+00 5.452509999999999479e+01 1.939634999999999991e+03
6.600000000000000311e-02 1.313419999999999865e-01 3.301599999999999646e+00 5.400305000000000177e+01 1.939285000000000082e+03
6.700000000000000400e-02 1.313219999999999943e-01 3.070710000000000051e+00 5.390409999999999968e+01 1.939049999999999955e+03
6.800000000000000488e-02 1.313145000000000007e-01 3.040744999999999809e+00 5.426160000000000139e+01 1.938949999999999818e+03
6.900000000000000577e-02 1.313199999999999923e-01 3.221885000000000332e+00 5.509474999999999767e+01 1.939000000000000000e+03
7.000000000000000666e-02 1.313394999999999979e-01 3.617869999999999919e+00 5.640699999999999648e+01 1.939199999999999818e+03
7.100000000000000755e-02 1.313729999999999898e-01 4.225825000000000387e+00 5.818614999999999782e+01 1.939559999999999945e+03
7.200000000000000844e-02 1.314204999999999957e-01 5.036595000000000155e+00 6.040465000000000373e+01 1.940070000000000164e+03
7.300000000000000933e-02 1.314815000000000011e-01 6.035400000000000098e+00 6.302214999999999634e+01 1.940730000000000018e+03
7.399999999999999634e-02 1.315544999999999909e-01 7.202820000000000000e+00 6.598789999999999623e+01 1.941535000000000082e+03
7.499999999999999722e-02 1.316384999999999916e-01 8.515895000000000437e+00 6.924430000000000973e+01 1.942460000000000036e+03
7.599999999999999811e-02 1.317329999999999890e-01 9.949595000000000411e+00 7.273040000000000305e+01 1.943494999999999891e+03
7.699999999999999900e-02 1.318344999999999934e-01 1.147777999999999921e+01 7.638534999999998831e+01 1.944625000000000000e+03
7.799999999999999989e-02 1.319425000000000181e-01 1.307484000000000179e+01 8.015170000000000528e+01 1.945824999999999818e+03
7.900000000000000078e-02 1.320550000000000057e-01 1.471644999999999825e+01 8.397814999999999941e+01 1.947079999999999927e+03
8.000000000000000167e-02 1.321704999999999963e-01 1.638064999999999927e+01 8.782159999999998945e+01 1.948375000000000000e+03
8.100000000000000255e-02 1.322885000000000033e-01 1.804844999999999899e+01 9.164820000000000277e+01 1.949694999999999936e+03
8.200000000000000344e-02 1.324064999999999825e-01 1.970400000000000063e+01 9.543404999999999916e+01 1.951025000000000091e+03
8.300000000000000433e-02 1.325244999999999895e-01 2.133510000000000062e+01 9.916454999999999131e+01 1.952365000000000009e+03
8.400000000000000522e-02 1.326424999999999965e-01 2.293240000000000123e+01 1.028340499999999906e+02 1.953695000000000164e+03
8.500000000000000611e-02 1.327585000000000015e-01 2.448969999999999914e+01 1.064420499999999947e+02 1.955014999999999873e+03
8.600000000000000699e-02 1.328749999999999931e-01 2.600290000000000035e+01 1.099944999999999879e+02 1.956335000000000036e+03
8.700000000000000788e-02 1.329889999999999961e-01 2.746985000000000099e+01 1.135000000000000000e+02 1.957639999999999873e+03
8.800000000000000877e-02 1.331025000000000125e-01 2.888925000000000054e+01 1.169660000000000082e+02 1.958934999999999945e+03
8.899999999999999578e-02 1.332150000000000001e-01 3.026055000000000206e+01 1.204014999999999986e+02 1.960224999999999909e+03
8.999999999999999667e-02 1.333270000000000011e-01 3.158309999999999818e+01 1.238094999999999999e+02 1.961505000000000109e+03
9.099999999999999756e-02 1.334385000000000154e-01 3.285609999999999786e+01 1.271945000000000050e+02 1.962784999999999854e+03
9.199999999999999845e-02 1.335485000000000144e-01 3.407789999999999964e+01 1.305520000000000209e+02 1.964054999999999836e+03
9.299999999999999933e-02 1.336585000000000134e-01 3.524639999999999418e+01 1.338779999999999859e+02 1.965315000000000055e+03
9.400000000000000022e-02 1.337674999999999836e-01 3.635860000000000269e+01 1.371619999999999777e+02 1.966569999999999936e+03
9.500000000000000111e-02 1.338745000000000074e-01 3.741075000000000017e+01 1.403915000000000077e+02 1.967809999999999945e+03
9.600000000000000200e-02 1.339805000000000024e-01 3.839844999999999686e+01 1.435515000000000043e+02 1.969035000000000082e+03
9.700000000000000289e-02 1.340844999999999954e-01 3.931700000000000017e+01 1.466254999999999882e+02 1.970240000000000009e+03
9.800000000000000377e-02 1.341855000000000131e-01 4.016110000000000468e+01 1.495955000000000155e+02 1.971414999999999964e+03
9.900000000000000466e-02 1.342840000000000145e-01 4.092555000000000121e+01 1.524435000000000002e+02 1.972554999999999836e+03
1.000000000000000056e-01 1.343779999999999974e-01 4.160505000000000564e+01 1.551514999999999986e+02 1.973654999999999973e+03
1.010000000000000064e-01 1.344690000000000052e-01 4.219435000000000002e+01 1.577034999999999911e+02 1.974710000000000036e+03
1.020000000000000073e-01 1.345545000000000213e-01 4.268890000000000384e+01 1.600829999999999984e+02 1.975714999999999918e+03
1.030000000000000082e-01 1.346350000000000047e-01 4.308450000000000557e+01 1.622760000000000105e+02 1.976655000000000200e+03
1.040000000000000091e-01 1.347105000000000108e-01 4.337760000000000105e+01 1.642704999999999984e+02 1.977535000000000082e+03
1.050000000000000100e-01 1.347794999999999965e-01 4.356575000000000131e+01 1.660564999999999998e+02 1.978349999999999909e+03
1.059999999999999970e-01 1.348425000000000040e-01 4.364759999999999707e+01 1.676279999999999859e+02 1.979090000000000146e+03
1.069999999999999979e-01 1.348989999999999911e-01 4.362290000000000134e+01 1.689800000000000182e+02 1.979755000000000109e+03
1.079999999999999988e-01 1.349480000000000124e-01 4.349295000000000044e+01 1.701134999999999877e+02 1.980344999999999800e+03
1.089999999999999997e-01 1.349909999999999999e-01 4.326044999999999874e+01 1.710310000000000059e+02 1.980849999999999909e+03
1.100000000000000006e-01 1.350275000000000225e-01 4.292959999999999354e+01 1.717395000000000209e+02 1.981279999999999973e+03
1.110000000000000014e-01 1.350569999999999826e-01 4.250619999999999976e+01 1.722500000000000000e+02 1.981639999999999873e+03
1.120000000000000023e-01 1.350804999999999922e-01 4.199729999999999563e+01 1.725749999999999886e+02 1.981920000000000073e+03
1.130000000000000032e-01 1.350974999999999815e-01 4.141105000000000302e+01 1.727315000000000111e+02 1.982130000000000109e+03
1.140000000000000041e-01 1.351094999999999935e-01 4.075679999999999836e+01 1.727379999999999995e+02 1.982285000000000082e+03
1.150000000000000050e-01 1.351165000000000005e-01 4.004435000000000144e+01 1.726140000000000043e+02 1.982375000000000000e+03
1.160000000000000059e-01 1.351189999999999891e-01 3.928399999999999892e+01 1.723804999999999836e+02 1.982409999999999854e+03
1.170000000000000068e-01 1.351175000000000015e-01 3.848590000000000089e+01 1.720569999999999879e+02 1.982404999999999973e+03
1.180000000000000077e-01 1.351129999999999831e-01 3.766020000000000323e+01 1.716639999999999873e+02 1.982355000000000018e+03
1.190000000000000085e-01 1.351054999999999895e-01 3.681629999999999825e+01 1.712185000000000059e+02 1.982269999999999982e+03
1.200000000000000094e-01 1.350959999999999939e-01 3.596285000000000309e+01 1.707369999999999948e+02 1.982164999999999964e+03
1.209999999999999964e-01 1.350850000000000106e-01 3.510745000000000005e+01 1.702325000000000159e+02 1.982039999999999964e+03
1.219999999999999973e-01 1.350720000000000254e-01 3.425659999999999883e+01 1.697144999999999868e+02 1.981900000000000091e+03
1.229999999999999982e-01 1.350584999999999980e-01 3.341539999999999822e+01 1.691930000000000121e+02 1.981740000000000009e+03
1.239999999999999991e-01 1.350449999999999984e-01 3.258780000000000143e+01 1.686700000000000159e+02 1.981574999999999818e+03
1.250000000000000000e-01 1.350304999999999978e-01 3.177625000000000099e+01 1.681490000000000009e+02 1.981409999999999854e+03
1.260000000000000009e-01 1.350155000000000105e-01 3.098209999999999908e+01 1.676279999999999859e+02 1.981235000000000127e+03
1.270000000000000018e-01 1.350000000000000089e-01 3.020544999999999902e+01 1.671055000000000064e+02 1.981055000000000064e+03
1.280000000000000027e-01 1.349839999999999929e-01 2.944534999999999769e+01 1.665749999999999886e+02 1.980869999999999891e+03
1.290000000000000036e-01 1.349679999999999769e-01 2.869995000000000118e+01 1.660305000000000177e+02 1.980684999999999945e+03
1.300000000000000044e-01 1.349509999999999876e-01 2.796675000000000111e+01 1.654650000000000034e+02 1.980485000000000127e+03
1.310000000000000053e-01 1.349339999999999984e-01 2.724275000000000091e+01 1.648700000000000045e+02 1.980275000000000091e+03
1.320000000000000062e-01 1.349150000000000071e-01 2.652459999999999951e+01 1.642375000000000114e+02 1.980065000000000055e+03
1.330000000000000071e-01 1.348955000000000015e-01 2.580894999999999939e+01 1.635595000000000141e+02 1.979829999999999927e+03
1.340000000000000080e-01 1.348739999999999939e-01 2.509234999999999971e+01 1.628290000000000077e+02 1.979585000000000036e+03
1.350000000000000089e-01 1.348515000000000130e-01 2.437185000000000201e+01 1.620395000000000039e+02 1.979315000000000055e+03
1.360000000000000098e-01 1.348264999999999880e-01 2.364489999999999981e+01 1.611875000000000000e+02 1.979029999999999973e+03
1.370000000000000107e-01 1.348004999999999898e-01 2.290954999999999941e+01 1.602700000000000102e+02 1.978720000000000027e+03
1.380000000000000115e-01 1.347720000000000029e-01 2.216469999999999985e+01 1.592860000000000014e+02 1.978389999999999873e+03
1.390000000000000124e-01 1.347415000000000140e-01 2.140995000000000203e+01 1.582365000000000066e+02 1.978034999999999854e+03
1.400000000000000133e-01 1.347089999999999954e-01 2.064600000000000080e+01 1.571264999999999930e+02 1.977659999999999854e+03
1.410000000000000142e-01 1.346745000000000025e-01 1.987434999999999974e+01 1.559610000000000127e+02 1.977264999999999873e+03
1.420000000000000151e-01 1.346384999999999943e-01 1.909774999999999778e+01 1.547485000000000070e+02 1.976845000000000027e+03
1.430000000000000160e-01 1.346009999999999984e-01 1.831929999999999836e+01 1.534995000000000118e+02 1.976409999999999854e+03
1.440000000000000169e-01 1.345625000000000016e-01 1.754339999999999833e+01 1.522255000000000109e+02 1.975960000000000036e+03
1.450000000000000178e-01 1.345224999999999893e-01 1.677485000000000070e+01 1.509385000000000048e+02 1.975500000000000000e+03
1.459999999999999909e-01 1.344819999999999904e-01 1.601899999999999835e+01 1.496539999999999964e+02 1.975035000000000082e+03
1.469999999999999918e-01 1.344420000000000059e-01 1.528129999999999811e+01 1.483854999999999791e+02 1.974565000000000055e+03
1.479999999999999927e-01 1.344020000000000215e-01 1.456750000000000078e+01 1.471469999999999914e+02 1.974099999999999909e+03
1.489999999999999936e-01 1.343624999999999958e-01 1.388315000000000055e+01 1.459524999999999864e+02 1.973644999999999982e+03
1.499999999999999944e-01 1.343239999999999990e-01 1.323339999999999961e+01 1.448140000000000214e+02 1.973204999999999927e+03
1.509999999999999953e-01 1.342875000000000041e-01 1.262284999999999968e+01 1.437420000000000186e+02 1.972775000000000091e+03
1.519999999999999962e-01 1.342524999999999968e-01 1.205550000000000033e+01 1.427464999999999975e+02 1.972369999999999891e+03
1.529999999999999971e-01 1.342200000000000060e-01 1.153444999999999965e+01 1.418335000000000150e+02 1.971984999999999900e+03
1.539999999999999980e-01 1.341890000000000027e-01 1.106207000000000029e+01 1.410074999999999932e+02 1.971625000000000000e+03
1.549999999999999989e-01 1.341610000000000025e-01 1.063953500000000041e+01 1.402710000000000150e+02 1.971299999999999955e+03
1.559999999999999998e-01 1.341355000000000186e-01 1.026731000000000016e+01 1.396239999999999952e+02 1.971005000000000109e+03
1.570000000000000007e-01 1.341129999999999822e-01 9.944869999999999877e+00 1.390654999999999859e+02 1.970734999999999900e+03
1.580000000000000016e-01 1.340925000000000034e-01 9.670804999999999652e+00 1.385904999999999916e+02 1.970494999999999891e+03
1.590000000000000024e-01 1.340744999999999854e-01 9.442910000000001247e+00 1.381945000000000050e+02 1.970289999999999964e+03
