# t [s], A [cm^2], U [cm/s], P [cPa], c [cm/s]
1.000000000000000021e-03 5.192004999999999537e-01 5.638999999999998181e-03 1.053010000000000019e+02 1.638605000000000018e+03
2.000000000000000042e-03 5.191934999999999745e-01 2.774249999999999806e-03 1.052719999999999914e+02 1.638595000000000027e+03
3.000000000000000062e-03 5.192505000000000592e-01 1.306757500000000072e-01 1.054110000000000014e+02 1.638630000000000109e+03
4.000000000000000083e-03 5.192824999999999802e-01 2.192176999999999876e-01 1.055159999999999911e+02 1.638654999999999973e+03
5.000000000000000104e-03 5.192375000000000185e-01 1.473455000000000181e-01 1.053689999999999998e+02 1.638625000000000000e+03
6.000000000000000125e-03 5.191710000000000491e-01 1.924100000000000810e-02 1.050529999999999973e+02 1.638555000000000064e+03
7.000000000000000146e-03 5.191029999999999811e-01 -1.235550000000000814e-01 1.046415000000000077e+02 1.638454999999999927e+03
8.000000000000000167e-03 5.189829999999999721e-01 -4.003999999999999782e-01 1.039915000000000020e+02 1.638299999999999955e+03
9.000000000000001055e-03 5.187999999999999279e-01 -8.320049999999999946e-01 1.030275000000000034e+02 1.638074999999999818e+03
1.000000000000000194e-02 5.185530000000000417e-01 -1.410245000000000193e+00 1.017104499999999945e+02 1.637759999999999991e+03
1.099999999999999936e-02 5.182179999999999565e-01 -2.165764999999999940e+00 9.995189999999999486e+01 1.637329999999999927e+03
1.200000000000000025e-02 5.177964999999999929e-01 -3.069710000000000161e+00 9.772874999999999091e+01 1.636780000000000200e+03
1.300000000000000114e-02 5.173440000000000261e-01 -3.962785000000000224e+00 9.520744999999999436e+01 1.636134999999999991e+03
1.400000000000000203e-02 5.169399999999999551e-01 -4.621997499999999981e+00 9.269979999999999620e+01 1.635460000000000036e+03
1.499999999999999944e-02 5.166385000000000005e-01 -4.883274499999999740e+00 9.049985000000000923e+01 1.634839999999999918e+03
1.600000000000000033e-02 5.164434999999999443e-01 -4.710230000000000139e+00 8.875480000000000302e+01 1.634300000000000182e+03
1.700000000000000122e-02 5.163154999999999273e-01 -4.187160000000000437e+00 8.742624999999999602e+01 1.633855000000000018e+03
1.800000000000000211e-02 5.161949999999999594e-01 -3.466860000000000053e+00 8.633525000000000205e+01 1.633454999999999927e+03
1.900000000000000300e-02 5.160295000000000298e-01 -2.704899500000000234e+00 8.524854999999999450e+01 1.633074999999999818e+03
2.000000000000000042e-02 5.157889999999999420e-01 -2.003407999999999856e+00 8.397395000000000209e+01 1.632654999999999973e+03
2.100000000000000130e-02 5.154784999999999506e-01 -1.383764999999999912e+00 8.242725000000000080e+01 1.632174999999999955e+03
2.200000000000000219e-02 5.151239999999999153e-01 -7.986699999999997690e-01 8.064494999999999436e+01 1.631639999999999873e+03
2.299999999999999961e-02 5.147629999999999706e-01 -1.742349999999999177e-01 7.874184999999999945e+01 1.631075000000000045e+03
2.400000000000000050e-02 5.144220000000000459e-01 5.423549999999996984e-01 7.684180000000000632e+01 1.630500000000000000e+03
2.500000000000000139e-02 5.141059999999999519e-01 1.351210000000000022e+00 7.501749999999999829e+01 1.629934999999999945e+03
2.600000000000000228e-02 5.137990000000000057e-01 2.192254999999999843e+00 7.325694999999998913e+01 1.629384999999999991e+03
2.700000000000000316e-02 5.134699999999999820e-01 2.958869999999999667e+00 7.146424999999999272e+01 1.628824999999999818e+03
2.800000000000000058e-02 5.130805000000000504e-01 3.525335000000000107e+00 6.948675000000000068e+01 1.628224999999999909e+03
2.900000000000000147e-02 5.125990000000000268e-01 3.780154999999999710e+00 6.716119999999999379e+01 1.627554999999999836e+03
3.000000000000000236e-02 5.120100000000000762e-01 3.656864999999999810e+00 6.436594999999999800e+01 1.626775000000000091e+03
3.099999999999999978e-02 5.113194999999999268e-01 3.153540000000000454e+00 6.106360000000000099e+01 1.625875000000000000e+03
3.200000000000000067e-02 5.105560000000000098e-01 2.334389999999999965e+00 5.732210000000000605e+01 1.624869999999999891e+03
3.300000000000000155e-02 5.097635000000000360e-01 1.313674999999999926e+00 5.330514999999999759e+01 1.623784999999999854e+03
3.400000000000000244e-02 5.089915000000000411e-01 2.294000000000000483e-01 4.924164999999999992e+01 1.622670000000000073e+03
3.500000000000000333e-02 5.082885000000000320e-01 -7.834799999999999542e-01 4.538285000000000480e+01 1.621590000000000146e+03
3.600000000000000422e-02 5.076914999999999623e-01 -1.613595000000000113e+00 4.196330000000000382e+01 1.620610000000000127e+03
3.700000000000000511e-02 5.072265000000000246e-01 -2.183320000000000149e+00 3.917125000000000057e+01 1.619765000000000100e+03
3.799999999999999906e-02 5.069055000000000089e-01 -2.450350000000000250e+00 3.713320000000000221e+01 1.619105000000000018e+03
3.899999999999999994e-02 5.067304999999999726e-01 -2.402117499999999684e+00 3.591105000000000302e+01 1.618655000000000200e+03
4.000000000000000083e-02 5.066964999999999941e-01 -2.046574999999999811e+00 3.551050000000000040e+01 1.618424999999999955e+03
4.100000000000000172e-02 5.067935000000000079e-01 -1.401981404999999903e+00 3.589620000000000033e+01 1.618405000000000200e+03
4.200000000000000261e-02 5.070095000000000018e-01 -4.885000000000001563e-01 3.700884999999999536e+01 1.618599999999999909e+03
4.300000000000000350e-02 5.073345000000000216e-01 6.765299999999996317e-01 3.877984999999999616e+01 1.618980000000000018e+03
4.400000000000000439e-02 5.077590000000000714e-01 2.079134999999999511e+00 4.114085000000000036e+01 1.619530000000000200e+03
4.499999999999999833e-02 5.082735000000000447e-01 3.705675000000000274e+00 4.402649999999999864e+01 1.620244999999999891e+03
4.599999999999999922e-02 5.088684999999999459e-01 5.538429999999999964e+00 4.737189999999999657e+01 1.621099999999999909e+03
4.700000000000000011e-02 5.095320000000000960e-01 7.551485000000000447e+00 5.110864999999999725e+01 1.622075000000000045e+03
4.800000000000000100e-02 5.102489999999999526e-01 9.708801164999998790e+00 5.516094999999999970e+01 1.623150000000000091e+03
4.900000000000000189e-02 5.110035000000000549e-01 1.196487499999999926e+01 5.944409999999999883e+01 1.624299999999999955e+03
5.000000000000000278e-02 5.117774999999999963e-01 1.426788499999999971e+01 6.386645000000000039e+01 1.625509999999999991e+03
5.100000000000000366e-02 5.125534999999999952e-01 1.656375999999999848e+01 6.833445000000000391e+01 1.626750000000000000e+03
5.200000000000000455e-02 5.133159999999999945e-01 1.880136999999999858e+01 7.275875000000000625e+01 1.627994999999999891e+03
5.300000000000000544e-02 5.140514999999999946e-01 2.093660000000000210e+01 7.706114999999999782e+01 1.629230000000000018e+03
5.399999999999999939e-02 5.147519999999999873e-01 2.293554999999999922e+01 8.117994999999999095e+01 1.630429999999999836e+03
5.500000000000000028e-02 5.154115000000000224e-01 2.477590000000000003e+01 8.507425000000000637e+01 1.631575000000000045e+03
5.600000000000000117e-02 5.160299999999999887e-01 2.644660000000000011e+01 8.872364999999999213e+01 1.632670000000000073e+03
5.700000000000000205e-02 5.166079999999999561e-01 2.794709999999999894e+01 9.212905000000000655e+01 1.633700000000000045e+03
5.800000000000000294e-02 5.171514999999999862e-01 2.928504999999999825e+01 9.530805000000000859e+01 1.634675000000000182e+03
5.900000000000000383e-02 5.176669999999999883e-01 3.047429999999999950e+01 9.829275000000001228e+01 1.635599999999999909e+03
6.000000000000000472e-02 5.181614999999999416e-01 3.153314999999999912e+01 1.011239999999999952e+02 1.636480000000000018e+03
6.099999999999999867e-02 5.186429999999999652e-01 3.248254999999999626e+01 1.038478000000000065e+02 1.637324999999999818e+03
6.199999999999999956e-02 5.191209999999999436e-01 3.334485000000000099e+01 1.065120000000000005e+02 1.638150000000000091e+03
6.300000000000000044e-02 5.196009999999999796e-01 3.414274999999999949e+01 1.091645000000000039e+02 1.638970000000000027e+03
6.400000000000000133e-02 5.200919999999999987e-01 3.489770000000000039e+01 1.118464999999999918e+02 1.639789999999999964e+03
6.500000000000000222e-02 5.205980000000000052e-01 3.562900000000000489e+01 1.145960000000000036e+02 1.640619999999999891e+03
6.600000000000000311e-02 5.211240000000000316e-01 3.635190000000000055e+01 1.174364999999999952e+02 1.641474999999999909e+03
6.700000000000000400e-02 5.216695000000000082e-01 3.707654999999999745e+01 1.203840000000000003e+02 1.642355000000000018e+03
6.800000000000000488e-02 5.222354999999999636e-01 3.780700000000000216e+01 1.234380000000000024e+02 1.643255000000000109e+03
6.900000000000000577e-02 5.228169999999999762e-01 3.854059999999999775e+01 1.265854999999999961e+02 1.644190000000000055e+03
7.000000000000000666e-02 5.234085000000000543e-01 3.926829999999999643e+01 1.297990000000000066e+02 1.645139999999999873e+03
7.100000000000000755e-02 5.240020000000000788e-01 3.997544999999999504e+01 1.330389999999999873e+02 1.646099999999999909e+03
7.200000000000000844e-02 5.245885000000000131e-01 4.064329999999999643e+01 1.362570000000000050e+02 1.647055000000000064e+03
7.300000000000000933e-02 5.251575000000000548e-01 4.125045000000000073e+01 1.393985000000000127e+02 1.648000000000000000e+03
7.399999999999999634e-02 5.256985000000000685e-01 4.177485000000000070e+01 1.424069999999999823e+02 1.648909999999999854e+03
7.499999999999999722e-02 5.262040000000000051e-01 4.219554999999999723e+01 1.452280000000000086e+02 1.649769999999999982e+03
7.599999999999999811e-02 5.266640000000000210e-01 4.249405000000000143e+01 1.478125000000000000e+02 1.650570000000000164e+03
7.699999999999999900e-02 5.270730000000000137e-01 4.265569999999999595e+01 1.501204999999999927e+02 1.651299999999999955e+03
7.799999999999999989e-02 5.274259999999999504e-01 4.267034999999999911e+01 1.521210000000000093e+02 1.651944999999999936e+03
7.900000000000000078e-02 5.277220000000000244e-01 4.253280000000000172e+01 1.537969999999999970e+02 1.652505000000000109e+03
8.000000000000000167e-02 5.279595000000000260e-01 4.224309999999999832e+01 1.551405000000000030e+02 1.652969999999999800e+03
8.100000000000000255e-02 5.281400000000000539e-01 4.180639999999999645e+01 1.561589999999999918e+02 1.653339999999999918e+03
8.200000000000000344e-02 5.282685000000000297e-01 4.123250000000000171e+01 1.568685000000000116e+02 1.653625000000000000e+03
8.300000000000000433e-02 5.283480000000000398e-01 4.053535000000000110e+01 1.572939999999999827e+02 1.653819999999999936e+03
8.400000000000000522e-02 5.283864999999999812e-01 3.973225000000000051e+01 1.574694999999999823e+02 1.653940000000000055e+03
8.500000000000000611e-02 5.283894999999999564e-01 3.884314999999999429e+01 1.574350000000000023e+02 1.653990000000000009e+03
8.600000000000000699e-02 5.283655000000000435e-01 3.788980000000000103e+01 1.572325000000000159e+02 1.653990000000000009e+03
8.700000000000000788e-02 5.283225000000000282e-01 3.689454999999999529e+01 1.569074999999999989e+02 1.653945000000000164e+03
8.800000000000000877e-02 5.282670000000000421e-01 3.587964999999999804e+01 1.565024999999999977e+02 1.653865000000000009e+03
8.899999999999999578e-02 5.282065000000000232e-01 3.486585000000000178e+01 1.560600000000000023e+02 1.653765000000000100e+03
8.999999999999999667e-02 5.281469999999999221e-01 3.387210000000000321e+01 1.556170000000000186e+02 1.653664999999999964e+03
9.099999999999999756e-02 5.280934999999999935e-01 3.291434999999999889e+01 1.552030000000000030e+02 1.653554999999999836e+03
9.199999999999999845e-02 5.280499999999999083e-01 3.200489999999999924e+01 1.548430000000000177e+02 1.653460000000000036e+03
9.299999999999999933e-02 5.280175000000000285e-01 3.115240000000000009e+01 1.545519999999999925e+02 1.653375000000000000e+03
9.400000000000000022e-02 5.279985000000000372e-01 3.036129999999999995e+01 1.543394999999999868e+02 1.653304999999999836e+03
9.500000000000000111e-02 5.279909999999999881e-01 2.963224999999999909e+01 1.542049999999999841e+02 1.653259999999999991e+03
9.600000000000000200e-02 5.279944999999999222e-01 2.896179999999999666e+01 1.541415000000000077e+02 1.653230000000000018e+03
9.700000000000000289e-02 5.280055000000000165e-01 2.834365000000000023e+01 1.541349999999999909e+02 1.653215000000000146e+03
9.800000000000000377e-02 5.280210000000000736e-01 2.776834999999999809e+01 1.541670000000000016e+02 1.653210000000000036e+03
9.900000000000000466e-02 5.280370000000000896e-01 2.722465000000000046e+01 1.542150000000000034e+02 1.653215000000000146e+03
1.000000000000000056e-01 5.280480000000000729e-01 2.669975000000000165e+01 1.542529999999999859e+02 1.653214999999999918e+03
1.010000000000000064e-01 5.280500000000000194e-01 2.618039999999999878e+01 1.542564999999999884e+02 1.653210000000000036e+03
1.020000000000000073e-01 5.280390000000000361e-01 2.565334999999999965e+01 1.541985000000000241e+02 1.653190000000000055e+03
1.030000000000000082e-01 5.280110000000000081e-01 2.510650000000000048e+01 1.540564999999999998e+02 1.653150000000000091e+03
1.040000000000000091e-01 5.279629999999999601e-01 2.452899999999999991e+01 1.538110000000000070e+02 1.653085000000000036e+03
1.050000000000000100e-01 5.278920000000000279e-01 2.391244999999999976e+01 1.534454999999999814e+02 1.652985000000000127e+03
1.059999999999999970e-01 5.277970000000000717e-01 2.325110000000000099e+01 1.529499999999999886e+02 1.652855000000000018e+03
1.069999999999999979e-01 5.276784999999999393e-01 2.254189999999999827e+01 1.523210000000000264e+02 1.652684999999999945e+03
1.079999999999999988e-01 5.275364999999999638e-01 2.178544999999999732e+01 1.515600000000000023e+02 1.652480000000000018e+03
1.089999999999999997e-01 5.273729999999999807e-01 2.098535000000000039e+01 1.506765000000000043e+02 1.652240000000000009e+03
1.100000000000000006e-01 5.271919999999999940e-01 2.014829999999999899e+01 1.496845000000000141e+02 1.651974999999999909e+03
1.110000000000000014e-01 5.269964999999999788e-01 1.928395000000000081e+01 1.486045000000000016e+02 1.651675000000000182e+03
1.120000000000000023e-01 5.267914999999999681e-01 1.840399999999999991e+01 1.474599999999999795e+02 1.651355000000000018e+03
1.130000000000000032e-01 5.265824999999999534e-01 1.752214999999999989e+01 1.462800000000000011e+02 1.651025000000000091e+03
1.140000000000000041e-01 5.263735000000000497e-01 1.665299999999999869e+01 1.450930000000000177e+02 1.650684999999999945e+03
1.150000000000000050e-01 5.261710000000000553e-01 1.581165000000000020e+01 1.439300000000000068e+02 1.650349999999999909e+03
1.160000000000000059e-01 5.259800000000000031e-01 1.501264499999999913e+01 1.428204999999999814e+02 1.650019999999999982e+03
1.170000000000000068e-01 5.258050000000000779e-01 1.426944500000000104e+01 1.417905000000000086e+02 1.649714999999999918e+03
1.180000000000000077e-01 5.256490000000000329e-01 1.359392000000000067e+01 1.408634999999999877e+02 1.649430000000000064e+03
1.190000000000000085e-01 5.255155000000000243e-01 1.299540000000000006e+01 1.400589999999999975e+02 1.649180000000000064e+03
1.200000000000000094e-01 5.254064999999999985e-01 1.248075499999999849e+01 1.393890000000000100e+02 1.648960000000000036e+03
1.209999999999999964e-01 5.253235000000000543e-01 1.205381500000000017e+01 1.388629999999999995e+02 1.648780000000000200e+03
1.219999999999999973e-01 5.252650000000000929e-01 1.171537999999999968e+01 1.384805000000000064e+02 1.648639999999999873e+03
1.229999999999999982e-01 5.252305000000000446e-01 1.146334500000000034e+01 1.382384999999999877e+02 1.648539999999999964e+03
1.239999999999999991e-01 5.252179999999999627e-01 1.129307000000000016e+01 1.381270000000000095e+02 1.648474999999999909e+03
1.250000000000000000e-01 5.252244999999999830e-01 1.119739000000000040e+01 1.381320000000000050e+02 1.648445000000000164e+03
1.260000000000000009e-01 5.252470000000000194e-01 1.116748000000000118e+01 1.382370000000000232e+02 1.648445000000000164e+03
1.270000000000000018e-01 5.252824999999999855e-01 1.119301499999999905e+01 1.384219999999999970e+02 1.648469999999999800e+03
1.280000000000000027e-01 5.253259999999999597e-01 1.126290000000000013e+01 1.386659999999999968e+02 1.648525000000000091e+03
1.290000000000000036e-01 5.253750000000000364e-01 1.136580000000000013e+01 1.389474999999999909e+02 1.648579999999999927e+03
1.300000000000000044e-01 5.254254999999999898e-01 1.149044999999999916e+01 1.392475000000000023e+02 1.648650000000000091e+03
1.310000000000000053e-01 5.254745000000000665e-01 1.162625000000000064e+01 1.395459999999999923e+02 1.648720000000000027e+03
1.320000000000000062e-01 5.255190000000000694e-01 1.176354999999999862e+01 1.398285000000000196e+02 1.648795000000000073e+03
1.330000000000000071e-01 5.255579999999999696e-01 1.189395000000000024e+01 1.400799999999999841e+02 1.648865000000000009e+03
1.340000000000000080e-01 5.255889999999999729e-01 1.201050000000000040e+01 1.402914999999999850e+02 1.648920000000000073e+03
1.350000000000000089e-01 5.256119999999999681e-01 1.210774999999999935e+01 1.404560000000000173e+02 1.648970000000000027e+03
1.360000000000000098e-01 5.256260000000000376e-01 1.218185000000000073e+01 1.405695000000000050e+02 1.649005000000000109e+03
1.370000000000000107e-01 5.256305000000000005e-01 1.223059999999999903e+01 1.406310000000000002e+02 1.649029999999999973e+03
1.380000000000000115e-01 5.256274999999999142e-01 1.225324999999999953e+01 1.406434999999999889e+02 1.649039999999999964e+03
1.390000000000000124e-01 5.256165000000000420e-01 1.225039999999999907e+01 1.406105000000000018e+02 1.649034999999999854e+03
1.400000000000000133e-01 5.255994999999999973e-01 1.222384999999999877e+01 1.405389999999999873e+02 1.649025000000000091e+03
1.410000000000000142e-01 5.255779999999999896e-01 1.217638499999999979e+01 1.404354999999999905e+02 1.649005000000000109e+03
1.420000000000000151e-01 5.255535000000000068e-01 1.211161999999999850e+01 1.403089999999999975e+02 1.648974999999999909e+03
1.430000000000000160e-01 5.255269999999999664e-01 1.203377499999999856e+01 1.401694999999999993e+02 1.648940000000000055e+03
1.440000000000000169e-01 5.255005000000000370e-01 1.194729500000000044e+01 1.400255000000000223e+02 1.648905000000000200e+03
1.450000000000000178e-01 5.254760000000000542e-01 1.185664500000000032e+01 1.398849999999999909e+02 1.648869999999999891e+03
1.459999999999999909e-01 5.254539999999999766e-01 1.176630499999999913e+01 1.397570000000000050e+02 1.648835000000000036e+03
1.469999999999999918e-01 5.254360000000000142e-01 1.168018500000000159e+01 1.396480000000000246e+02 1.648799999999999955e+03
1.479999999999999927e-01 5.254235000000000433e-01 1.160177999999999976e+01 1.395625000000000000e+02 1.648775000000000091e+03
1.489999999999999936e-01 5.254149999999999654e-01 1.153378499999999995e+01 1.395040000000000191e+02 1.648759999999999991e+03
1.499999999999999944e-01 5.254130000000000189e-01 1.147814499999999960e+01 1.394759999999999991e+02 1.648744999999999891e+03
1.509999999999999953e-01 5.254155000000000353e-01 1.143592999999999904e+01 1.394784999999999968e+02 1.648744999999999891e+03
1.519999999999999962e-01 5.254235000000000433e-01 1.140745000000000076e+01 1.395089999999999861e+02 1.648750000000000000e+03
1.529999999999999971e-01 5.254354999999999443e-01 1.139207999999999998e+01 1.395649999999999977e+02 1.648764999999999873e+03
1.539999999999999980e-01 5.254514999999999603e-01 1.138861999999999952e+01 1.396424999999999841e+02 1.648784999999999854e+03
1.549999999999999989e-01 5.254699999999999926e-01 1.139524000000000115e+01 1.397369999999999948e+02 1.648804999999999836e+03
1.559999999999999998e-01 5.254894999999999428e-01 1.140981999999999985e+01 1.398430000000000177e+02 1.648829999999999927e+03
1.570000000000000007e-01 5.255100000000000326e-01 1.142985000000000007e+01 1.399540000000000077e+02 1.648860000000000127e+03
1.580000000000000016e-01 5.255299999999999416e-01 1.145280999999999949e+01 1.400640000000000214e+02 1.648889999999999873e+03
1.590000000000000024e-01 5.255480000000000151e-01 1.147617499999999957e+01 1.401680000000000064e+02 1.648920000000000073e+03
