# t [s], A [cm^2], U [cm/s], P [cPa], c [cm/s]
1.000000000000000021e-03 1.581299999999999928e-01 4.845949499999999688e-01 1.002306999999999988e+02 1.966664999999999964e+03
2.000000000000000042e-03 1.580730000000000190e-01 2.341465999999999603e+00 9.633639999999999759e+01 1.966095000000000027e+03
3.000000000000000062e-03 1.579274999999999984e-01 4.565663999999999945e+00 9.113454999999999018e+01 1.964684999999999945e+03
4.000000000000000083e-03 1.577344999999999997e-01 7.037969999999999615e+00 8.577834999999998900e+01 1.962835000000000036e+03
5.000000000000000104e-03 1.575320000000000054e-01 9.653430000000000177e+00 8.123980000000000246e+01 1.960920000000000073e+03
6.000000000000000125e-03 1.573404999999999943e-01 1.216739999999999888e+01 7.763939999999999486e+01 1.959119999999999891e+03
7.000000000000000146e-03 1.571624999999999828e-01 1.434361499999999978e+01 7.455799999999999272e+01 1.957490000000000009e+03
8.000000000000000167e-03 1.570010000000000017e-01 1.614460000000000051e+01 7.178879999999999484e+01 1.956039999999999964e+03
9.000000000000001055e-03 1.568620000000000014e-01 1.763870000000000005e+01 6.944665000000000532e+01 1.954795000000000073e+03
1.000000000000000194e-02 1.567454999999999821e-01 1.885954999999999870e+01 6.757519999999999527e+01 1.953775000000000091e+03
1.099999999999999936e-02 1.566514999999999991e-01 1.982860000000000156e+01 6.611619999999999209e+01 1.952954999999999927e+03
1.200000000000000025e-02 1.565775000000000083e-01 2.057620000000000005e+01 6.501850000000000307e+01 1.952320000000000164e+03
1.300000000000000114e-02 1.565199999999999925e-01 2.111424999999999841e+01 6.419214999999999804e+01 1.951840000000000146e+03
1.400000000000000203e-02 1.564750000000000030e-01 2.145725000000000193e+01 6.351520000000000010e+01 1.951470000000000027e+03
1.499999999999999944e-02 1.564399999999999957e-01 2.168805000000000049e+01 6.301124999999999687e+01 1.951184999999999945e+03
1.600000000000000033e-02 1.564205000000000179e-01 2.197279999999999944e+01 6.297160000000000224e+01 1.951039999999999964e+03
1.700000000000000122e-02 1.564270000000000105e-01 2.248364999999999725e+01 6.381869999999999266e+01 1.951110000000000127e+03
1.800000000000000211e-02 1.564685000000000104e-01 2.329160000000000252e+01 6.579654999999999632e+01 1.951485000000000127e+03
1.900000000000000300e-02 1.565444999999999753e-01 2.431099999999999994e+01 6.873399999999999466e+01 1.952154999999999973e+03
2.000000000000000042e-02 1.566430000000000045e-01 2.532800000000000296e+01 7.204120000000000346e+01 1.953034999999999854e+03
2.100000000000000130e-02 1.567445000000000088e-01 2.608814999999999884e+01 7.492135000000000389e+01 1.953945000000000164e+03
2.200000000000000219e-02 1.568269999999999942e-01 2.639495000000000147e+01 7.667345000000000255e+01 1.954704999999999927e+03
2.299999999999999961e-02 1.568740000000000134e-01 2.617815000000000225e+01 7.694310000000000116e+01 1.955155000000000200e+03
2.400000000000000050e-02 1.568795000000000051e-01 2.550815000000000055e+01 7.582500000000000284e+01 1.955244999999999891e+03
2.500000000000000139e-02 1.568495000000000028e-01 2.455685000000000073e+01 7.378839999999999577e+01 1.955009999999999991e+03
2.600000000000000228e-02 1.567979999999999929e-01 2.352660000000000196e+01 7.147305000000000064e+01 1.954569999999999936e+03
2.700000000000000316e-02 1.567405000000000048e-01 2.258010000000000161e+01 6.945170000000000243e+01 1.954065000000000055e+03
2.800000000000000058e-02 1.566899999999999959e-01 2.179645000000000010e+01 6.805475000000001273e+01 1.953615000000000009e+03
2.900000000000000147e-02 1.566529999999999867e-01 2.116554999999999964e+01 6.731129999999998859e+01 1.953275000000000091e+03
3.000000000000000236e-02 1.566295000000000048e-01 2.061339999999999861e+01 6.700409999999999400e+01 1.953054999999999836e+03
3.099999999999999978e-02 1.566130000000000022e-01 2.004435000000000144e+01 6.679650000000000887e+01 1.952905000000000200e+03
3.200000000000000067e-02 1.565954999999999986e-01 1.938449999999999918e+01 6.637800000000000011e+01 1.952755000000000109e+03
3.300000000000000155e-02 1.565710000000000157e-01 1.861200000000000188e+01 6.558140000000000214e+01 1.952535000000000082e+03
3.400000000000000244e-02 1.565364999999999951e-01 1.776834999999999809e+01 6.444124999999999659e+01 1.952244999999999891e+03
3.500000000000000333e-02 1.564964999999999828e-01 1.694814999999999827e+01 6.318120000000000402e+01 1.951884999999999991e+03
3.600000000000000422e-02 1.564574999999999994e-01 1.627080000000000126e+01 6.213944999999999652e+01 1.951539999999999964e+03
3.700000000000000511e-02 1.564300000000000135e-01 1.584459999999999980e+01 6.165869999999999607e+01 1.951279999999999973e+03
3.799999999999999906e-02 1.564210000000000045e-01 1.573424999999999940e+01 6.197644999999999982e+01 1.951190000000000055e+03
3.899999999999999994e-02 1.564375000000000071e-01 1.594115000000000038e+01 6.315085000000000548e+01 1.951320000000000164e+03
4.000000000000000083e-02 1.564785000000000204e-01 1.640104999999999791e+01 6.503770000000000095e+01 1.951664999999999964e+03
4.100000000000000172e-02 1.565389999999999837e-01 1.699705000000000155e+01 6.732169999999999277e+01 1.952190000000000055e+03
4.200000000000000261e-02 1.566089999999999982e-01 1.758324999999999960e+01 6.958554999999999779e+01 1.952799999999999955e+03
4.300000000000000350e-02 1.566760000000000097e-01 1.801144999999999996e+01 7.139455000000000950e+01 1.953389999999999873e+03
4.400000000000000439e-02 1.567270000000000052e-01 1.815474999999999994e+01 7.237604999999999222e+01 1.953849999999999909e+03
4.499999999999999833e-02 1.567514999999999881e-01 1.792454999999999998e+01 7.227635000000000787e+01 1.954079999999999927e+03
4.599999999999999922e-02 1.567419999999999924e-01 1.727810000000000201e+01 7.098815000000000452e+01 1.954009999999999991e+03
4.700000000000000011e-02 1.566950000000000010e-01 1.621780000000000044e+01 6.854789999999999850e+01 1.953615000000000009e+03
4.800000000000000100e-02 1.566115000000000146e-01 1.478420000000000023e+01 6.510954999999999870e+01 1.952889999999999873e+03
4.900000000000000189e-02 1.564964999999999828e-01 1.304461500000000029e+01 6.090465000000000373e+01 1.951880000000000109e+03
5.000000000000000278e-02 1.563550000000000217e-01 1.108208999999999911e+01 5.620024999999999693e+01 1.950630000000000109e+03
5.100000000000000366e-02 1.561954999999999871e-01 8.985454999999999970e+00 5.126310000000000144e+01 1.949219999999999800e+03
5.200000000000000455e-02 1.560265000000000124e-01 6.842314999999999259e+00 4.633624999999999972e+01 1.947724999999999909e+03
5.300000000000000544e-02 1.558555000000000079e-01 4.735943999999999932e+00 4.162815000000000509e+01 1.946204999999999927e+03
5.399999999999999939e-02 1.556890000000000218e-01 2.743649999999999700e+00 3.731260000000000332e+01 1.944730000000000018e+03
5.500000000000000028e-02 1.555345000000000200e-01 9.372799999999998910e-01 3.353490000000000038e+01 1.943349999999999909e+03
5.600000000000000117e-02 1.553964999999999930e-01 -6.165100000000001135e-01 3.041995000000000005e+01 1.942115000000000009e+03
5.700000000000000205e-02 1.552800000000000014e-01 -1.856535000000000046e+00 2.807739999999999725e+01 1.941065000000000055e+03
5.800000000000000294e-02 1.551905000000000090e-01 -2.728480500000000308e+00 2.660365000000000180e+01 1.940250000000000000e+03
5.900000000000000383e-02 1.551305000000000045e-01 -3.187515000000000320e+00 2.607819999999999894e+01 1.939699999999999818e+03
6.000000000000000472e-02 1.551039999999999919e-01 -3.201484999999999914e+00 2.655695000000000050e+01 1.939429999999999836e+03
6.099999999999999867e-02 1.551124999999999865e-01 -2.754195000000000171e+00 2.806360000000000099e+01 1.939480000000000018e+03
6.199999999999999956e-02 1.551575000000000037e-01 -1.847848399999999947e+00 3.058229999999999649e+01 1.939845000000000027e+03
6.300000000000000044e-02 1.552379999999999871e-01 -5.040299999999999780e-01 3.405315000000000225e+01 1.940529999999999973e+03
6.400000000000000133e-02 1.553530000000000189e-01 1.237125000000000252e+00 3.837364999999999782e+01 1.941519999999999982e+03
6.500000000000000222e-02 1.554979999999999973e-01 3.319512000000000018e+00 4.340399999999999636e+01 1.942779999999999973e+03
6.600000000000000311e-02 1.556690000000000018e-01 5.675070000000000725e+00 4.897769999999999868e+01 1.944269999999999982e+03
6.700000000000000400e-02 1.558609999999999995e-01 8.228415000000000035e+00 5.491414999999999935e+01 1.945960000000000036e+03
6.800000000000000488e-02 1.560670000000000113e-01 1.090183999999999997e+01 6.103164999999999907e+01 1.947785000000000082e+03
6.900000000000000577e-02 1.562824999999999909e-01 1.361948500000000095e+01 6.715944999999999254e+01 1.949690000000000055e+03
7.000000000000000666e-02 1.565000000000000002e-01 1.631070000000000064e+01 7.314629999999999654e+01 1.951639999999999873e+03
7.100000000000000755e-02 1.567155000000000076e-01 1.891304999999999836e+01 7.886615000000000464e+01 1.953570000000000164e+03
7.200000000000000844e-02 1.569240000000000079e-01 2.137349999999999994e+01 8.422114999999999441e+01 1.955444999999999936e+03
7.300000000000000933e-02 1.571214999999999973e-01 2.365034999999999954e+01 8.914275000000000659e+01 1.957235000000000127e+03
7.399999999999999634e-02 1.573065000000000158e-01 2.571365000000000123e+01 9.359125000000000227e+01 1.958914999999999964e+03
7.499999999999999722e-02 1.574765000000000192e-01 2.754570000000000007e+01 9.755519999999999925e+01 1.960460000000000036e+03
7.599999999999999811e-02 1.576309999999999933e-01 2.914164999999999850e+01 1.010494000000000057e+02 1.961875000000000000e+03
7.699999999999999900e-02 1.577695000000000070e-01 3.050895000000000223e+01 1.041155499999999989e+02 1.963150000000000091e+03
7.799999999999999989e-02 1.578939999999999788e-01 3.166624999999999801e+01 1.068155000000000001e+02 1.964295000000000073e+03
7.900000000000000078e-02 1.580060000000000076e-01 3.264244999999999663e+01 1.092314999999999969e+02 1.965335000000000036e+03
8.000000000000000167e-02 1.581084999999999852e-01 3.347390000000000043e+01 1.114574999999999960e+02 1.966285000000000082e+03
8.100000000000000255e-02 1.582040000000000113e-01 3.420204999999999984e+01 1.135944999999999965e+02 1.967174999999999955e+03
8.200000000000000344e-02 1.582955000000000056e-01 3.487014999999999532e+01 1.157434999999999974e+02 1.968025000000000091e+03
8.300000000000000433e-02 1.583875000000000144e-01 3.552020000000000266e+01 1.179964999999999975e+02 1.968875000000000000e+03
8.400000000000000522e-02 1.584820000000000118e-01 3.618975000000000364e+01 1.204320000000000022e+02 1.969750000000000000e+03
8.500000000000000611e-02 1.585820000000000007e-01 3.690930000000000177e+01 1.231064999999999969e+02 1.970664999999999964e+03
8.600000000000000699e-02 1.586889999999999967e-01 3.770040000000000191e+01 1.260534999999999997e+02 1.971644999999999982e+03
8.700000000000000788e-02 1.588050000000000017e-01 3.857399999999999807e+01 1.292789999999999964e+02 1.972704999999999927e+03
8.800000000000000877e-02 1.589285000000000003e-01 3.953050000000000352e+01 1.327620000000000005e+02 1.973840000000000146e+03
8.899999999999999578e-02 1.590610000000000079e-01 4.055974999999999397e+01 1.364575000000000102e+02 1.975050000000000182e+03
8.999999999999999667e-02 1.592000000000000082e-01 4.164239999999999498e+01 1.403004999999999995e+02 1.976320000000000164e+03
9.099999999999999756e-02 1.593434999999999990e-01 4.275144999999999840e+01 1.442079999999999984e+02 1.977634999999999991e+03
9.199999999999999845e-02 1.594889999999999919e-01 4.385425000000000040e+01 1.480900000000000034e+02 1.978965000000000146e+03
9.299999999999999933e-02 1.596329999999999971e-01 4.491519999999999868e+01 1.518514999999999873e+02 1.980295000000000073e+03
9.400000000000000022e-02 1.597729999999999984e-01 4.589775000000000205e+01 1.553994999999999891e+02 1.981585000000000036e+03
9.500000000000000111e-02 1.599065000000000070e-01 4.676655000000000229e+01 1.586490000000000009e+02 1.982820000000000164e+03
9.600000000000000200e-02 1.600285000000000180e-01 4.748980000000000246e+01 1.615260000000000105e+02 1.983954999999999927e+03
9.700000000000000289e-02 1.601389999999999758e-01 4.804044999999999987e+01 1.639735000000000014e+02 1.984974999999999909e+03
9.800000000000000377e-02 1.602339999999999876e-01 4.839770000000000039e+01 1.659484999999999957e+02 1.985865000000000009e+03
9.900000000000000466e-02 1.603129999999999833e-01 4.854800000000000182e+01 1.674279999999999973e+02 1.986610000000000127e+03
1.000000000000000056e-01 1.603749999999999898e-01 4.848525000000000063e+01 1.684080000000000155e+02 1.987195000000000164e+03
1.010000000000000064e-01 1.604184999999999917e-01 4.821094999999999686e+01 1.689010000000000105e+02 1.987619999999999891e+03
1.020000000000000073e-01 1.604460000000000053e-01 4.773409999999999798e+01 1.689354999999999905e+02 1.987889999999999873e+03
1.030000000000000082e-01 1.604570000000000163e-01 4.707019999999999982e+01 1.685550000000000068e+02 1.988005000000000109e+03
1.040000000000000091e-01 1.604524999999999979e-01 4.624060000000000059e+01 1.678125000000000000e+02 1.987980000000000018e+03
1.050000000000000100e-01 1.604349999999999943e-01 4.527120000000000033e+01 1.667710000000000150e+02 1.987835000000000036e+03
1.059999999999999970e-01 1.604065000000000074e-01 4.419124999999999659e+01 1.654984999999999786e+02 1.987585000000000036e+03
1.069999999999999979e-01 1.603680000000000105e-01 4.303185000000000571e+01 1.640640000000000214e+02 1.987244999999999891e+03
1.079999999999999988e-01 1.603235000000000077e-01 4.182475000000000165e+01 1.625364999999999895e+02 1.986844999999999800e+03
1.089999999999999997e-01 1.602744999999999864e-01 4.060079999999999956e+01 1.609809999999999945e+02 1.986394999999999982e+03
1.100000000000000006e-01 1.602234999999999909e-01 3.938899999999999579e+01 1.594560000000000173e+02 1.985929999999999836e+03
1.110000000000000014e-01 1.601724999999999954e-01 3.821524999999999750e+01 1.580144999999999982e+02 1.985460000000000036e+03
1.120000000000000023e-01 1.601230000000000153e-01 3.710160000000000480e+01 1.566970000000000027e+02 1.985005000000000109e+03
1.130000000000000032e-01 1.600769999999999971e-01 3.606539999999999679e+01 1.555344999999999800e+02 1.984579999999999927e+03
1.140000000000000041e-01 1.600354999999999972e-01 3.511905000000000143e+01 1.545465000000000089e+02 1.984190000000000055e+03
1.150000000000000050e-01 1.599995000000000167e-01 3.426940000000000452e+01 1.537415000000000020e+02 1.983849999999999909e+03
1.160000000000000059e-01 1.599685000000000135e-01 3.351810000000000400e+01 1.531159999999999854e+02 1.983565000000000055e+03
1.170000000000000068e-01 1.599435000000000162e-01 3.286164999999999736e+01 1.526550000000000011e+02 1.983320000000000164e+03
1.180000000000000077e-01 1.599240000000000106e-01 3.229180000000000206e+01 1.523354999999999961e+02 1.983135000000000218e+03
1.190000000000000085e-01 1.599090000000000233e-01 3.179614999999999725e+01 1.521254999999999882e+02 1.982985000000000127e+03
1.200000000000000094e-01 1.598979999999999846e-01 3.135914999999999964e+01 1.519855000000000018e+02 1.982875000000000000e+03
1.209999999999999964e-01 1.598890000000000033e-01 3.096264999999999645e+01 1.518750000000000000e+02 1.982784999999999854e+03
1.219999999999999973e-01 1.598809999999999953e-01 3.058720000000000283e+01 1.517485000000000070e+02 1.982710000000000036e+03
1.229999999999999982e-01 1.598729999999999873e-01 3.021280000000000143e+01 1.515629999999999882e+02 1.982625000000000000e+03
1.239999999999999991e-01 1.598625000000000185e-01 2.982025000000000148e+01 1.512764999999999986e+02 1.982525000000000091e+03
1.250000000000000000e-01 1.598489999999999911e-01 2.939170000000000016e+01 1.508530000000000086e+02 1.982400000000000091e+03
1.260000000000000009e-01 1.598310000000000008e-01 2.891179999999999950e+01 1.502624999999999886e+02 1.982240000000000009e+03
1.270000000000000018e-01 1.598074999999999912e-01 2.836834999999999951e+01 1.494819999999999993e+02 1.982019999999999982e+03
1.280000000000000027e-01 1.597779999999999756e-01 2.775305000000000177e+01 1.484990000000000236e+02 1.981750000000000000e+03
1.290000000000000036e-01 1.597414999999999807e-01 2.706165000000000020e+01 1.473104999999999905e+02 1.981414999999999964e+03
1.300000000000000044e-01 1.596974999999999922e-01 2.629445000000000121e+01 1.459234999999999900e+02 1.981019999999999982e+03
1.310000000000000053e-01 1.596474999999999977e-01 2.545609999999999928e+01 1.443545000000000016e+02 1.980559999999999945e+03
1.320000000000000062e-01 1.595905000000000240e-01 2.455555000000000021e+01 1.426304999999999836e+02 1.980045000000000073e+03
1.330000000000000071e-01 1.595285000000000175e-01 2.360524999999999807e+01 1.407839999999999918e+02 1.979474999999999909e+03
1.340000000000000080e-01 1.594619999999999926e-01 2.262105000000000032e+01 1.388564999999999827e+02 1.978869999999999891e+03
1.350000000000000089e-01 1.593924999999999925e-01 2.162089999999999890e+01 1.368905000000000030e+02 1.978235000000000127e+03
1.360000000000000098e-01 1.593209999999999904e-01 2.062450000000000117e+01 1.349345000000000141e+02 1.977579999999999927e+03
1.370000000000000107e-01 1.592500000000000027e-01 1.965169999999999817e+01 1.330339999999999918e+02 1.976930000000000064e+03
1.380000000000000115e-01 1.591805000000000025e-01 1.872245000000000203e+01 1.312344999999999970e+02 1.976289999999999964e+03
1.390000000000000124e-01 1.591144999999999921e-01 1.785500000000000043e+01 1.295755000000000052e+02 1.975680000000000064e+03
1.400000000000000133e-01 1.590524999999999856e-01 1.706575000000000131e+01 1.280925000000000011e+02 1.975110000000000127e+03
1.410000000000000142e-01 1.589964999999999851e-01 1.636840000000000117e+01 1.268139999999999930e+02 1.974595000000000027e+03
1.420000000000000151e-01 1.589475000000000193e-01 1.577329999999999899e+01 1.257590000000000003e+02 1.974134999999999991e+03
1.430000000000000160e-01 1.589059999999999917e-01 1.528725000000000023e+01 1.249385000000000048e+02 1.973755000000000109e+03
1.440000000000000169e-01 1.588724999999999998e-01 1.491314999999999991e+01 1.243565000000000111e+02 1.973434999999999945e+03
1.450000000000000178e-01 1.588470000000000160e-01 1.465019999999999989e+01 1.240060000000000002e+02 1.973200000000000045e+03
1.459999999999999909e-01 1.588300000000000267e-01 1.449409999999999954e+01 1.238744999999999976e+02 1.973035000000000082e+03
1.469999999999999918e-01 1.588204999999999756e-01 1.443724999999999881e+01 1.239414999999999907e+02 1.972934999999999945e+03
1.479999999999999927e-01 1.588185000000000013e-01 1.446909999999999918e+01 1.241809999999999974e+02 1.972904999999999973e+03
1.489999999999999936e-01 1.588224999999999776e-01 1.457699999999999996e+01 1.245625000000000000e+02 1.972934999999999945e+03
1.499999999999999944e-01 1.588320000000000010e-01 1.474664999999999893e+01 1.250540000000000020e+02 1.973014999999999873e+03
1.509999999999999953e-01 1.588455000000000006e-01 1.496274999999999977e+01 1.256214999999999975e+02 1.973130000000000109e+03
1.519999999999999962e-01 1.588625000000000176e-01 1.520950000000000024e+01 1.262300000000000040e+02 1.973279999999999973e+03
1.529999999999999971e-01 1.588815000000000088e-01 1.547159999999999869e+01 1.268485000000000014e+02 1.973445000000000164e+03
1.539999999999999980e-01 1.589010000000000145e-01 1.573440000000000083e+01 1.274470000000000027e+02 1.973619999999999891e+03
1.549999999999999989e-01 1.589204999999999923e-01 1.598475000000000001e+01 1.279994999999999976e+02 1.973795000000000073e+03
1.559999999999999998e-01 1.589384999999999826e-01 1.621105000000000018e+01 1.284844999999999970e+02 1.973964999999999918e+03
1.570000000000000007e-01 1.589554999999999996e-01 1.640394999999999825e+01 1.288854999999999791e+02 1.974119999999999891e+03
1.580000000000000016e-01 1.589689999999999992e-01 1.655624999999999858e+01 1.291904999999999859e+02 1.974244999999999891e+03
1.590000000000000024e-01 1.589800000000000102e-01 1.666325000000000145e+01 1.293940000000000055e+02 1.974349999999999909e+03
