# t [s], A [cm^2], U [cm/s], P [cPa], c [cm/s]
1.000000000000000021e-03 5.952979999999999938e-01 4.466500000000005188e-03 1.055949999999999989e+02 1.562074999999999818e+03
2.000000000000000042e-03 5.952899999999999858e-01 4.445205000000000684e-03 1.055699999999999932e+02 1.562069999999999936e+03
3.000000000000000062e-03 5.953595000000000415e-01 1.335675500000000071e-01 1.057025000000000006e+02 1.562105000000000018e+03
4.000000000000000083e-03 5.953975000000000239e-01 2.193983999999999934e-01 1.057999999999999972e+02 1.562134999999999991e+03
5.000000000000000104e-03 5.953465000000000007e-01 1.491084999999999772e-01 1.056634999999999991e+02 1.562099999999999909e+03
6.000000000000000125e-03 5.952659999999999618e-01 1.699349999999999472e-02 1.053555000000000064e+02 1.562029999999999973e+03
7.000000000000000146e-03 5.951819999999999888e-01 -1.345699999999999674e-01 1.049440000000000026e+02 1.561930000000000064e+03
8.000000000000000167e-03 5.950339999999999518e-01 -4.179999999999999272e-01 1.042994999999999948e+02 1.561769999999999982e+03
9.000000000000001055e-03 5.948089999999999211e-01 -8.586400000000000698e-01 1.033425000000000011e+02 1.561539999999999964e+03
1.000000000000000194e-02 5.945074999999999665e-01 -1.439649999999999874e+00 1.020446499999999901e+02 1.561210000000000036e+03
1.099999999999999936e-02 5.941054999999999531e-01 -2.183859999999999690e+00 1.003332000000000050e+02 1.560779999999999973e+03
1.200000000000000025e-02 5.935949999999999838e-01 -3.079670000000000130e+00 9.816814999999999714e+01 1.560210000000000036e+03
1.300000000000000114e-02 5.930269999999999708e-01 -3.997535000000000061e+00 9.566845000000000709e+01 1.559545000000000073e+03
1.400000000000000203e-02 5.924939999999999651e-01 -4.723882999999999832e+00 9.310885000000000389e+01 1.558835000000000036e+03
1.499999999999999944e-02 5.920725000000000016e-01 -5.072561799999999899e+00 9.079265000000000896e+01 1.558160000000000082e+03
1.600000000000000033e-02 5.917875000000000218e-01 -4.968422000000000338e+00 8.891575000000000273e+01 1.557565000000000055e+03
1.700000000000000122e-02 5.916090000000000515e-01 -4.461359999999999992e+00 8.750329999999999586e+01 1.557075000000000045e+03
1.800000000000000211e-02 5.914725000000000676e-01 -3.689360000000000195e+00 8.642455000000001064e+01 1.556660000000000082e+03
1.900000000000000300e-02 5.913074999999999859e-01 -2.819289500000000004e+00 8.545929999999999893e+01 1.556275000000000091e+03
2.000000000000000042e-02 5.910634999999999639e-01 -1.987219499999999917e+00 8.438564999999999827e+01 1.555884999999999991e+03
2.100000000000000130e-02 5.907234999999999570e-01 -1.257650000000000157e+00 8.305869999999998754e+01 1.555434999999999945e+03
2.200000000000000219e-02 5.903074999999999850e-01 -6.173600000000001309e-01 8.144865000000000066e+01 1.554920000000000073e+03
2.299999999999999961e-02 5.898525000000000018e-01 -4.250000000000309086e-03 7.962574999999999648e+01 1.554360000000000127e+03
2.400000000000000050e-02 5.893979999999999775e-01 6.471149999999998847e-01 7.770574999999999477e+01 1.553755000000000109e+03
2.500000000000000139e-02 5.889634999999999732e-01 1.366544999999999899e+00 7.578819999999998913e+01 1.553150000000000091e+03
2.600000000000000228e-02 5.885449999999999848e-01 2.129265000000000185e+00 7.391185000000000116e+01 1.552549999999999955e+03
2.700000000000000316e-02 5.881190000000000584e-01 2.858545000000000336e+00 7.203745000000000687e+01 1.551940000000000055e+03
2.800000000000000058e-02 5.876460000000000017e-01 3.444535000000000124e+00 7.005844999999999345e+01 1.551309999999999945e+03
2.900000000000000147e-02 5.870849999999999680e-01 3.772189999999999710e+00 6.783204999999999529e+01 1.550619999999999891e+03
3.000000000000000236e-02 5.864074999999999704e-01 3.751084999999999781e+00 6.522175000000000011e+01 1.549844999999999800e+03
3.099999999999999978e-02 5.856029999999999847e-01 3.339884999999999771e+00 6.214130000000000109e+01 1.548954999999999927e+03
3.200000000000000067e-02 5.846854999999999691e-01 2.558644999999999392e+00 5.858639999999999759e+01 1.547945000000000164e+03
3.300000000000000155e-02 5.836934999999999762e-01 1.485699999999999577e+00 5.464579999999999416e+01 1.546829999999999927e+03
3.400000000000000244e-02 5.826784999999999881e-01 2.406499999999995865e-01 5.048935000000000173e+01 1.545650000000000091e+03
3.500000000000000333e-02 5.816989999999999661e-01 -1.038949999999999818e+00 4.633915000000000362e+01 1.544449999999999818e+03
3.600000000000000422e-02 5.808100000000000485e-01 -2.220679999999999765e+00 4.243390000000000128e+01 1.543304999999999836e+03
3.700000000000000511e-02 5.800560000000000160e-01 -3.194195000000000118e+00 3.899559999999999604e+01 1.542259999999999991e+03
3.799999999999999906e-02 5.794684999999999420e-01 -3.880144999999999733e+00 3.620449999999999591e+01 1.541369999999999891e+03
3.899999999999999994e-02 5.790644999999999820e-01 -4.232116000000000433e+00 3.418455000000000155e+01 1.540679999999999836e+03
4.000000000000000083e-02 5.788495000000000168e-01 -4.232470000000000176e+00 3.300045000000000073e+01 1.540210000000000036e+03
4.100000000000000172e-02 5.788180000000000547e-01 -3.885000000000000231e+00 3.266270000000000095e+01 1.539970000000000027e+03
4.200000000000000261e-02 5.789590000000000014e-01 -3.206665000000000099e+00 3.313965000000000316e+01 1.539974999999999909e+03
4.300000000000000350e-02 5.792574999999999807e-01 -2.220349999999999824e+00 3.437160000000000082e+01 1.540190000000000055e+03
4.400000000000000439e-02 5.796980000000000466e-01 -9.503699999999999370e-01 3.628354999999999819e+01 1.540619999999999891e+03
4.499999999999999833e-02 5.802644999999999609e-01 5.787999999999997591e-01 3.879455000000000098e+01 1.541234999999999900e+03
4.599999999999999922e-02 5.809414999999999996e-01 2.341175000000000228e+00 4.182229999999999848e+01 1.542009999999999991e+03
4.700000000000000011e-02 5.817105000000000192e-01 4.306529999999999525e+00 4.528324999999999534e+01 1.542930000000000064e+03
4.800000000000000100e-02 5.825544999999999751e-01 6.437714999999999854e+00 4.909109999999999729e+01 1.543965000000000146e+03
4.900000000000000189e-02 5.834509999999999419e-01 8.689840000000000231e+00 5.315520000000000067e+01 1.545094999999999800e+03
5.000000000000000278e-02 5.843789999999999818e-01 1.101080799999999904e+01 5.738024999999999665e+01 1.546284999999999854e+03
5.100000000000000366e-02 5.853150000000000297e-01 1.334433000000000114e+01 6.166849999999999454e+01 1.547519999999999982e+03
5.200000000000000455e-02 5.862370000000000081e-01 1.563353000000000037e+01 6.592390000000000327e+01 1.548764999999999873e+03
5.300000000000000544e-02 5.871264999999999956e-01 1.782570499999999925e+01 7.005755000000000621e+01 1.549990000000000009e+03
5.399999999999999939e-02 5.879670000000000174e-01 1.987575000000000003e+01 7.399334999999999241e+01 1.551179999999999836e+03
5.500000000000000028e-02 5.887480000000000491e-01 2.174949999999999761e+01 7.767319999999999425e+01 1.552315000000000055e+03
5.600000000000000117e-02 5.894634999999999181e-01 2.342524999999999835e+01 8.106000000000000227e+01 1.553380000000000109e+03
5.700000000000000205e-02 5.901134999999999575e-01 2.489354999999999762e+01 8.413904999999999745e+01 1.554365000000000009e+03
5.800000000000000294e-02 5.907014999999999905e-01 2.615660000000000096e+01 8.691675000000000750e+01 1.555265000000000100e+03
5.900000000000000383e-02 5.912355000000000249e-01 2.722605000000000075e+01 8.941819999999999879e+01 1.556099999999999909e+03
6.000000000000000472e-02 5.917244999999999866e-01 2.812084999999999724e+01 9.168285000000000196e+01 1.556860000000000127e+03
6.099999999999999867e-02 5.921809999999999574e-01 2.886529999999999774e+01 9.376064999999999827e+01 1.557565000000000055e+03
6.199999999999999956e-02 5.926164999999999905e-01 2.948680000000000234e+01 9.570714999999999861e+01 1.558224999999999909e+03
6.300000000000000044e-02 5.930434999999999457e-01 3.001435000000000031e+01 9.758034999999999570e+01 1.558860000000000127e+03
6.400000000000000133e-02 5.934734999999999872e-01 3.047759999999999891e+01 9.943604999999999450e+01 1.559480000000000018e+03
6.500000000000000222e-02 5.939170000000000282e-01 3.090525000000000233e+01 1.013285500000000070e+02 1.560105000000000018e+03
6.600000000000000311e-02 5.943840000000000234e-01 3.132430000000000092e+01 1.033034999999999997e+02 1.560740000000000009e+03
6.700000000000000400e-02 5.948824999999999807e-01 3.175825000000000031e+01 1.053990000000000009e+02 1.561409999999999854e+03
6.800000000000000488e-02 5.954159999999999453e-01 3.222610000000000241e+01 1.076430000000000007e+02 1.562110000000000127e+03
6.900000000000000577e-02 5.959889999999999910e-01 3.274090000000000344e+01 1.100510000000000019e+02 1.562860000000000127e+03
7.000000000000000666e-02 5.965985000000000316e-01 3.330834999999999724e+01 1.126245000000000118e+02 1.563650000000000091e+03
7.100000000000000755e-02 5.972410000000000219e-01 3.392669999999999675e+01 1.153495000000000061e+02 1.564480000000000018e+03
7.200000000000000844e-02 5.979090000000000238e-01 3.458639999999999759e+01 1.181995000000000005e+02 1.565344999999999800e+03
7.300000000000000933e-02 5.985920000000000130e-01 3.527094999999999914e+01 1.211334999999999980e+02 1.566239999999999782e+03
7.399999999999999634e-02 5.992779999999999774e-01 3.595810000000000173e+01 1.240990000000000038e+02 1.567150000000000091e+03
7.499999999999999722e-02 5.999520000000000408e-01 3.662170000000000414e+01 1.270379999999999967e+02 1.568054999999999836e+03
7.599999999999999811e-02 6.006015000000000104e-01 3.723355000000000103e+01 1.298874999999999886e+02 1.568940000000000055e+03
7.699999999999999900e-02 6.012119999999999687e-01 3.776550000000000296e+01 1.325844999999999914e+02 1.569789999999999964e+03
7.799999999999999989e-02 6.017704999999999860e-01 3.819134999999999991e+01 1.350709999999999980e+02 1.570589999999999918e+03
7.900000000000000078e-02 6.022674999999999557e-01 3.848839999999999861e+01 1.372959999999999923e+02 1.571315000000000055e+03
8.000000000000000167e-02 6.026940000000000630e-01 3.863875000000000171e+01 1.392185000000000059e+02 1.571960000000000036e+03
8.100000000000000255e-02 6.030454999999999011e-01 3.863034999999999997e+01 1.408110000000000070e+02 1.572509999999999991e+03
8.200000000000000344e-02 6.033195000000000086e-01 3.845694999999999908e+01 1.420570000000000164e+02 1.572964999999999918e+03
8.300000000000000433e-02 6.035174999999999290e-01 3.811884999999999479e+01 1.429549999999999841e+02 1.573315000000000055e+03
8.400000000000000522e-02 6.036420000000000119e-01 3.762205000000000155e+01 1.435165000000000077e+02 1.573574999999999818e+03
8.500000000000000611e-02 6.036985000000000268e-01 3.697825000000000273e+01 1.437640000000000100e+02 1.573724999999999909e+03
8.600000000000000699e-02 6.036954999999999405e-01 3.620364999999999611e+01 1.437289999999999850e+02 1.573789999999999964e+03
8.700000000000000788e-02 6.036414999999999420e-01 3.531855000000000189e+01 1.434524999999999864e+02 1.573779999999999973e+03
8.800000000000000877e-02 6.035470000000000557e-01 3.434600000000000364e+01 1.429800000000000182e+02 1.573704999999999927e+03
8.899999999999999578e-02 6.034230000000000427e-01 3.331099999999999994e+01 1.423605000000000018e+02 1.573574999999999818e+03
8.999999999999999667e-02 6.032800000000000384e-01 3.223914999999999509e+01 1.416449999999999818e+02 1.573404999999999973e+03
9.099999999999999756e-02 6.031290000000000262e-01 3.115579999999999927e+01 1.408810000000000002e+02 1.573210000000000036e+03
9.199999999999999845e-02 6.029790000000000427e-01 3.008480000000000132e+01 1.401144999999999925e+02 1.573005000000000109e+03
9.299999999999999933e-02 6.028390000000000137e-01 2.904755000000000109e+01 1.393855000000000075e+02 1.572805000000000064e+03
9.400000000000000022e-02 6.027154999999999596e-01 2.806239999999999668e+01 1.387280000000000086e+02 1.572610000000000127e+03
9.500000000000000111e-02 6.026145000000000529e-01 2.714359999999999928e+01 1.381664999999999850e+02 1.572440000000000055e+03
9.600000000000000200e-02 6.025369999999999893e-01 2.630114999999999981e+01 1.377194999999999823e+02 1.572295000000000073e+03
9.700000000000000289e-02 6.024864999999999249e-01 2.554044999999999987e+01 1.373950000000000102e+02 1.572179999999999836e+03
9.800000000000000377e-02 6.024609999999999133e-01 2.486240000000000094e+01 1.371929999999999836e+02 1.572105000000000018e+03
9.900000000000000466e-02 6.024585000000000079e-01 2.426364999999999839e+01 1.371044999999999732e+02 1.572055000000000064e+03
1.000000000000000056e-01 6.024749999999999828e-01 2.373680000000000234e+01 1.371154999999999973e+02 1.572029999999999973e+03
1.010000000000000064e-01 6.025059999999999860e-01 2.327125000000000199e+01 1.372035000000000196e+02 1.572034999999999854e+03
1.020000000000000073e-01 6.025445000000000384e-01 2.285385000000000133e+01 1.373435000000000059e+02 1.572055000000000064e+03
1.030000000000000082e-01 6.025849999999999262e-01 2.246940000000000026e+01 1.375054999999999836e+02 1.572085000000000036e+03
1.040000000000000091e-01 6.026209999999999622e-01 2.210190000000000055e+01 1.376599999999999966e+02 1.572119999999999891e+03
1.050000000000000100e-01 6.026445000000000274e-01 2.173499999999999943e+01 1.377764999999999986e+02 1.572144999999999982e+03
1.059999999999999970e-01 6.026510000000000478e-01 2.135309999999999775e+01 1.378255000000000052e+02 1.572154999999999973e+03
1.069999999999999979e-01 6.026344999999999619e-01 2.094200000000000017e+01 1.377830000000000155e+02 1.572139999999999873e+03
1.079999999999999988e-01 6.025905000000000289e-01 2.048959999999999937e+01 1.376270000000000095e+02 1.572099999999999909e+03
1.089999999999999997e-01 6.025169999999999693e-01 1.998639999999999972e+01 1.373414999999999964e+02 1.572025000000000091e+03
1.100000000000000006e-01 6.024115000000000997e-01 1.942620000000000147e+01 1.369174999999999898e+02 1.571910000000000082e+03
1.110000000000000014e-01 6.022735000000000172e-01 1.880610000000000070e+01 1.363509999999999991e+02 1.571759999999999991e+03
1.120000000000000023e-01 6.021060000000000301e-01 1.812689999999999912e+01 1.356454999999999984e+02 1.571565000000000055e+03
1.130000000000000032e-01 6.019105000000000150e-01 1.739274999999999949e+01 1.348109999999999786e+02 1.571329999999999927e+03
1.140000000000000041e-01 6.016909999999999759e-01 1.661129999999999995e+01 1.338634999999999877e+02 1.571065000000000055e+03
1.150000000000000050e-01 6.014534999999999743e-01 1.579315000000000069e+01 1.328249999999999886e+02 1.570769999999999982e+03
1.160000000000000059e-01 6.012029999999999319e-01 1.495136999999999894e+01 1.317199999999999989e+02 1.570444999999999936e+03
1.170000000000000068e-01 6.009470000000000089e-01 1.410097999999999985e+01 1.305794999999999959e+02 1.570115000000000009e+03
1.180000000000000077e-01 6.006930000000000325e-01 1.325822000000000145e+01 1.294329999999999927e+02 1.569775000000000091e+03
1.190000000000000085e-01 6.004464999999999941e-01 1.243984499999999827e+01 1.283129999999999882e+02 1.569440000000000055e+03
1.200000000000000094e-01 6.002149999999999430e-01 1.166219500000000053e+01 1.272489999999999952e+02 1.569115000000000009e+03
1.209999999999999964e-01 6.000050000000000106e-01 1.094073500000000010e+01 1.262704999999999984e+02 1.568804999999999836e+03
1.219999999999999973e-01 5.998209999999999376e-01 1.028894500000000001e+01 1.254025000000000034e+02 1.568530000000000200e+03
1.229999999999999982e-01 5.996675000000000200e-01 9.718160000000001020e+00 1.246649999999999920e+02 1.568284999999999854e+03
1.239999999999999991e-01 5.995470000000000521e-01 9.236729999999999663e+00 1.240730000000000075e+02 1.568079999999999927e+03
1.250000000000000000e-01 5.994615000000000915e-01 8.849925000000000708e+00 1.236355000000000075e+02 1.567914999999999964e+03
1.260000000000000009e-01 5.994099999999999984e-01 8.559715000000000629e+00 1.233549999999999898e+02 1.567799999999999955e+03
1.270000000000000018e-01 5.993924999999999947e-01 8.364795000000000869e+00 1.232295000000000016e+02 1.567730000000000018e+03
1.280000000000000027e-01 5.994059999999999944e-01 8.260770000000000834e+00 1.232485000000000070e+02 1.567700000000000045e+03
1.290000000000000036e-01 5.994470000000000631e-01 8.240474999999999994e+00 1.233994999999999891e+02 1.567710000000000036e+03
1.300000000000000044e-01 5.995114999999999750e-01 8.294405000000001138e+00 1.236640000000000015e+02 1.567755000000000109e+03
1.310000000000000053e-01 5.995939999999999603e-01 8.411215000000000330e+00 1.240210000000000008e+02 1.567829999999999927e+03
1.320000000000000062e-01 5.996904999999999042e-01 8.578260000000000218e+00 1.244470000000000027e+02 1.567930000000000064e+03
1.330000000000000071e-01 5.997945000000000082e-01 8.782189999999999941e+00 1.249189999999999969e+02 1.568050000000000182e+03
1.340000000000000080e-01 5.999014999999999764e-01 9.009474999999998346e+00 1.254120000000000061e+02 1.568180000000000064e+03
1.350000000000000089e-01 6.000064999999999982e-01 9.246974999999999056e+00 1.259050000000000011e+02 1.568315000000000055e+03
1.360000000000000098e-01 6.001049999999999995e-01 9.482350000000000279e+00 1.263769999999999953e+02 1.568450000000000045e+03
1.370000000000000107e-01 6.001940000000000053e-01 9.704544999999999533e+00 1.268095000000000141e+02 1.568574999999999818e+03
1.380000000000000115e-01 6.002700000000000813e-01 9.904014999999999347e+00 1.271889999999999930e+02 1.568684999999999945e+03
1.390000000000000124e-01 6.003315000000000179e-01 1.007301999999999964e+01 1.275039999999999907e+02 1.568784999999999854e+03
1.400000000000000133e-01 6.003764999999999796e-01 1.020595000000000141e+01 1.277480000000000047e+02 1.568865000000000009e+03
1.410000000000000142e-01 6.004054999999999254e-01 1.029894499999999979e+01 1.279164999999999850e+02 1.568924999999999955e+03
1.420000000000000151e-01 6.004180000000000073e-01 1.035035500000000042e+01 1.280099999999999909e+02 1.568970000000000027e+03
1.430000000000000160e-01 6.004160000000000608e-01 1.036047999999999902e+01 1.280324999999999989e+02 1.568985000000000127e+03
1.440000000000000169e-01 6.004005000000000036e-01 1.033118999999999943e+01 1.279899999999999949e+02 1.568990000000000009e+03
1.450000000000000178e-01 6.003735000000000044e-01 1.026614999999999966e+01 1.278909999999999911e+02 1.568974999999999909e+03
1.459999999999999909e-01 6.003370000000000095e-01 1.017014500000000155e+01 1.277455000000000069e+02 1.568940000000000055e+03
1.469999999999999918e-01 6.002950000000000230e-01 1.004897500000000043e+01 1.275660000000000025e+02 1.568900000000000091e+03
1.479999999999999927e-01 6.002495000000001024e-01 9.909245000000000303e+00 1.273650000000000091e+02 1.568849999999999909e+03
1.489999999999999936e-01 6.002024999999999721e-01 9.757780000000000342e+00 1.271544999999999987e+02 1.568795000000000073e+03
1.499999999999999944e-01 6.001579999999999693e-01 9.601470000000000837e+00 1.269464999999999861e+02 1.568744999999999891e+03
1.509999999999999953e-01 6.001175000000000814e-01 9.446790000000000020e+00 1.267514999999999930e+02 1.568690000000000055e+03
1.519999999999999962e-01 6.000829999999999220e-01 9.299804999999999211e+00 1.265799999999999983e+02 1.568639999999999873e+03
1.529999999999999971e-01 6.000559999999999228e-01 9.165634999999999977e+00 1.264379999999999882e+02 1.568599999999999909e+03
1.539999999999999980e-01 6.000369999999999315e-01 9.048405000000000697e+00 1.263324999999999960e+02 1.568559999999999945e+03
1.549999999999999989e-01 6.000274999999999359e-01 8.951029999999999376e+00 1.262659999999999911e+02 1.568539999999999964e+03
1.559999999999999998e-01 6.000265000000000182e-01 8.875339999999999563e+00 1.262394999999999925e+02 1.568529999999999973e+03
1.570000000000000007e-01 6.000339999999999563e-01 8.821905000000000996e+00 1.262514999999999930e+02 1.568525000000000091e+03
1.580000000000000016e-01 6.000490000000000546e-01 8.790055000000000618e+00 1.262994999999999948e+02 1.568534999999999854e+03
1.590000000000000024e-01 6.000704999999999512e-01 8.778190000000000381e+00 1.263774999999999977e+02 1.568549999999999955e+03
