# t [s], A [cm^2], U [cm/s], P [cPa], c [cm/s]
1.000000000000000021e-03 1.382444999999999924e-01 1.826539999999999830e-01 9.535490000000000066e+01 1.899090000000000146e+03
2.000000000000000042e-03 1.382279999999999898e-01 1.456553500000000057e+00 9.279734999999999445e+01 1.898889999999999873e+03
3.000000000000000062e-03 1.381554999999999866e-01 3.064672999999999981e+00 8.942400000000000659e+01 1.898089999999999918e+03
4.000000000000000083e-03 1.380430000000000268e-01 4.865116500000000066e+00 8.551134999999999309e+01 1.896865000000000009e+03
5.000000000000000104e-03 1.379094999999999904e-01 6.812090000000000423e+00 8.165229999999999677e+01 1.895420000000000073e+03
6.000000000000000125e-03 1.377694999999999892e-01 8.831525000000000958e+00 7.823644999999999072e+01 1.893925000000000182e+03
7.000000000000000146e-03 1.376324999999999910e-01 1.079968000000000039e+01 7.533189999999999031e+01 1.892480000000000018e+03
8.000000000000000167e-03 1.375014999999999987e-01 1.259656500000000001e+01 7.279455000000000098e+01 1.891115000000000009e+03
9.000000000000001055e-03 1.373790000000000011e-01 1.417285000000000039e+01 7.050530000000000541e+01 1.889860000000000127e+03
1.000000000000000194e-02 1.372674999999999867e-01 1.554039999999999999e+01 6.847015000000000384e+01 1.888724999999999909e+03
1.099999999999999936e-02 1.371689999999999854e-01 1.672019999999999840e+01 6.673094999999999288e+01 1.887735000000000127e+03
1.200000000000000025e-02 1.370834999999999970e-01 1.772329999999999828e+01 6.529044999999999277e+01 1.886884999999999991e+03
1.300000000000000114e-02 1.370120000000000227e-01 1.855539999999999878e+01 6.411635000000001128e+01 1.886175000000000182e+03
1.400000000000000203e-02 1.369515000000000038e-01 1.921839999999999904e+01 6.315415000000000134e+01 1.885595000000000027e+03
1.499999999999999944e-02 1.369004999999999805e-01 1.971334999999999837e+01 6.233400000000000318e+01 1.885105000000000018e+03
1.600000000000000033e-02 1.368574999999999930e-01 2.005485000000000184e+01 6.160290000000000532e+01 1.884699999999999818e+03
1.700000000000000122e-02 1.368209999999999982e-01 2.028640000000000043e+01 6.097504999999999598e+01 1.884359999999999900e+03
1.800000000000000211e-02 1.367929999999999979e-01 2.047975000000000279e+01 6.055485000000000184e+01 1.884105000000000018e+03
1.900000000000000300e-02 1.367760000000000087e-01 2.071419999999999817e+01 6.050300000000000011e+01 1.883954999999999927e+03
2.000000000000000042e-02 1.367745000000000211e-01 2.104795000000000016e+01 6.096089999999999520e+01 1.883954999999999927e+03
2.100000000000000130e-02 1.367899999999999949e-01 2.149685000000000201e+01 6.197789999999999822e+01 1.884119999999999891e+03
2.200000000000000219e-02 1.368225000000000136e-01 2.203090000000000259e+01 6.347724999999999795e+01 1.884440000000000055e+03
2.299999999999999961e-02 1.368669999999999887e-01 2.258630000000000138e+01 6.527094999999999914e+01 1.884900000000000091e+03
2.400000000000000050e-02 1.369195000000000273e-01 2.308719999999999928e+01 6.711239999999999384e+01 1.885429999999999836e+03
2.500000000000000139e-02 1.369730000000000114e-01 2.346759999999999735e+01 6.876255000000000450e+01 1.885980000000000018e+03
2.600000000000000228e-02 1.370219999999999771e-01 2.368674999999999997e+01 7.004560000000000741e+01 1.886484999999999900e+03
2.700000000000000316e-02 1.370619999999999894e-01 2.373575000000000301e+01 7.088100000000000023e+01 1.886904999999999973e+03
2.800000000000000058e-02 1.370915000000000050e-01 2.363344999999999985e+01 7.128544999999999732e+01 1.887220000000000027e+03
2.900000000000000147e-02 1.371104999999999963e-01 2.341635000000000133e+01 7.134895000000000209e+01 1.887434999999999945e+03
3.000000000000000236e-02 1.371219999999999939e-01 2.312525000000000119e+01 7.119620000000000459e+01 1.887559999999999945e+03
3.099999999999999978e-02 1.371265000000000123e-01 2.279334999999999667e+01 7.094595000000001050e+01 1.887625000000000000e+03
3.200000000000000067e-02 1.371279999999999999e-01 2.243890000000000029e+01 7.067990000000000350e+01 1.887639999999999873e+03
3.300000000000000155e-02 1.371275000000000133e-01 2.206385000000000218e+01 7.042884999999999707e+01 1.887639999999999873e+03
3.400000000000000244e-02 1.371244999999999825e-01 2.165739999999999910e+01 7.017600000000000193e+01 1.887615000000000009e+03
3.500000000000000333e-02 1.371195000000000053e-01 2.120354999999999990e+01 6.987430000000000518e+01 1.887570000000000164e+03
3.600000000000000422e-02 1.371114999999999973e-01 2.068919999999999959e+01 6.947065000000000623e+01 1.887494999999999891e+03
3.700000000000000511e-02 1.370985000000000120e-01 2.011110000000000042e+01 6.893035000000000423e+01 1.887375000000000000e+03
3.799999999999999906e-02 1.370819999999999816e-01 1.948045000000000115e+01 6.825430000000000064e+01 1.887210000000000036e+03
3.899999999999999994e-02 1.370615000000000028e-01 1.882270000000000110e+01 6.748640000000000327e+01 1.887014999999999873e+03
4.000000000000000083e-02 1.370385000000000075e-01 1.817445000000000022e+01 6.670805000000000007e+01 1.886789999999999964e+03
4.100000000000000172e-02 1.370164999999999855e-01 1.757690000000000197e+01 6.602340000000000941e+01 1.886565000000000055e+03
4.200000000000000261e-02 1.369974999999999943e-01 1.706824999999999903e+01 6.553775000000000261e+01 1.886369999999999891e+03
4.300000000000000350e-02 1.369845000000000090e-01 1.667665000000000219e+01 6.533554999999999779e+01 1.886235000000000127e+03
4.400000000000000439e-02 1.369795000000000040e-01 1.641525000000000034e+01 6.546314999999999884e+01 1.886184999999999945e+03
4.499999999999999833e-02 1.369839999999999947e-01 1.628055000000000163e+01 6.591960000000000264e+01 1.886215000000000146e+03
4.599999999999999922e-02 1.369970000000000077e-01 1.625319999999999965e+01 6.665680000000000405e+01 1.886335000000000036e+03
4.700000000000000011e-02 1.370180000000000009e-01 1.630199999999999960e+01 6.758884999999999366e+01 1.886539999999999964e+03
4.800000000000000100e-02 1.370439999999999992e-01 1.638884999999999792e+01 6.860595000000000709e+01 1.886795000000000073e+03
4.900000000000000189e-02 1.370730000000000004e-01 1.647444999999999737e+01 6.959180000000000632e+01 1.887079999999999927e+03
5.000000000000000278e-02 1.371010000000000006e-01 1.652264999999999873e+01 7.043899999999999295e+01 1.887355000000000018e+03
5.100000000000000366e-02 1.371255000000000113e-01 1.650430000000000064e+01 7.106110000000001037e+01 1.887605000000000018e+03
5.200000000000000455e-02 1.371439999999999881e-01 1.639880000000000138e+01 7.139979999999999905e+01 1.887795000000000073e+03
5.300000000000000544e-02 1.371549999999999991e-01 1.619444999999999979e+01 7.142650000000000432e+01 1.887909999999999854e+03
5.399999999999999939e-02 1.371574999999999878e-01 1.588755000000000095e+01 7.113970000000000482e+01 1.887934999999999945e+03
5.500000000000000028e-02 1.371499999999999941e-01 1.548055000000000092e+01 7.055889999999999418e+01 1.887869999999999891e+03
5.600000000000000117e-02 1.371344999999999925e-01 1.498035000000000139e+01 6.971805000000000518e+01 1.887720000000000027e+03
5.700000000000000205e-02 1.371104999999999963e-01 1.439644999999999975e+01 6.865794999999999959e+01 1.887484999999999900e+03
5.800000000000000294e-02 1.370795000000000208e-01 1.373985000000000056e+01 6.742170000000000130e+01 1.887175000000000182e+03
5.900000000000000383e-02 1.370415000000000105e-01 1.302250000000000085e+01 6.605070000000000618e+01 1.886799999999999955e+03
6.000000000000000472e-02 1.369994999999999963e-01 1.225686999999999927e+01 6.458400000000000318e+01 1.886375000000000000e+03
6.099999999999999867e-02 1.369529999999999914e-01 1.145683499999999988e+01 6.305850000000000222e+01 1.885910000000000082e+03
6.199999999999999956e-02 1.369035000000000113e-01 1.063762999999999970e+01 6.151085000000000491e+01 1.885420000000000073e+03
6.300000000000000044e-02 1.368530000000000024e-01 9.816584999999999894e+00 5.997915000000000418e+01 1.884909999999999854e+03
6.400000000000000133e-02 1.368019999999999792e-01 9.013054999999999595e+00 5.850475000000000136e+01 1.884400000000000091e+03
6.500000000000000222e-02 1.367524999999999991e-01 8.248775000000000190e+00 5.713290000000000646e+01 1.883900000000000091e+03
6.600000000000000311e-02 1.367054999999999798e-01 7.546980000000000466e+00 5.591275000000000261e+01 1.883430000000000064e+03
6.700000000000000400e-02 1.366634999999999933e-01 6.931815000000000282e+00 5.489570000000000505e+01 1.883005000000000109e+03
6.800000000000000488e-02 1.366279999999999994e-01 6.427279999999999660e+00 5.413370000000000459e+01 1.882639999999999873e+03
6.900000000000000577e-02 1.365994999999999848e-01 6.056060000000000443e+00 5.367600000000000193e+01 1.882349999999999909e+03
7.000000000000000666e-02 1.365810000000000080e-01 5.838330000000000020e+00 5.356645000000000323e+01 1.882154999999999973e+03
7.100000000000000755e-02 1.365740000000000010e-01 5.790680000000000049e+00 5.384055000000000035e+01 1.882070000000000164e+03
7.200000000000000844e-02 1.365790000000000060e-01 5.925279999999999880e+00 5.452335000000000065e+01 1.882105000000000018e+03
7.300000000000000933e-02 1.365965000000000096e-01 6.249264999999999404e+00 5.562784999999999513e+01 1.882269999999999982e+03
7.399999999999999634e-02 1.366284999999999861e-01 6.764465000000000394e+00 5.715425000000000466e+01 1.882574999999999818e+03
7.499999999999999722e-02 1.366740000000000177e-01 7.467475000000000307e+00 5.909000000000000341e+01 1.883014999999999873e+03
7.599999999999999811e-02 1.367329999999999934e-01 8.349909999999999499e+00 6.141125000000000256e+01 1.883594999999999800e+03
7.699999999999999900e-02 1.368050000000000099e-01 9.399100000000000676e+00 6.408400000000000318e+01 1.884309999999999945e+03
7.799999999999999989e-02 1.368894999999999973e-01 1.059862500000000018e+01 6.706669999999999732e+01 1.885139999999999873e+03
7.900000000000000078e-02 1.369839999999999947e-01 1.192945999999999884e+01 7.031235000000000923e+01 1.886085000000000036e+03
8.000000000000000167e-02 1.370885000000000020e-01 1.337086000000000041e+01 7.377139999999999986e+01 1.887130000000000109e+03
8.100000000000000255e-02 1.372015000000000040e-01 1.490119999999999933e+01 7.739419999999999789e+01 1.888259999999999991e+03
8.200000000000000344e-02 1.373205000000000120e-01 1.649889999999999901e+01 8.113325000000000387e+01 1.889454999999999927e+03
8.300000000000000433e-02 1.374444999999999972e-01 1.814334999999999809e+01 8.494525000000000148e+01 1.890704999999999927e+03
8.400000000000000522e-02 1.375730000000000008e-01 1.981550000000000011e+01 8.879249999999998977e+01 1.892000000000000000e+03
8.500000000000000611e-02 1.377030000000000198e-01 2.149814999999999898e+01 9.264359999999999218e+01 1.893320000000000164e+03
8.600000000000000699e-02 1.378344999999999987e-01 2.317650000000000077e+01 9.647435000000000116e+01 1.894659999999999854e+03
8.700000000000000788e-02 1.379664999999999919e-01 2.483789999999999765e+01 1.002667000000000002e+02 1.896005000000000109e+03
8.800000000000000877e-02 1.380985000000000129e-01 2.647214999999999918e+01 1.040086500000000029e+02 1.897349999999999909e+03
8.899999999999999578e-02 1.382295000000000051e-01 2.807079999999999842e+01 1.076929999999999978e+02 1.898695000000000164e+03
8.999999999999999667e-02 1.383595000000000241e-01 2.962730000000000175e+01 1.113170000000000073e+02 1.900029999999999973e+03
9.099999999999999756e-02 1.384885000000000144e-01 3.113644999999999996e+01 1.148790000000000049e+02 1.901349999999999909e+03
9.199999999999999845e-02 1.386155000000000026e-01 3.259389999999999787e+01 1.183790000000000049e+02 1.902664999999999964e+03
9.299999999999999933e-02 1.387410000000000032e-01 3.399604999999999677e+01 1.218154999999999859e+02 1.903960000000000036e+03
9.400000000000000022e-02 1.388645000000000018e-01 3.533965000000000600e+01 1.251889999999999930e+02 1.905235000000000127e+03
9.500000000000000111e-02 1.389865000000000128e-01 3.662165000000000248e+01 1.284954999999999927e+02 1.906500000000000000e+03
9.600000000000000200e-02 1.391060000000000074e-01 3.783910000000000196e+01 1.317319999999999993e+02 1.907744999999999891e+03
9.700000000000000289e-02 1.392229999999999857e-01 3.898904999999999887e+01 1.348915000000000077e+02 1.908965000000000146e+03
9.800000000000000377e-02 1.393385000000000040e-01 4.006839999999999691e+01 1.379664999999999964e+02 1.910159999999999854e+03
9.900000000000000466e-02 1.394505000000000050e-01 4.107424999999999926e+01 1.409484999999999957e+02 1.911329999999999927e+03
1.000000000000000056e-01 1.395595000000000030e-01 4.200365000000000038e+01 1.438285000000000196e+02 1.912470000000000027e+03
1.010000000000000064e-01 1.396649999999999836e-01 4.285374999999999801e+01 1.465960000000000036e+02 1.913574999999999818e+03
1.020000000000000073e-01 1.397674999999999890e-01 4.362180000000000035e+01 1.492404999999999973e+02 1.914644999999999982e+03
1.030000000000000082e-01 1.398650000000000171e-01 4.430535000000000423e+01 1.517539999999999907e+02 1.915675000000000182e+03
1.040000000000000091e-01 1.399590000000000001e-01 4.490189999999999770e+01 1.541250000000000000e+02 1.916654999999999973e+03
1.050000000000000100e-01 1.400469999999999771e-01 4.540949999999999420e+01 1.563455000000000155e+02 1.917595000000000027e+03
1.059999999999999970e-01 1.401310000000000056e-01 4.582614999999999839e+01 1.584064999999999941e+02 1.918474999999999909e+03
1.069999999999999979e-01 1.402094999999999869e-01 4.615030000000000143e+01 1.603009999999999877e+02 1.919305000000000064e+03
1.079999999999999988e-01 1.402820000000000178e-01 4.638085000000000235e+01 1.620209999999999866e+02 1.920074999999999818e+03
1.089999999999999997e-01 1.403490000000000015e-01 4.651704999999999757e+01 1.635615000000000236e+02 1.920785000000000082e+03
1.100000000000000006e-01 1.404095000000000204e-01 4.655880000000000507e+01 1.649180000000000064e+02 1.921430000000000064e+03
1.110000000000000014e-01 1.404639999999999778e-01 4.650654999999999717e+01 1.660875000000000057e+02 1.922005000000000109e+03
1.120000000000000023e-01 1.405119999999999980e-01 4.636180000000000234e+01 1.670699999999999932e+02 1.922519999999999982e+03
1.130000000000000032e-01 1.405534999999999979e-01 4.612675000000000125e+01 1.678659999999999854e+02 1.922965000000000146e+03
1.140000000000000041e-01 1.405879999999999908e-01 4.580450000000000443e+01 1.684795000000000016e+02 1.923345000000000027e+03
1.150000000000000050e-01 1.406164999999999776e-01 4.539945000000000164e+01 1.689159999999999968e+02 1.923650000000000091e+03
1.160000000000000059e-01 1.406395000000000006e-01 4.491675000000000040e+01 1.691859999999999786e+02 1.923900000000000091e+03
1.170000000000000068e-01 1.406560000000000032e-01 4.436254999999999882e+01 1.692980000000000018e+02 1.924079999999999927e+03
1.180000000000000077e-01 1.406664999999999999e-01 4.374374999999999858e+01 1.692660000000000196e+02 1.924204999999999927e+03
1.190000000000000085e-01 1.406725000000000059e-01 4.306794999999999618e+01 1.691049999999999898e+02 1.924269999999999982e+03
1.200000000000000094e-01 1.406729999999999925e-01 4.234324999999999761e+01 1.688299999999999841e+02 1.924289999999999964e+03
1.209999999999999964e-01 1.406699999999999895e-01 4.157795000000000130e+01 1.684569999999999936e+02 1.924259999999999991e+03
1.219999999999999973e-01 1.406620000000000092e-01 4.078034999999999854e+01 1.680029999999999859e+02 1.924190000000000055e+03
1.229999999999999982e-01 1.406514999999999849e-01 3.995860000000000412e+01 1.674834999999999923e+02 1.924090000000000146e+03
1.239999999999999991e-01 1.406384999999999996e-01 3.912040000000000362e+01 1.669125000000000227e+02 1.923954999999999927e+03
1.250000000000000000e-01 1.406229999999999980e-01 3.827284999999999826e+01 1.663040000000000020e+02 1.923795000000000073e+03
1.260000000000000009e-01 1.406060000000000088e-01 3.742229999999999990e+01 1.656689999999999827e+02 1.923615000000000009e+03
1.270000000000000018e-01 1.405870000000000175e-01 3.657435000000000258e+01 1.650174999999999841e+02 1.923420000000000073e+03
1.280000000000000027e-01 1.405665000000000109e-01 3.573349999999999937e+01 1.643559999999999945e+02 1.923210000000000036e+03
1.290000000000000036e-01 1.405464999999999909e-01 3.490324999999999989e+01 1.636904999999999859e+02 1.922994999999999891e+03
1.300000000000000044e-01 1.405250000000000110e-01 3.408620000000000516e+01 1.630235000000000127e+02 1.922769999999999982e+03
1.310000000000000053e-01 1.405035000000000034e-01 3.328379999999999939e+01 1.623555000000000064e+02 1.922545000000000073e+03
1.320000000000000062e-01 1.404805000000000081e-01 3.249674999999999869e+01 1.616859999999999786e+02 1.922309999999999945e+03
1.330000000000000071e-01 1.404584999999999861e-01 3.172475000000000023e+01 1.610124999999999886e+02 1.922070000000000164e+03
1.340000000000000080e-01 1.404354999999999909e-01 3.096675000000000111e+01 1.603310000000000173e+02 1.921829999999999927e+03
1.350000000000000089e-01 1.404119999999999813e-01 3.022119999999999962e+01 1.596359999999999957e+02 1.921585000000000036e+03
1.360000000000000098e-01 1.403874999999999984e-01 2.948580000000000112e+01 1.589219999999999970e+02 1.921329999999999927e+03
1.370000000000000107e-01 1.403630000000000155e-01 2.875809999999999889e+01 1.581825000000000045e+02 1.921070000000000164e+03
1.380000000000000115e-01 1.403375000000000039e-01 2.803529999999999944e+01 1.574114999999999895e+02 1.920795000000000073e+03
1.390000000000000124e-01 1.403099999999999903e-01 2.731455000000000055e+01 1.566030000000000086e+02 1.920509999999999991e+03
1.400000000000000133e-01 1.402815000000000034e-01 2.659309999999999974e+01 1.557515000000000214e+02 1.920215000000000146e+03
1.410000000000000142e-01 1.402519999999999878e-01 2.586834999999999951e+01 1.548509999999999991e+02 1.919900000000000091e+03
1.420000000000000151e-01 1.402209999999999845e-01 2.513810000000000144e+01 1.538985000000000127e+02 1.919574999999999818e+03
1.430000000000000160e-01 1.401874999999999927e-01 2.440054999999999907e+01 1.528915000000000077e+02 1.919230000000000018e+03
1.440000000000000169e-01 1.401525000000000132e-01 2.365435000000000088e+01 1.518280000000000030e+02 1.918860000000000127e+03
1.450000000000000178e-01 1.401160000000000183e-01 2.289900000000000091e+01 1.507090000000000032e+02 1.918474999999999909e+03
1.459999999999999909e-01 1.400775000000000214e-01 2.213445000000000107e+01 1.495355000000000132e+02 1.918075000000000045e+03
1.469999999999999918e-01 1.400365000000000082e-01 2.136155000000000115e+01 1.483115000000000236e+02 1.917654999999999973e+03
1.479999999999999927e-01 1.399945000000000217e-01 2.058169999999999789e+01 1.470425000000000182e+02 1.917210000000000036e+03
1.489999999999999936e-01 1.399504999999999777e-01 1.979710000000000036e+01 1.457339999999999804e+02 1.916750000000000000e+03
1.499999999999999944e-01 1.399055000000000160e-01 1.901060000000000016e+01 1.443949999999999818e+02 1.916279999999999973e+03
1.509999999999999953e-01 1.398590000000000111e-01 1.822560000000000002e+01 1.430335000000000036e+02 1.915800000000000182e+03
1.519999999999999962e-01 1.398119999999999918e-01 1.744590000000000174e+01 1.416610000000000014e+02 1.915305000000000064e+03
1.529999999999999971e-01 1.397639999999999993e-01 1.667569999999999908e+01 1.402869999999999777e+02 1.914809999999999945e+03
1.539999999999999980e-01 1.397160000000000069e-01 1.591944999999999943e+01 1.389225000000000136e+02 1.914309999999999945e+03
1.549999999999999989e-01 1.396680000000000144e-01 1.518149999999999977e+01 1.375790000000000077e+02 1.913809999999999945e+03
1.559999999999999998e-01 1.396209999999999951e-01 1.446630000000000038e+01 1.362654999999999745e+02 1.913320000000000164e+03
1.570000000000000007e-01 1.395740000000000036e-01 1.377799999999999869e+01 1.349929999999999950e+02 1.912829999999999927e+03
1.580000000000000016e-01 1.395290000000000141e-01 1.312040000000000006e+01 1.337684999999999889e+02 1.912360000000000127e+03
1.590000000000000024e-01 1.394849999999999979e-01 1.249680000000000035e+01 1.326014999999999873e+02 1.911905000000000200e+03
