# t [s], A [cm^2], U [cm/s], P [cPa], c [cm/s]
1.000000000000000021e-03 1.682664999999999855e-01 2.628515000000000157e-01 9.695595000000000141e+01 2.196279999999999745e+03
2.000000000000000042e-03 1.682224999999999970e-01 1.710958999999999897e+00 9.365455000000000041e+01 2.195814999999999600e+03
3.000000000000000062e-03 1.681055000000000188e-01 3.537786999999999793e+00 8.896274999999999977e+01 2.194630000000000109e+03
4.000000000000000083e-03 1.679464999999999986e-01 5.617875999999999870e+00 8.380379999999999541e+01 2.193055000000000291e+03
5.000000000000000104e-03 1.677774999999999961e-01 7.872455000000000425e+00 7.916030000000000655e+01 2.191390000000000327e+03
6.000000000000000125e-03 1.676159999999999872e-01 1.010305499999999945e+01 7.534479999999999222e+01 2.189819999999999709e+03
7.000000000000000146e-03 1.674654999999999894e-01 1.206926500000000146e+01 7.205125000000001023e+01 2.188390000000000327e+03
8.000000000000000167e-03 1.673279999999999768e-01 1.369865000000000066e+01 6.906000000000000227e+01 2.187105000000000018e+03
9.000000000000001055e-03 1.672079999999999955e-01 1.504214999999999947e+01 6.647929999999999495e+01 2.186005000000000109e+03
1.000000000000000194e-02 1.671084999999999932e-01 1.613504999999999967e+01 6.439154999999999518e+01 2.185090000000000146e+03
1.099999999999999936e-02 1.670285000000000242e-01 1.699734999999999729e+01 6.276894999999999669e+01 2.184369999999999891e+03
1.200000000000000025e-02 1.669660000000000033e-01 1.764334999999999809e+01 6.153654999999999831e+01 2.183815000000000055e+03
1.300000000000000114e-02 1.669160000000000088e-01 1.806895000000000095e+01 6.054690000000000083e+01 2.183385000000000218e+03
1.400000000000000203e-02 1.668744999999999812e-01 1.829299999999999926e+01 5.966009999999999991e+01 2.183029999999999745e+03
1.499999999999999944e-02 1.668419999999999903e-01 1.842040000000000077e+01 5.895674999999999955e+01 2.182755000000000109e+03
1.600000000000000033e-02 1.668255000000000154e-01 1.863125000000000142e+01 5.880889999999999418e+01 2.182625000000000000e+03
1.700000000000000122e-02 1.668350000000000111e-01 1.908689999999999998e+01 5.966660000000000252e+01 2.182715000000000146e+03
1.800000000000000211e-02 1.668775000000000119e-01 1.983024999999999949e+01 6.172410000000000707e+01 2.183105000000000018e+03
1.900000000000000300e-02 1.669495000000000007e-01 2.075469999999999970e+01 6.472565000000000168e+01 2.183760000000000218e+03
2.000000000000000042e-02 1.670380000000000198e-01 2.165259999999999962e+01 6.802764999999999418e+01 2.184574999999999818e+03
2.100000000000000130e-02 1.671245000000000092e-01 2.230774999999999864e+01 7.085705000000000098e+01 2.185390000000000327e+03
2.200000000000000219e-02 1.671914999999999929e-01 2.258010000000000161e+01 7.261150000000000659e+01 2.186034999999999854e+03
2.299999999999999961e-02 1.672295000000000031e-01 2.244910000000000139e+01 7.306250000000000000e+01 2.186425000000000182e+03
2.400000000000000050e-02 1.672369999999999968e-01 2.200384999999999991e+01 7.238830000000000098e+01 2.186524999999999636e+03
2.500000000000000139e-02 1.672219999999999818e-01 2.139220000000000255e+01 7.104695000000000960e+01 2.186409999999999854e+03
2.600000000000000228e-02 1.671944999999999959e-01 2.075594999999999857e+01 6.956219999999999004e+01 2.186164999999999964e+03
2.700000000000000316e-02 1.671654999999999947e-01 2.018029999999999902e+01 6.832120000000000459e+01 2.185894999999999982e+03
2.800000000000000058e-02 1.671404999999999974e-01 1.967379999999999995e+01 6.745969999999999800e+01 2.185664999999999964e+03
2.900000000000000147e-02 1.671195000000000042e-01 1.918140000000000001e+01 6.686195000000000732e+01 2.185465000000000146e+03
3.000000000000000236e-02 1.670999999999999985e-01 1.861970000000000169e+01 6.625504999999999711e+01 2.185284999999999854e+03
3.099999999999999978e-02 1.670745000000000147e-01 1.791969999999999885e+01 6.535179999999999723e+01 2.185050000000000182e+03
3.200000000000000067e-02 1.670379999999999920e-01 1.706255000000000166e+01 6.398700000000000188e+01 2.184724999999999909e+03
3.300000000000000155e-02 1.669904999999999862e-01 1.609559999999999746e+01 6.220309999999999917e+01 2.184295000000000073e+03
3.400000000000000244e-02 1.669355000000000144e-01 1.512509999999999977e+01 6.025645000000000095e+01 2.183789999999999964e+03
3.500000000000000333e-02 1.668824999999999892e-01 1.428635000000000055e+01 5.854370000000000118e+01 2.183300000000000182e+03
3.600000000000000422e-02 1.668410000000000171e-01 1.370434999999999981e+01 5.747760000000000247e+01 2.182909999999999854e+03
3.700000000000000511e-02 1.668215000000000114e-01 1.345694999999999908e+01 5.735654999999999859e+01 2.182704999999999927e+03
3.799999999999999906e-02 1.668280000000000041e-01 1.355419999999999980e+01 5.827429999999999666e+01 2.182744999999999891e+03
3.899999999999999994e-02 1.668610000000000093e-01 1.393689999999999962e+01 6.009279999999999688e+01 2.183024999999999636e+03
4.000000000000000083e-02 1.669149999999999801e-01 1.449289999999999878e+01 6.248019999999999641e+01 2.183500000000000000e+03
4.100000000000000172e-02 1.669800000000000173e-01 1.508349999999999902e+01 6.499314999999999998e+01 2.184090000000000146e+03
4.200000000000000261e-02 1.670444999999999847e-01 1.557179999999999964e+01 6.717549999999999955e+01 2.184684999999999945e+03
4.300000000000000350e-02 1.670969999999999955e-01 1.584629999999999939e+01 6.864664999999999395e+01 2.185175000000000182e+03
4.400000000000000439e-02 1.671285000000000132e-01 1.583505000000000074e+01 6.916060000000000230e+01 2.185489999999999782e+03
4.499999999999999833e-02 1.671345000000000192e-01 1.550959999999999894e+01 6.862770000000000437e+01 2.185559999999999945e+03
4.599999999999999922e-02 1.671119999999999828e-01 1.488005000000000067e+01 6.710120000000000573e+01 2.185369999999999891e+03
4.700000000000000011e-02 1.670635000000000037e-01 1.398385000000000034e+01 6.473845000000000027e+01 2.184935000000000400e+03
4.800000000000000100e-02 1.669920000000000015e-01 1.287361999999999895e+01 6.175159999999999627e+01 2.184284999999999854e+03
4.900000000000000189e-02 1.669034999999999824e-01 1.160576500000000166e+01 5.836154999999999404e+01 2.183480000000000018e+03
5.000000000000000278e-02 1.668030000000000068e-01 1.023361000000000054e+01 5.476565000000000083e+01 2.182554999999999836e+03
5.100000000000000366e-02 1.666960000000000108e-01 8.804680000000001172e+00 5.112270000000000181e+01 2.181569999999999709e+03
5.200000000000000455e-02 1.665864999999999985e-01 7.361560000000000770e+00 4.755395000000000039e+01 2.180554999999999836e+03
5.300000000000000544e-02 1.664775000000000005e-01 5.944634999999999891e+00 4.415460000000000207e+01 2.179545000000000073e+03
5.399999999999999939e-02 1.663729999999999931e-01 4.595264999999999489e+00 4.100925000000000153e+01 2.178574999999999818e+03
5.500000000000000028e-02 1.662764999999999938e-01 3.357777000000000012e+00 3.820490000000000208e+01 2.177675000000000182e+03
5.600000000000000117e-02 1.661900000000000044e-01 2.279591499999999993e+00 3.583774999999999977e+01 2.176860000000000127e+03
5.700000000000000205e-02 1.661170000000000146e-01 1.409405999999999937e+00 3.401309999999999434e+01 2.176175000000000182e+03
5.800000000000000294e-02 1.660610000000000142e-01 7.937994999999999912e-01 3.283769999999999811e+01 2.175644999999999982e+03
5.900000000000000383e-02 1.660265000000000213e-01 4.730855000000000476e-01 3.240840000000000032e+01 2.175300000000000182e+03
6.000000000000000472e-02 1.660145000000000093e-01 4.772970000000000268e-01 3.279939999999999856e+01 2.175164999999999964e+03
6.099999999999999867e-02 1.660274999999999945e-01 8.230800000000000338e-01 3.405169999999999675e+01 2.175264999999999873e+03
6.199999999999999956e-02 1.660669999999999924e-01 1.511985450000000064e+00 3.616639999999999588e+01 2.175600000000000364e+03
6.300000000000000044e-02 1.661324999999999885e-01 2.530321000000000264e+00 3.910289999999999822e+01 2.176184999999999945e+03
6.400000000000000133e-02 1.662224999999999953e-01 3.850389999999999979e+00 4.278229999999999933e+01 2.176989999999999782e+03
6.500000000000000222e-02 1.663354999999999972e-01 5.432800000000000296e+00 4.709409999999999741e+01 2.178010000000000218e+03
6.600000000000000311e-02 1.664664999999999895e-01 7.229474999999999874e+00 5.190569999999999595e+01 2.179210000000000036e+03
6.700000000000000400e-02 1.666140000000000121e-01 9.186975000000000335e+00 5.707254999999999967e+01 2.180559999999999945e+03
6.800000000000000488e-02 1.667720000000000036e-01 1.124986999999999959e+01 6.244869999999999521e+01 2.182014999999999873e+03
6.900000000000000577e-02 1.669370000000000021e-01 1.336433000000000071e+01 6.789624999999999488e+01 2.183550000000000182e+03
7.000000000000000666e-02 1.671050000000000035e-01 1.548069999999999879e+01 7.329429999999999268e+01 2.185109999999999673e+03
7.100000000000000755e-02 1.672720000000000040e-01 1.755675000000000097e+01 7.854525000000001000e+01 2.186675000000000182e+03
7.200000000000000844e-02 1.674364999999999881e-01 1.955904999999999916e+01 8.357984999999999332e+01 2.188215000000000146e+03
7.300000000000000933e-02 1.675955000000000084e-01 2.146450000000000102e+01 8.835909999999999798e+01 2.189710000000000036e+03
7.399999999999999634e-02 1.677474999999999938e-01 2.326024999999999920e+01 9.287364999999999782e+01 2.191150000000000091e+03
7.499999999999999722e-02 1.678930000000000144e-01 2.494319999999999737e+01 9.714134999999998854e+01 2.192525000000000091e+03
7.599999999999999811e-02 1.680325000000000013e-01 2.651825000000000188e+01 1.011983999999999924e+02 2.193845000000000255e+03
7.699999999999999900e-02 1.681664999999999965e-01 2.799640000000000128e+01 1.050963999999999885e+02 2.195119999999999891e+03
7.799999999999999989e-02 1.682960000000000012e-01 2.939205000000000112e+01 1.088909999999999911e+02 2.196360000000000127e+03
7.900000000000000078e-02 1.684235000000000038e-01 3.072064999999999912e+01 1.126359999999999957e+02 2.197565000000000055e+03
8.000000000000000167e-02 1.685495000000000188e-01 3.199695000000000178e+01 1.163760000000000048e+02 2.198765000000000327e+03
8.100000000000000255e-02 1.686745000000000050e-01 3.323275000000000290e+01 1.201419999999999959e+02 2.199960000000000036e+03
8.200000000000000344e-02 1.688010000000000066e-01 3.443630000000000280e+01 1.239509999999999934e+02 2.201159999999999854e+03
8.300000000000000433e-02 1.689275000000000082e-01 3.561140000000000327e+01 1.278029999999999973e+02 2.202369999999999891e+03
8.400000000000000522e-02 1.690550000000000108e-01 3.675735000000000241e+01 1.316825000000000045e+02 2.203590000000000146e+03
8.500000000000000611e-02 1.691830000000000001e-01 3.786934999999999718e+01 1.355614999999999952e+02 2.204809999999999945e+03
8.600000000000000699e-02 1.693105000000000027e-01 3.893885000000000218e+01 1.394019999999999868e+02 2.206025000000000091e+03
8.700000000000000788e-02 1.694360000000000033e-01 3.995445000000000135e+01 1.431589999999999918e+02 2.207224999999999909e+03
8.800000000000000877e-02 1.695585000000000009e-01 4.090269999999999584e+01 1.467845000000000084e+02 2.208400000000000091e+03
8.899999999999999578e-02 1.696770000000000223e-01 4.176895000000000380e+01 1.502284999999999968e+02 2.209529999999999745e+03
8.999999999999999667e-02 1.697885000000000089e-01 4.253820000000000334e+01 1.534424999999999955e+02 2.210605000000000018e+03
9.099999999999999756e-02 1.698935000000000028e-01 4.319604999999999961e+01 1.563820000000000050e+02 2.211614999999999782e+03
9.199999999999999845e-02 1.699890000000000012e-01 4.372939999999999827e+01 1.590090000000000146e+02 2.212539999999999964e+03
9.299999999999999933e-02 1.700754999999999906e-01 4.412734999999999985e+01 1.612914999999999850e+02 2.213375000000000000e+03
9.400000000000000022e-02 1.701505000000000101e-01 4.438190000000000168e+01 1.632080000000000268e+02 2.214105000000000018e+03
9.500000000000000111e-02 1.702144999999999908e-01 4.448860000000000525e+01 1.647459999999999809e+02 2.214729999999999563e+03
9.600000000000000200e-02 1.702670000000000017e-01 4.444684999999999775e+01 1.659044999999999845e+02 2.215244999999999891e+03
9.700000000000000289e-02 1.703069999999999862e-01 4.426014999999999588e+01 1.666929999999999836e+02 2.215644999999999982e+03
9.800000000000000377e-02 1.703365000000000018e-01 4.393619999999999948e+01 1.671324999999999932e+02 2.215939999999999600e+03
9.900000000000000466e-02 1.703545000000000198e-01 4.348645000000000493e+01 1.672539999999999907e+02 2.216125000000000000e+03
1.000000000000000056e-01 1.703629999999999867e-01 4.292579999999999529e+01 1.670949999999999989e+02 2.216215000000000146e+03
1.010000000000000064e-01 1.703625000000000000e-01 4.227139999999999986e+01 1.667010000000000218e+02 2.216219999999999800e+03
1.020000000000000073e-01 1.703540000000000054e-01 4.154240000000000066e+01 1.661195000000000164e+02 2.216159999999999854e+03
1.030000000000000082e-01 1.703405000000000058e-01 4.075824999999999676e+01 1.653990000000000009e+02 2.216034999999999854e+03
1.040000000000000091e-01 1.703224999999999878e-01 3.993864999999999554e+01 1.645885000000000105e+02 2.215859999999999673e+03
1.050000000000000100e-01 1.703004999999999936e-01 3.910210000000000008e+01 1.637299999999999898e+02 2.215664999999999964e+03
1.059999999999999970e-01 1.702770000000000117e-01 3.826529999999999632e+01 1.628619999999999948e+02 2.215440000000000055e+03
1.069999999999999979e-01 1.702525000000000011e-01 3.744259999999999877e+01 1.620174999999999841e+02 2.215210000000000036e+03
1.079999999999999988e-01 1.702285000000000048e-01 3.664549999999999841e+01 1.612185000000000059e+02 2.214980000000000018e+03
1.089999999999999997e-01 1.702049999999999952e-01 3.588240000000000407e+01 1.604809999999999945e+02 2.214755000000000109e+03
1.100000000000000006e-01 1.701830000000000009e-01 3.515814999999999912e+01 1.598125000000000000e+02 2.214539999999999964e+03
1.110000000000000014e-01 1.701630000000000087e-01 3.447444999999999737e+01 1.592105000000000246e+02 2.214340000000000146e+03
1.120000000000000023e-01 1.701439999999999897e-01 3.382949999999999591e+01 1.586664999999999850e+02 2.214154999999999745e+03
1.130000000000000032e-01 1.701259999999999994e-01 3.321875000000000000e+01 1.581649999999999920e+02 2.213984999999999673e+03
1.140000000000000041e-01 1.701094999999999968e-01 3.263499999999999801e+01 1.576834999999999809e+02 2.213824999999999818e+03
1.150000000000000050e-01 1.700935000000000086e-01 3.206905000000000427e+01 1.571965000000000146e+02 2.213664999999999964e+03
1.160000000000000059e-01 1.700764999999999916e-01 3.151044999999999874e+01 1.566759999999999877e+02 2.213500000000000000e+03
1.170000000000000068e-01 1.700579999999999870e-01 3.094805000000000206e+01 1.560935000000000059e+02 2.213324999999999818e+03
1.180000000000000077e-01 1.700380000000000225e-01 3.037084999999999724e+01 1.554209999999999923e+02 2.213125000000000000e+03
1.190000000000000085e-01 1.700145000000000128e-01 2.976885000000000048e+01 1.546334999999999980e+02 2.212904999999999745e+03
1.200000000000000094e-01 1.699884999999999868e-01 2.913329999999999842e+01 1.537125000000000057e+02 2.212649999999999636e+03
1.209999999999999964e-01 1.699569999999999970e-01 2.845775000000000077e+01 1.526444999999999936e+02 2.212359999999999673e+03
1.219999999999999973e-01 1.699219999999999897e-01 2.773835000000000051e+01 1.514230000000000018e+02 2.212024999999999636e+03
1.229999999999999982e-01 1.698824999999999918e-01 2.697404999999999831e+01 1.500494999999999948e+02 2.211644999999999982e+03
1.239999999999999991e-01 1.698379999999999890e-01 2.616685000000000016e+01 1.485339999999999918e+02 2.211230000000000018e+03
1.250000000000000000e-01 1.697889999999999955e-01 2.532179999999999964e+01 1.468934999999999889e+02 2.210765000000000327e+03
1.260000000000000009e-01 1.697369999999999990e-01 2.444660000000000011e+01 1.451530000000000200e+02 2.210269999999999982e+03
1.270000000000000018e-01 1.696819999999999995e-01 2.355144999999999911e+01 1.433419999999999845e+02 2.209750000000000000e+03
1.280000000000000027e-01 1.696245000000000114e-01 2.264835000000000065e+01 1.414944999999999879e+02 2.209204999999999927e+03
1.290000000000000036e-01 1.695665000000000089e-01 2.175050000000000239e+01 1.396474999999999795e+02 2.208644999999999982e+03
1.300000000000000044e-01 1.695085000000000064e-01 2.087165000000000248e+01 1.378385000000000105e+02 2.208094999999999800e+03
1.310000000000000053e-01 1.694514999999999771e-01 2.002535000000000309e+01 1.361024999999999920e+02 2.207550000000000182e+03
1.320000000000000062e-01 1.693965000000000054e-01 1.922409999999999997e+01 1.344714999999999918e+02 2.207029999999999745e+03
1.330000000000000071e-01 1.693449999999999955e-01 1.847905000000000086e+01 1.329739999999999895e+02 2.206530000000000200e+03
1.340000000000000080e-01 1.692970000000000030e-01 1.779915000000000092e+01 1.316304999999999836e+02 2.206074999999999818e+03
1.350000000000000089e-01 1.692540000000000155e-01 1.719120000000000203e+01 1.304565000000000055e+02 2.205659999999999854e+03
1.360000000000000098e-01 1.692159999999999775e-01 1.665930000000000177e+01 1.294594999999999914e+02 2.205295000000000073e+03
1.370000000000000107e-01 1.691834999999999867e-01 1.620499999999999829e+01 1.286415000000000077e+02 2.204974999999999909e+03
1.380000000000000115e-01 1.691555000000000142e-01 1.582745000000000068e+01 1.279959999999999951e+02 2.204704999999999927e+03
1.390000000000000124e-01 1.691334999999999922e-01 1.552349999999999852e+01 1.275139999999999958e+02 2.204485000000000127e+03
1.400000000000000133e-01 1.691165000000000029e-01 1.528824999999999967e+01 1.271799999999999926e+02 2.204315000000000055e+03
1.410000000000000142e-01 1.691040000000000043e-01 1.511514999999999986e+01 1.269765000000000015e+02 2.204190000000000055e+03
1.420000000000000151e-01 1.690949999999999953e-01 1.499665000000000070e+01 1.268830000000000098e+02 2.204105000000000018e+03
1.430000000000000160e-01 1.690895000000000037e-01 1.492445000000000022e+01 1.268805000000000121e+02 2.204045000000000073e+03
1.440000000000000169e-01 1.690875000000000017e-01 1.488994999999999891e+01 1.269470000000000027e+02 2.204019999999999982e+03
1.450000000000000178e-01 1.690875000000000017e-01 1.488449999999999918e+01 1.270629999999999882e+02 2.204014999999999873e+03
1.459999999999999909e-01 1.690895000000000037e-01 1.489989999999999881e+01 1.272104999999999961e+02 2.204024999999999636e+03
1.469999999999999918e-01 1.690919999999999923e-01 1.492835000000000001e+01 1.273729999999999905e+02 2.204045000000000073e+03
1.479999999999999927e-01 1.690949999999999953e-01 1.496304999999999907e+01 1.275364999999999895e+02 2.204079999999999927e+03
1.489999999999999936e-01 1.690989999999999993e-01 1.499794999999999945e+01 1.276895000000000095e+02 2.204114999999999782e+03
1.499999999999999944e-01 1.691024999999999889e-01 1.502820000000000000e+01 1.278230000000000075e+02 2.204144999999999982e+03
1.509999999999999953e-01 1.691059999999999786e-01 1.504994999999999905e+01 1.279304999999999950e+02 2.204175000000000182e+03
1.519999999999999962e-01 1.691084999999999949e-01 1.506074999999999875e+01 1.280095000000000027e+02 2.204204999999999927e+03
1.529999999999999971e-01 1.691104999999999969e-01 1.505904999999999916e+01 1.280579999999999927e+02 2.204220000000000255e+03
1.539999999999999980e-01 1.691119999999999846e-01 1.504459999999999908e+01 1.280790000000000077e+02 2.204235000000000127e+03
1.549999999999999989e-01 1.691124999999999989e-01 1.501804999999999879e+01 1.280745000000000005e+02 2.204234999999999673e+03
1.559999999999999998e-01 1.691119999999999846e-01 1.498085000000000022e+01 1.280509999999999877e+02 2.204239999999999782e+03
1.570000000000000007e-01 1.691114999999999979e-01 1.493505000000000038e+01 1.280150000000000148e+02 2.204234999999999673e+03
1.580000000000000016e-01 1.691104999999999969e-01 1.488335000000000008e+01 1.279724999999999966e+02 2.204224999999999909e+03
1.590000000000000024e-01 1.691095000000000237e-01 1.482835000000000036e+01 1.279309999999999832e+02 2.204215000000000146e+03
