# t [s], A [cm^2], U [cm/s], P [cPa], c [cm/s]
1.000000000000000021e-03 8.061599999999999877e-01 6.796000000000003427e-03 1.016684999999999945e+02 1.763170000000000073e+03
2.000000000000000042e-03 8.061479999999999757e-01 7.251449999999999563e-04 1.016340000000000003e+02 1.763164999999999964e+03
3.000000000000000062e-03 8.062294999999999323e-01 1.292027000000000037e-01 1.017865000000000038e+02 1.763195000000000164e+03
4.000000000000000083e-03 8.062739999999999352e-01 2.196049999999999947e-01 1.018979999999999961e+02 1.763214999999999918e+03
5.000000000000000104e-03 8.062025000000000441e-01 1.438440000000000274e-01 1.017295000000000016e+02 1.763184999999999945e+03
6.000000000000000125e-03 8.061110000000000220e-01 2.838000000000001632e-02 1.014054999999999893e+02 1.763119999999999891e+03
7.000000000000000146e-03 8.060194999999999999e-01 -9.992999999999996330e-02 1.009979999999999905e+02 1.763034999999999854e+03
8.000000000000000167e-03 8.058484999999999676e-01 -3.696699999999999431e-01 1.003382000000000005e+02 1.762904999999999973e+03
9.000000000000001055e-03 8.055885000000000407e-01 -7.997600000000000264e-01 9.935144999999999982e+01 1.762710000000000036e+03
1.000000000000000194e-02 8.052234999999999809e-01 -1.403370000000000228e+00 9.796819999999999595e+01 1.762429999999999836e+03
1.099999999999999936e-02 8.047230000000000771e-01 -2.210250000000000270e+00 9.608790000000000475e+01 1.762054999999999836e+03
1.200000000000000025e-02 8.041194999999999871e-01 -3.143355000000000121e+00 9.375094999999998890e+01 1.761569999999999936e+03
1.300000000000000114e-02 8.035200000000000120e-01 -3.997670499999999905e+00 9.121684999999999377e+01 1.761029999999999973e+03
1.400000000000000203e-02 8.030319999999999681e-01 -4.559019300000000108e+00 8.882965000000000089e+01 1.760494999999999891e+03
1.499999999999999944e-02 8.026955000000000062e-01 -4.720152500000000195e+00 8.682654999999999745e+01 1.760014999999999873e+03
1.600000000000000033e-02 8.024774999999999547e-01 -4.509134999999999671e+00 8.525005000000000166e+01 1.759610000000000127e+03
1.700000000000000122e-02 8.023004999999999720e-01 -4.047139999999999738e+00 8.396899999999999409e+01 1.759255000000000109e+03
1.800000000000000211e-02 8.020849999999999369e-01 -3.480100000000000193e+00 8.276704999999999757e+01 1.758920000000000073e+03
1.900000000000000300e-02 8.017819999999999947e-01 -2.916704000000000185e+00 8.144585000000000719e+01 1.758565000000000055e+03
2.000000000000000042e-02 8.013879999999999892e-01 -2.393168499999999810e+00 7.990420000000000300e+01 1.758164999999999964e+03
2.100000000000000130e-02 8.009364999999999402e-01 -1.876454999999999762e+00 7.816235000000000355e+01 1.757735000000000127e+03
2.200000000000000219e-02 8.004774999999999530e-01 -1.300784999999999858e+00 7.632585000000000264e+01 1.757280000000000200e+03
2.299999999999999961e-02 8.000495000000000800e-01 -6.156099999999999905e-01 7.451539999999999964e+01 1.756825000000000045e+03
2.400000000000000050e-02 7.996589999999998977e-01 1.790900000000004155e-01 7.279919999999999902e+01 1.756384999999999991e+03
2.500000000000000139e-02 7.992820000000000480e-01 1.022000000000000242e+00 7.115475000000000705e+01 1.755960000000000036e+03
2.600000000000000228e-02 7.988690000000000513e-01 1.803254999999999830e+00 6.946940000000000737e+01 1.755525000000000091e+03
2.700000000000000316e-02 7.983635000000000037e-01 2.393279999999999852e+00 6.757165000000000532e+01 1.755050000000000182e+03
2.800000000000000058e-02 7.977195000000000258e-01 2.678900000000000059e+00 6.528509999999999991e+01 1.754505000000000109e+03
2.900000000000000147e-02 7.969180000000000152e-01 2.596349999999999714e+00 6.248754999999999882e+01 1.753869999999999891e+03
3.000000000000000236e-02 7.959739999999999593e-01 2.150525000000000464e+00 5.915684999999999860e+01 1.753119999999999891e+03
3.099999999999999978e-02 7.949360000000000870e-01 1.413105000000000722e+00 5.538674999999999926e+01 1.752280000000000200e+03
3.200000000000000067e-02 7.938719999999999111e-01 5.012700000000007705e-01 5.136835000000000662e+01 1.751380000000000109e+03
3.300000000000000155e-02 7.928524999999999601e-01 -4.524650000000001171e-01 4.734754999999999825e+01 1.750465000000000146e+03
3.400000000000000244e-02 7.919389999999999485e-01 -1.328235000000000277e+00 4.357550000000000523e+01 1.749595000000000027e+03
3.500000000000000333e-02 7.911740000000000439e-01 -2.036229999999999762e+00 4.026850000000000307e+01 1.748800000000000182e+03
3.600000000000000422e-02 7.905815000000000481e-01 -2.522624999999999673e+00 3.758294999999999675e+01 1.748134999999999991e+03
3.700000000000000511e-02 7.901675000000000226e-01 -2.766189999999999927e+00 3.560745000000000005e+01 1.747615000000000009e+03
3.799999999999999906e-02 7.899270000000000458e-01 -2.768469500000000139e+00 3.436969999999999459e+01 1.747255000000000109e+03
3.899999999999999994e-02 7.898475000000000357e-01 -2.542270000000000252e+00 3.385240000000000293e+01 1.747049999999999955e+03
4.000000000000000083e-02 7.899175000000000502e-01 -2.101250000000000284e+00 3.401290000000000191e+01 1.747009999999999991e+03
4.100000000000000172e-02 7.901259999999999950e-01 -1.453529999999999767e+00 3.480049999999999955e+01 1.747115000000000009e+03
4.200000000000000261e-02 7.904664999999999608e-01 -6.004650000000000265e-01 3.616794999999999760e+01 1.747355000000000018e+03
4.300000000000000350e-02 7.909329999999999972e-01 4.599550000000003358e-01 3.807399999999999807e+01 1.747730000000000018e+03
4.400000000000000439e-02 7.915194999999999315e-01 1.727154999999999774e+00 4.047964999999999947e+01 1.748219999999999800e+03
4.499999999999999833e-02 7.922160000000000313e-01 3.192090000000000316e+00 4.334125000000000227e+01 1.748824999999999818e+03
4.599999999999999922e-02 7.930079999999999352e-01 4.833515000000000228e+00 4.660370000000000346e+01 1.749525000000000091e+03
4.700000000000000011e-02 7.938739999999999686e-01 6.617375000000000007e+00 5.019689999999999941e+01 1.750309999999999945e+03
4.800000000000000100e-02 7.947919999999999430e-01 8.499309849999999500e+00 5.403679999999999950e+01 1.751159999999999854e+03
4.900000000000000189e-02 7.957369999999999166e-01 1.042897000000000141e+01 5.802960000000000207e+01 1.752065000000000055e+03
5.000000000000000278e-02 7.966839999999999478e-01 1.235544999999999938e+01 6.207930000000000348e+01 1.752985000000000127e+03
5.100000000000000366e-02 7.976134999999999753e-01 1.423240499999999997e+01 6.609614999999999441e+01 1.753920000000000073e+03
5.200000000000000455e-02 7.985085000000000655e-01 1.602167000000000030e+01 7.000370000000000914e+01 1.754839999999999918e+03
5.300000000000000544e-02 7.993584999999999718e-01 1.769545000000000101e+01 7.374424999999999386e+01 1.755730000000000018e+03
5.399999999999999939e-02 8.001595000000000235e-01 1.923700000000000188e+01 7.728185000000000571e+01 1.756585000000000036e+03
5.500000000000000028e-02 8.009105000000000807e-01 2.063974999999999937e+01 8.060169999999999391e+01 1.757400000000000091e+03
5.600000000000000117e-02 8.016164999999999541e-01 2.190530000000000044e+01 8.370834999999999582e+01 1.758170000000000073e+03
5.700000000000000205e-02 8.022835000000000383e-01 2.304209999999999781e+01 8.662194999999999823e+01 1.758900000000000091e+03
5.800000000000000294e-02 8.029204999999999259e-01 2.406289999999999907e+01 8.937420000000000186e+01 1.759590000000000146e+03
5.900000000000000383e-02 8.035369999999999457e-01 2.498329999999999984e+01 9.200379999999999825e+01 1.760250000000000000e+03
6.000000000000000472e-02 8.041424999999999823e-01 2.582039999999999935e+01 9.455205000000000837e+01 1.760894999999999982e+03
6.099999999999999867e-02 8.047465000000000312e-01 2.659060000000000201e+01 9.705979999999999563e+01 1.761519999999999982e+03
6.199999999999999956e-02 8.053555000000000019e-01 2.730884999999999962e+01 9.956225000000000591e+01 1.762150000000000091e+03
6.300000000000000044e-02 8.059745000000000381e-01 2.798720000000000141e+01 1.020857500000000044e+02 1.762769999999999982e+03
6.400000000000000133e-02 8.066055000000000863e-01 2.863329999999999842e+01 1.046475000000000080e+02 1.763404999999999973e+03
6.500000000000000222e-02 8.072485000000000355e-01 2.925025000000000119e+01 1.072504999999999882e+02 1.764045000000000073e+03
6.600000000000000311e-02 8.078980000000000050e-01 2.983614999999999995e+01 1.098859999999999957e+02 1.764695000000000164e+03
6.700000000000000400e-02 8.085489999999999622e-01 3.038470000000000226e+01 1.125319999999999965e+02 1.765339999999999918e+03
6.800000000000000488e-02 8.091919999999999114e-01 3.088605000000000089e+01 1.151595000000000084e+02 1.765985000000000127e+03
6.900000000000000577e-02 8.098170000000000091e-01 3.132795000000000130e+01 1.177284999999999968e+02 1.766619999999999891e+03
7.000000000000000666e-02 8.104149999999999965e-01 3.169744999999999990e+01 1.201989999999999981e+02 1.767230000000000018e+03
7.100000000000000755e-02 8.109750000000000014e-01 3.198185000000000144e+01 1.225285000000000082e+02 1.767815000000000055e+03
7.200000000000000844e-02 8.114894999999999747e-01 3.216979999999999507e+01 1.246795000000000044e+02 1.768355000000000018e+03
7.300000000000000933e-02 8.119499999999999496e-01 3.225234999999999985e+01 1.266179999999999950e+02 1.768855000000000018e+03
7.399999999999999634e-02 8.123525000000000329e-01 3.222314999999999685e+01 1.283185000000000002e+02 1.769299999999999955e+03
7.499999999999999722e-02 8.126940000000000275e-01 3.207909999999999684e+01 1.297620000000000005e+02 1.769684999999999945e+03
7.599999999999999811e-02 8.129720000000000280e-01 3.182014999999999816e+01 1.309404999999999859e+02 1.770009999999999991e+03
7.699999999999999900e-02 8.131869999999999932e-01 3.144960000000000022e+01 1.318520000000000039e+02 1.770275000000000091e+03
7.799999999999999989e-02 8.133425000000000793e-01 3.097370000000000090e+01 1.325054999999999836e+02 1.770470000000000027e+03
7.900000000000000078e-02 8.134419999999999984e-01 3.040174999999999983e+01 1.329155000000000086e+02 1.770615000000000009e+03
8.000000000000000167e-02 8.134915000000000340e-01 2.974569999999999936e+01 1.331039999999999850e+02 1.770704999999999927e+03
8.100000000000000255e-02 8.134970000000000256e-01 2.901970000000000027e+01 1.330980000000000132e+02 1.770740000000000009e+03
8.200000000000000344e-02 8.134669999999999401e-01 2.823965000000000103e+01 1.329300000000000068e+02 1.770740000000000009e+03
8.300000000000000433e-02 8.134090000000000487e-01 2.742229999999999990e+01 1.326329999999999814e+02 1.770699999999999818e+03
8.400000000000000522e-02 8.133319999999999439e-01 2.658489999999999753e+01 1.322425000000000068e+02 1.770630000000000109e+03
8.500000000000000611e-02 8.132429999999999382e-01 2.574395000000000167e+01 1.317934999999999945e+02 1.770545000000000073e+03
8.600000000000000699e-02 8.131494999999999695e-01 2.491474999999999795e+01 1.313170000000000073e+02 1.770449999999999818e+03
8.700000000000000788e-02 8.130579999999999474e-01 2.411030000000000229e+01 1.308414999999999964e+02 1.770340000000000146e+03
8.800000000000000877e-02 8.129735000000000156e-01 2.334105000000000274e+01 1.303905000000000030e+02 1.770240000000000009e+03
8.899999999999999578e-02 8.128980000000000095e-01 2.261414999999999864e+01 1.299795000000000016e+02 1.770144999999999982e+03
8.999999999999999667e-02 8.128330000000000277e-01 2.193330000000000268e+01 1.296189999999999998e+02 1.770059999999999945e+03
9.099999999999999756e-02 8.127790000000000292e-01 2.129909999999999926e+01 1.293114999999999952e+02 1.769980000000000018e+03
9.199999999999999845e-02 8.127349999999999852e-01 2.070875000000000199e+01 1.290529999999999973e+02 1.769910000000000082e+03
9.299999999999999933e-02 8.126970000000000027e-01 2.015684999999999860e+01 1.288344999999999914e+02 1.769849999999999909e+03
9.400000000000000022e-02 8.126614999999999256e-01 1.963575000000000159e+01 1.286419999999999959e+02 1.769799999999999955e+03
9.500000000000000111e-02 8.126244999999999719e-01 1.913609999999999900e+01 1.284569999999999936e+02 1.769744999999999891e+03
9.600000000000000200e-02 8.125804999999999279e-01 1.864775000000000205e+01 1.282595000000000027e+02 1.769690000000000055e+03
9.700000000000000289e-02 8.125260000000000815e-01 1.816015000000000157e+01 1.280295000000000130e+02 1.769630000000000109e+03
9.800000000000000377e-02 8.124549999999999272e-01 1.766300000000000026e+01 1.277459999999999951e+02 1.769565000000000055e+03
9.900000000000000466e-02 8.123639999999999750e-01 1.714705000000000013e+01 1.273919999999999959e+02 1.769474999999999909e+03
1.000000000000000056e-01 8.122504999999999864e-01 1.660464999999999947e+01 1.269519999999999982e+02 1.769375000000000000e+03
1.010000000000000064e-01 8.121119999999999450e-01 1.603020000000000067e+01 1.264159999999999968e+02 1.769255000000000109e+03
1.020000000000000073e-01 8.119484999999999619e-01 1.542040000000000077e+01 1.257775000000000034e+02 1.769110000000000127e+03
1.030000000000000082e-01 8.117604999999999960e-01 1.477495000000000047e+01 1.250374999999999943e+02 1.768945000000000164e+03
1.040000000000000091e-01 8.115499999999999936e-01 1.409610999999999947e+01 1.242010000000000076e+02 1.768755000000000109e+03
1.050000000000000100e-01 8.113209999999999589e-01 1.338902000000000037e+01 1.232800000000000011e+02 1.768545000000000073e+03
1.059999999999999970e-01 8.110779999999999657e-01 1.266131499999999832e+01 1.222914999999999992e+02 1.768315000000000055e+03
1.069999999999999979e-01 8.108254999999999768e-01 1.192267000000000010e+01 1.212555000000000121e+02 1.768074999999999818e+03
1.079999999999999988e-01 8.105700000000000127e-01 1.118445999999999962e+01 1.201974999999999909e+02 1.767829999999999927e+03
1.089999999999999997e-01 8.103195000000000814e-01 1.045890499999999967e+01 1.191424999999999983e+02 1.767585000000000036e+03
1.100000000000000006e-01 8.100789999999999935e-01 9.758700000000001040e+00 1.181184999999999974e+02 1.767339999999999918e+03
1.110000000000000014e-01 8.098549999999999915e-01 9.095955000000000013e+00 1.171514999999999986e+02 1.767105000000000018e+03
1.120000000000000023e-01 8.096520000000000383e-01 8.481894999999999740e+00 1.162655000000000030e+02 1.766889999999999873e+03
1.130000000000000032e-01 8.094755000000000145e-01 7.926125000000000753e+00 1.154805000000000064e+02 1.766690000000000055e+03
1.140000000000000041e-01 8.093285000000000062e-01 7.436135000000000161e+00 1.148125000000000000e+02 1.766514999999999873e+03
1.150000000000000050e-01 8.092129999999999601e-01 7.016994999999999649e+00 1.142729999999999961e+02 1.766369999999999891e+03
1.160000000000000059e-01 8.091295000000000570e-01 6.671255000000000379e+00 1.138659999999999997e+02 1.766255000000000109e+03
1.170000000000000068e-01 8.090770000000000461e-01 6.398810000000000109e+00 1.135930000000000035e+02 1.766174999999999955e+03
1.180000000000000077e-01 8.090539999999999399e-01 6.197070000000000078e+00 1.134465000000000003e+02 1.766115000000000009e+03
1.190000000000000085e-01 8.090565000000000673e-01 6.061244999999999550e+00 1.134175000000000040e+02 1.766089999999999918e+03
1.200000000000000094e-01 8.090824999999999267e-01 5.984709999999999752e+00 1.134915000000000020e+02 1.766090000000000146e+03
1.209999999999999964e-01 8.091260000000000119e-01 5.959419999999999717e+00 1.136504999999999939e+02 1.766105000000000018e+03
1.219999999999999973e-01 8.091829999999999856e-01 5.976424999999999876e+00 1.138764999999999930e+02 1.766144999999999982e+03
1.229999999999999982e-01 8.092489999999999961e-01 6.026324999999999932e+00 1.141504999999999939e+02 1.766194999999999936e+03
1.239999999999999991e-01 8.093200000000000394e-01 6.099714999999999776e+00 1.144525000000000006e+02 1.766255000000000109e+03
1.250000000000000000e-01 8.093915000000000415e-01 6.187590000000000146e+00 1.147644999999999982e+02 1.766315000000000055e+03
1.260000000000000009e-01 8.094594999999999985e-01 6.281649999999999956e+00 1.150715000000000003e+02 1.766380000000000109e+03
1.270000000000000018e-01 8.095229999999999926e-01 6.374534999999999840e+00 1.153599999999999994e+02 1.766445000000000164e+03
1.280000000000000027e-01 8.095775000000000610e-01 6.460045000000000037e+00 1.156179999999999950e+02 1.766505000000000109e+03
1.290000000000000036e-01 8.096235000000000515e-01 6.533184999999999576e+00 1.158389999999999986e+02 1.766554999999999836e+03
1.300000000000000044e-01 8.096585000000000587e-01 6.590259999999999785e+00 1.160175000000000125e+02 1.766599999999999909e+03
1.310000000000000053e-01 8.096835000000000004e-01 6.628845000000000098e+00 1.161514999999999986e+02 1.766634999999999991e+03
1.320000000000000062e-01 8.096984999999999877e-01 6.647724999999999440e+00 1.162415000000000020e+02 1.766660000000000082e+03
1.330000000000000071e-01 8.097039999999999793e-01 6.646840000000000082e+00 1.162895000000000039e+02 1.766680000000000064e+03
1.340000000000000080e-01 8.097014999999999629e-01 6.627125000000000377e+00 1.162994999999999948e+02 1.766684999999999945e+03
1.350000000000000089e-01 8.096924999999999262e-01 6.590395000000000003e+00 1.162779999999999916e+02 1.766684999999999945e+03
1.360000000000000098e-01 8.096784999999999677e-01 6.539155000000000051e+00 1.162309999999999945e+02 1.766679999999999836e+03
1.370000000000000107e-01 8.096609999999999641e-01 6.476409999999999556e+00 1.161659999999999968e+02 1.766670000000000073e+03
1.380000000000000115e-01 8.096425000000000427e-01 6.405450000000000088e+00 1.160904999999999916e+02 1.766660000000000082e+03
1.390000000000000124e-01 8.096240000000000103e-01 6.329665000000000319e+00 1.160114999999999981e+02 1.766644999999999982e+03
1.400000000000000133e-01 8.096069999999999656e-01 6.252320000000000100e+00 1.159354999999999905e+02 1.766625000000000000e+03
1.410000000000000142e-01 8.095930000000000071e-01 6.176375000000000171e+00 1.158670000000000044e+02 1.766609999999999900e+03
1.420000000000000151e-01 8.095825000000000937e-01 6.104314999999999714e+00 1.158119999999999976e+02 1.766599999999999909e+03
1.430000000000000160e-01 8.095759999999999623e-01 6.038085000000000591e+00 1.157720000000000056e+02 1.766589999999999918e+03
1.440000000000000169e-01 8.095740000000000158e-01 5.978965000000000529e+00 1.157485000000000070e+02 1.766585000000000036e+03
1.450000000000000178e-01 8.095755000000000035e-01 5.927565000000000417e+00 1.157415000000000020e+02 1.766579999999999927e+03
1.459999999999999909e-01 8.095805000000000362e-01 5.883895000000000763e+00 1.157494999999999976e+02 1.766585000000000036e+03
1.469999999999999918e-01 8.095885000000000442e-01 5.847395000000000564e+00 1.157700000000000102e+02 1.766585000000000036e+03
1.479999999999999927e-01 8.095974999999999699e-01 5.817084999999999617e+00 1.157980000000000018e+02 1.766590000000000146e+03
1.489999999999999936e-01 8.096075000000000355e-01 5.791655000000000442e+00 1.158310000000000031e+02 1.766599999999999909e+03
1.499999999999999944e-01 8.096160000000000023e-01 5.769660000000000011e+00 1.158635000000000019e+02 1.766605000000000018e+03
1.509999999999999953e-01 8.096240000000000103e-01 5.749645000000000117e+00 1.158919999999999959e+02 1.766615000000000009e+03
1.519999999999999962e-01 8.096289999999999321e-01 5.730259999999999465e+00 1.159115000000000038e+02 1.766615000000000009e+03
1.529999999999999971e-01 8.096309999999999896e-01 5.710354999999999848e+00 1.159209999999999923e+02 1.766615000000000009e+03
1.539999999999999980e-01 8.096300000000000718e-01 5.689095000000000013e+00 1.159159999999999968e+02 1.766615000000000009e+03
1.549999999999999989e-01 8.096244999999999692e-01 5.665945000000000675e+00 1.158970000000000056e+02 1.766615000000000009e+03
1.559999999999999998e-01 8.096160000000000023e-01 5.640740000000000087e+00 1.158629999999999995e+02 1.766610000000000127e+03
1.570000000000000007e-01 8.096039999999999903e-01 5.613630000000000564e+00 1.158155000000000001e+02 1.766595000000000027e+03
1.580000000000000016e-01 8.095890000000000031e-01 5.585105000000000430e+00 1.157560000000000002e+02 1.766585000000000036e+03
1.590000000000000024e-01 8.095730000000000981e-01 5.555925000000000225e+00 1.156864999999999952e+02 1.766570000000000164e+03
