# t [s], A [cm^2], U [cm/s], P [cPa], c [cm/s]
1.000000000000000021e-03 1.950040000000000107e-01 3.697636000000000256e-01 9.517985000000000184e+01 2.231184999999999945e+03
2.000000000000000042e-03 1.949349999999999972e-01 1.978225000000000122e+00 9.135089999999999577e+01 2.230655000000000200e+03
3.000000000000000062e-03 1.947750000000000037e-01 3.963800499999999616e+00 8.600094999999998890e+01 2.229465000000000146e+03
4.000000000000000083e-03 1.945729999999999960e-01 6.219112499999999599e+00 8.050030000000000996e+01 2.227980000000000018e+03
5.000000000000000104e-03 1.943710000000000160e-01 8.616080000000000183e+00 7.593460000000000321e+01 2.226510000000000218e+03
6.000000000000000125e-03 1.941855000000000109e-01 1.084759500000000010e+01 7.231229999999999336e+01 2.225179999999999836e+03
7.000000000000000146e-03 1.940159999999999940e-01 1.267336000000000062e+01 6.910864999999999725e+01 2.223994999999999891e+03
8.000000000000000167e-03 1.938679999999999848e-01 1.412185000000000024e+01 6.628865000000000407e+01 2.222985000000000127e+03
9.000000000000001055e-03 1.937460000000000016e-01 1.526585000000000036e+01 6.403839999999999577e+01 2.222159999999999854e+03
1.000000000000000194e-02 1.936505000000000032e-01 1.613220000000000098e+01 6.234429999999999694e+01 2.221519999999999982e+03
1.099999999999999936e-02 1.935795000000000154e-01 1.675520000000000209e+01 6.113879999999999626e+01 2.221050000000000182e+03
1.200000000000000025e-02 1.935275000000000190e-01 1.714754999999999896e+01 6.029560000000000031e+01 2.220715000000000146e+03
1.300000000000000114e-02 1.934875000000000067e-01 1.731405000000000172e+01 5.960979999999999990e+01 2.220470000000000255e+03
1.400000000000000203e-02 1.934575000000000045e-01 1.735679999999999978e+01 5.909130000000000393e+01 2.220289999999999964e+03
1.499999999999999944e-02 1.934469999999999801e-01 1.750469999999999970e+01 5.919315000000000282e+01 2.220239999999999782e+03
1.600000000000000033e-02 1.934740000000000071e-01 1.798570000000000135e+01 6.055849999999999511e+01 2.220420000000000073e+03
1.700000000000000122e-02 1.935474999999999834e-01 1.885880000000000223e+01 6.347489999999999810e+01 2.220920000000000073e+03
1.800000000000000211e-02 1.936620000000000008e-01 1.995159999999999911e+01 6.752455000000000496e+01 2.221699999999999818e+03
1.900000000000000300e-02 1.937935000000000074e-01 2.093880000000000052e+01 7.168779999999999575e+01 2.222605000000000018e+03
2.000000000000000042e-02 1.939099999999999990e-01 2.149765000000000015e+01 7.479490000000001260e+01 2.223425000000000182e+03
2.100000000000000130e-02 1.939835000000000031e-01 2.145084999999999908e+01 7.604335000000000377e+01 2.223960000000000036e+03
2.200000000000000219e-02 1.940024999999999944e-01 2.082894999999999897e+01 7.531520000000000437e+01 2.224130000000000109e+03
2.299999999999999961e-02 1.939715000000000189e-01 1.983399999999999963e+01 7.316145000000000209e+01 2.223954999999999927e+03
2.400000000000000050e-02 1.939119999999999733e-01 1.873160000000000025e+01 7.049184999999999945e+01 2.223554999999999836e+03
2.500000000000000139e-02 1.938460000000000183e-01 1.773235000000000028e+01 6.815120000000000289e+01 2.223110000000000127e+03
2.600000000000000228e-02 1.937909999999999910e-01 1.691864999999999952e+01 6.659265000000000612e+01 2.222720000000000255e+03
2.700000000000000316e-02 1.937534999999999952e-01 1.623944999999999794e+01 6.577355000000000018e+01 2.222444999999999709e+03
2.800000000000000058e-02 1.937264999999999959e-01 1.556174999999999997e+01 6.527474999999999739e+01 2.222260000000000218e+03
2.900000000000000147e-02 1.936980000000000091e-01 1.474849999999999994e+01 6.455530000000000257e+01 2.222059999999999945e+03
3.000000000000000236e-02 1.936569999999999958e-01 1.373075000000000045e+01 6.322594999999999743e+01 2.221784999999999854e+03
3.099999999999999978e-02 1.935974999999999779e-01 1.254894999999999960e+01 6.124014999999999986e+01 2.221390000000000327e+03
3.200000000000000067e-02 1.935260000000000036e-01 1.134927000000000064e+01 5.893809999999999860e+01 2.220904999999999745e+03
3.300000000000000155e-02 1.934559999999999891e-01 1.033622000000000085e+01 5.692974999999999852e+01 2.220420000000000073e+03
3.400000000000000244e-02 1.934060000000000223e-01 9.701730000000001297e+00 5.586834999999999951e+01 2.220059999999999945e+03
3.500000000000000333e-02 1.933920000000000083e-01 9.558230000000000004e+00 5.620815000000000339e+01 2.219940000000000055e+03
3.600000000000000422e-02 1.934220000000000106e-01 9.901500000000000412e+00 5.803925000000000267e+01 2.220119999999999891e+03
3.700000000000000511e-02 1.934929999999999983e-01 1.061155000000000115e+01 6.105169999999999675e+01 2.220579999999999927e+03
3.799999999999999906e-02 1.935925000000000007e-01 1.148630999999999958e+01 6.462460000000000093e+01 2.221250000000000000e+03
3.899999999999999994e-02 1.936990000000000101e-01 1.229214999999999947e+01 6.799289999999999168e+01 2.221975000000000364e+03
4.000000000000000083e-02 1.937909999999999910e-01 1.281475000000000009e+01 7.043189999999999884e+01 2.222614999999999782e+03
4.100000000000000172e-02 1.938499999999999945e-01 1.289734999999999943e+01 7.140680000000000405e+01 2.223034999999999854e+03
4.200000000000000261e-02 1.938599999999999768e-01 1.245984999999999943e+01 7.065489999999999782e+01 2.223125000000000000e+03
4.300000000000000350e-02 1.938179999999999903e-01 1.149878999999999962e+01 6.819389999999999930e+01 2.222860000000000127e+03
4.400000000000000439e-02 1.937240000000000073e-01 1.007196500000000050e+01 6.426789999999999736e+01 2.222239999999999782e+03
4.499999999999999833e-02 1.935870000000000091e-01 8.275590000000001112e+00 5.925820000000000221e+01 2.221309999999999945e+03
4.599999999999999922e-02 1.934175000000000200e-01 6.221539999999999182e+00 5.358899999999999864e+01 2.220155000000000200e+03
4.700000000000000011e-02 1.932274999999999965e-01 4.020224500000000312e+00 4.765415000000000134e+01 2.218855000000000018e+03
4.800000000000000100e-02 1.930290000000000061e-01 1.771985000000000143e+00 4.177740000000000009e+01 2.217489999999999782e+03
4.900000000000000189e-02 1.928310000000000024e-01 -4.344049999999999301e-01 3.620519999999999783e+01 2.216119999999999891e+03
5.000000000000000278e-02 1.926424999999999943e-01 -2.518494999999999706e+00 3.112389999999999901e+01 2.214819999999999709e+03
5.100000000000000366e-02 1.924690000000000012e-01 -4.403776499999999317e+00 2.668500000000000227e+01 2.213614999999999782e+03
5.200000000000000455e-02 1.923175000000000023e-01 -6.015015000000000001e+00 2.302864999999999895e+01 2.212559999999999945e+03
5.300000000000000544e-02 1.921934999999999893e-01 -7.278660000000000352e+00 2.029459999999999908e+01 2.211685000000000400e+03
5.399999999999999939e-02 1.921015000000000084e-01 -8.126705000000001178e+00 1.861959999999999837e+01 2.211029999999999745e+03
5.500000000000000028e-02 1.920469999999999955e-01 -8.502690000000001191e+00 1.812379999999999924e+01 2.210630000000000109e+03
5.600000000000000117e-02 1.920339999999999825e-01 -8.368394999999999584e+00 1.889085000000000036e+01 2.210510000000000218e+03
5.700000000000000205e-02 1.920640000000000125e-01 -7.709139999999999660e+00 2.094935000000000258e+01 2.210690000000000055e+03
5.800000000000000294e-02 1.921390000000000042e-01 -6.536529999999999951e+00 2.426149999999999807e+01 2.211170000000000073e+03
5.900000000000000383e-02 1.922550000000000092e-01 -4.887909999999999755e+00 2.872129999999999939e+01 2.211940000000000055e+03
6.000000000000000472e-02 1.924104999999999843e-01 -2.823040000000000216e+00 3.416320000000000334e+01 2.212974999999999909e+03
6.099999999999999867e-02 1.925979999999999914e-01 -4.188049999999998718e-01 4.037734999999999985e+01 2.214250000000000000e+03
6.199999999999999956e-02 1.928114999999999968e-01 2.236860000000000070e+00 4.712890000000000157e+01 2.215699999999999818e+03
6.300000000000000044e-02 1.930429999999999924e-01 5.050821000000000005e+00 5.417640000000000100e+01 2.217284999999999854e+03
6.400000000000000133e-02 1.932849999999999846e-01 7.930144999999999555e+00 6.128725000000000023e+01 2.218954999999999927e+03
6.500000000000000222e-02 1.935295000000000210e-01 1.078639500000000062e+01 6.825060000000000571e+01 2.220644999999999982e+03
6.600000000000000311e-02 1.937694999999999834e-01 1.354015000000000057e+01 7.488679999999999382e+01 2.222315000000000055e+03
6.700000000000000400e-02 1.939994999999999914e-01 1.612440000000000140e+01 8.105510000000001014e+01 2.223920000000000073e+03
6.800000000000000488e-02 1.942154999999999854e-01 1.848789999999999978e+01 8.666020000000000323e+01 2.225430000000000291e+03
6.900000000000000577e-02 1.944130000000000025e-01 2.059790000000000276e+01 9.165680000000000405e+01 2.226824999999999818e+03
7.000000000000000666e-02 1.945915000000000006e-01 2.244115000000000038e+01 9.605039999999999623e+01 2.228085000000000036e+03
7.100000000000000755e-02 1.947510000000000074e-01 2.402360000000000184e+01 9.989475000000000193e+01 2.229215000000000146e+03
7.200000000000000844e-02 1.948940000000000117e-01 2.536829999999999785e+01 1.032854499999999973e+02 2.230235000000000127e+03
7.300000000000000933e-02 1.950224999999999875e-01 2.651169999999999760e+01 1.063460000000000036e+02 2.231159999999999854e+03
7.399999999999999634e-02 1.951414999999999955e-01 2.749895000000000067e+01 1.092164999999999964e+02 2.232005000000000109e+03
7.499999999999999722e-02 1.952550000000000119e-01 2.837834999999999752e+01 1.120335000000000036e+02 2.232815000000000055e+03
7.599999999999999811e-02 1.953674999999999995e-01 2.919675000000000153e+01 1.149209999999999923e+02 2.233619999999999891e+03
7.699999999999999900e-02 1.954819999999999891e-01 2.999455000000000027e+01 1.179759999999999991e+02 2.234429999999999836e+03
7.799999999999999989e-02 1.956019999999999981e-01 3.080255000000000010e+01 1.212595000000000027e+02 2.235279999999999745e+03
7.900000000000000078e-02 1.957284999999999997e-01 3.164010000000000389e+01 1.247959999999999923e+02 2.236170000000000073e+03
8.000000000000000167e-02 1.958624999999999949e-01 3.251395000000000124e+01 1.285704999999999814e+02 2.237119999999999891e+03
8.100000000000000255e-02 1.960040000000000115e-01 3.341890000000000072e+01 1.325360000000000014e+02 2.238109999999999673e+03
8.200000000000000344e-02 1.961505000000000054e-01 3.433899999999999864e+01 1.366169999999999902e+02 2.239145000000000437e+03
8.300000000000000433e-02 1.962990000000000013e-01 3.524954999999999927e+01 1.407185000000000059e+02 2.240184999999999945e+03
8.400000000000000522e-02 1.964469999999999827e-01 3.611984999999999957e+01 1.447339999999999804e+02 2.241235000000000127e+03
8.500000000000000611e-02 1.965910000000000157e-01 3.691575000000000273e+01 1.485545000000000186e+02 2.242255000000000109e+03
8.600000000000000699e-02 1.967280000000000140e-01 3.760235000000000127e+01 1.520759999999999934e+02 2.243224999999999909e+03
8.700000000000000788e-02 1.968535000000000146e-01 3.814659999999999940e+01 1.552044999999999959e+02 2.244110000000000127e+03
8.800000000000000877e-02 1.969644999999999868e-01 3.851995000000000147e+01 1.578629999999999995e+02 2.244904999999999745e+03
8.899999999999999578e-02 1.970594999999999986e-01 3.869955000000000211e+01 1.599970000000000141e+02 2.245590000000000146e+03
8.999999999999999667e-02 1.971359999999999779e-01 3.867045000000000243e+01 1.615715000000000146e+02 2.246144999999999982e+03
9.099999999999999756e-02 1.971940000000000082e-01 3.842609999999999815e+01 1.625790000000000077e+02 2.246565000000000055e+03
9.199999999999999845e-02 1.972319999999999907e-01 3.796875000000000000e+01 1.630335000000000036e+02 2.246849999999999909e+03
9.299999999999999933e-02 1.972510000000000097e-01 3.730915000000000248e+01 1.629714999999999918e+02 2.246994999999999891e+03
9.400000000000000022e-02 1.972524999999999973e-01 3.646599999999999397e+01 1.624474999999999909e+02 2.247025000000000091e+03
9.500000000000000111e-02 1.972384999999999833e-01 3.546429999999999438e+01 1.615314999999999941e+02 2.246940000000000055e+03
9.600000000000000200e-02 1.972110000000000252e-01 3.433415000000000106e+01 1.603029999999999973e+02 2.246755000000000109e+03
9.700000000000000289e-02 1.971725000000000005e-01 3.310895000000000010e+01 1.588460000000000036e+02 2.246500000000000000e+03
9.800000000000000377e-02 1.971264999999999823e-01 3.182339999999999947e+01 1.572470000000000141e+02 2.246179999999999836e+03
9.900000000000000466e-02 1.970744999999999858e-01 3.051219999999999999e+01 1.555875000000000057e+02 2.245819999999999709e+03
1.000000000000000056e-01 1.970210000000000017e-01 2.920815000000000339e+01 1.539429999999999836e+02 2.245445000000000164e+03
1.010000000000000064e-01 1.969670000000000032e-01 2.794080000000000297e+01 1.523774999999999977e+02 2.245065000000000055e+03
1.020000000000000073e-01 1.969154999999999933e-01 2.673545000000000016e+01 1.509449999999999932e+02 2.244699999999999818e+03
1.030000000000000082e-01 1.968679999999999874e-01 2.561209999999999809e+01 1.496854999999999905e+02 2.244359999999999673e+03
1.040000000000000091e-01 1.968254999999999866e-01 2.458464999999999989e+01 1.486214999999999975e+02 2.244059999999999945e+03
1.050000000000000100e-01 1.967895000000000061e-01 2.366049999999999898e+01 1.477630000000000052e+02 2.243795000000000073e+03
1.059999999999999970e-01 1.967595000000000038e-01 2.284045000000000059e+01 1.471019999999999754e+02 2.243574999999999818e+03
1.069999999999999979e-01 1.967355000000000076e-01 2.211899999999999977e+01 1.466159999999999854e+02 2.243399999999999636e+03
1.079999999999999988e-01 1.967174999999999896e-01 2.148454999999999870e+01 1.462694999999999936e+02 2.243265000000000327e+03
1.089999999999999997e-01 1.967030000000000167e-01 2.092094999999999771e+01 1.460175000000000125e+02 2.243154999999999745e+03
1.100000000000000006e-01 1.966915000000000191e-01 2.040810000000000102e+01 1.458040000000000020e+02 2.243064999999999600e+03
1.110000000000000014e-01 1.966805000000000081e-01 1.992350000000000065e+01 1.455715000000000146e+02 2.242989999999999782e+03
1.120000000000000023e-01 1.966684999999999961e-01 1.944415000000000049e+01 1.452620000000000005e+02 2.242900000000000091e+03
1.130000000000000032e-01 1.966539999999999955e-01 1.894765000000000299e+01 1.448215000000000146e+02 2.242789999999999964e+03
1.140000000000000041e-01 1.966340000000000032e-01 1.841409999999999769e+01 1.442040000000000077e+02 2.242654999999999745e+03
1.150000000000000050e-01 1.966089999999999782e-01 1.782699999999999818e+01 1.433735000000000070e+02 2.242475000000000364e+03
1.160000000000000059e-01 1.965759999999999730e-01 1.717490000000000094e+01 1.423084999999999809e+02 2.242244999999999891e+03
1.170000000000000068e-01 1.965355000000000019e-01 1.645165000000000077e+01 1.410024999999999977e+02 2.241954999999999927e+03
1.180000000000000077e-01 1.964869999999999950e-01 1.565709999999999980e+01 1.394644999999999868e+02 2.241619999999999891e+03
1.190000000000000085e-01 1.964305000000000079e-01 1.479700000000000060e+01 1.377189999999999941e+02 2.241230000000000018e+03
1.200000000000000094e-01 1.963675000000000004e-01 1.388250000000000028e+01 1.358034999999999854e+02 2.240789999999999964e+03
1.209999999999999964e-01 1.962990000000000013e-01 1.292954999999999899e+01 1.337669999999999959e+02 2.240314999999999600e+03
1.219999999999999973e-01 1.962274999999999991e-01 1.195777000000000001e+01 1.316650000000000205e+02 2.239809999999999945e+03
1.229999999999999982e-01 1.961534999999999807e-01 1.098901000000000039e+01 1.295604999999999905e+02 2.239289999999999964e+03
1.239999999999999991e-01 1.960794999999999899e-01 1.004621500000000012e+01 1.275140000000000100e+02 2.238770000000000437e+03
1.250000000000000000e-01 1.960075000000000012e-01 9.151914999999998912e+00 1.255840000000000032e+02 2.238264999999999873e+03
1.260000000000000009e-01 1.959404999999999897e-01 8.326769999999999783e+00 1.238224999999999909e+02 2.237789999999999964e+03
1.270000000000000018e-01 1.958790000000000253e-01 7.588744999999999408e+00 1.222719999999999914e+02 2.237349999999999909e+03
1.280000000000000027e-01 1.958245000000000124e-01 6.951945000000000263e+00 1.209639999999999986e+02 2.236960000000000036e+03
1.290000000000000036e-01 1.957780000000000076e-01 6.426135000000000375e+00 1.199189999999999969e+02 2.236630000000000109e+03
1.300000000000000044e-01 1.957409999999999983e-01 6.016415000000000290e+00 1.191430000000000007e+02 2.236359999999999673e+03
1.310000000000000053e-01 1.957125000000000115e-01 5.723155000000000214e+00 1.186334999999999980e+02 2.236154999999999745e+03
1.320000000000000062e-01 1.956930000000000058e-01 5.542260000000000630e+00 1.183725000000000023e+02 2.236010000000000218e+03
1.330000000000000071e-01 1.956819999999999948e-01 5.465600000000000236e+00 1.183365000000000009e+02 2.235920000000000073e+03
1.340000000000000080e-01 1.956785000000000052e-01 5.481635000000000701e+00 1.184929999999999950e+02 2.235889999999999873e+03
1.350000000000000089e-01 1.956815000000000082e-01 5.576154999999999973e+00 1.188045000000000044e+02 2.235904999999999745e+03
1.360000000000000098e-01 1.956900000000000028e-01 5.733060000000000045e+00 1.192305000000000064e+02 2.235960000000000036e+03
1.370000000000000107e-01 1.957019999999999871e-01 5.935195000000000221e+00 1.197295000000000016e+02 2.236039999999999964e+03
1.380000000000000115e-01 1.957170000000000021e-01 6.165105000000000501e+00 1.202605000000000075e+02 2.236139999999999873e+03
1.390000000000000124e-01 1.957335000000000047e-01 6.405780000000000030e+00 1.207854999999999990e+02 2.236250000000000000e+03
1.400000000000000133e-01 1.957494999999999929e-01 6.641354999999999897e+00 1.212690000000000055e+02 2.236360000000000127e+03
1.410000000000000142e-01 1.957639999999999936e-01 6.857615000000000016e+00 1.216820000000000022e+02 2.236460000000000036e+03
1.420000000000000151e-01 1.957764999999999922e-01 7.042544999999999611e+00 1.220000000000000000e+02 2.236555000000000291e+03
1.430000000000000160e-01 1.957860000000000156e-01 7.186634999999999884e+00 1.222060000000000031e+02 2.236619999999999891e+03
1.440000000000000169e-01 1.957920000000000216e-01 7.283160000000000522e+00 1.222890000000000015e+02 2.236664999999999964e+03
1.450000000000000178e-01 1.957939999999999958e-01 7.328289999999999971e+00 1.222454999999999927e+02 2.236680000000000291e+03
1.459999999999999909e-01 1.957919999999999938e-01 7.321064999999999934e+00 1.220775000000000006e+02 2.236670000000000073e+03
1.469999999999999918e-01 1.957855000000000012e-01 7.263244999999999507e+00 1.217944999999999993e+02 2.236625000000000000e+03
1.479999999999999927e-01 1.957754999999999912e-01 7.159019999999999939e+00 1.214099999999999966e+02 2.236560000000000400e+03
1.489999999999999936e-01 1.957625000000000060e-01 7.014604999999999535e+00 1.209420000000000073e+02 2.236470000000000255e+03
1.499999999999999944e-01 1.957464999999999899e-01 6.837720000000000020e+00 1.204114999999999895e+02 2.236359999999999673e+03
1.509999999999999953e-01 1.957280000000000131e-01 6.637024999999999508e+00 1.198410000000000082e+02 2.236235000000000127e+03
1.519999999999999962e-01 1.957090000000000218e-01 6.421535000000000437e+00 1.192514999999999930e+02 2.236099999999999909e+03
1.529999999999999971e-01 1.956884999999999875e-01 6.200050000000000061e+00 1.186645000000000039e+02 2.235965000000000146e+03
1.539999999999999980e-01 1.956689999999999818e-01 5.980615000000000236e+00 1.180970000000000084e+02 2.235824999999999818e+03
1.549999999999999989e-01 1.956495000000000040e-01 5.770144999999999413e+00 1.175635000000000048e+02 2.235684999999999945e+03
1.559999999999999998e-01 1.956309999999999993e-01 5.574065000000000047e+00 1.170734999999999957e+02 2.235559999999999945e+03
1.570000000000000007e-01 1.956140000000000101e-01 5.396200000000000330e+00 1.166324999999999932e+02 2.235434999999999945e+03
1.580000000000000016e-01 1.955979999999999941e-01 5.238665000000000127e+00 1.162419999999999902e+02 2.235329999999999927e+03
1.590000000000000024e-01 1.955844999999999945e-01 5.102000000000000313e+00 1.158985000000000127e+02 2.235225000000000364e+03
