# t [s], A [cm^2], U [cm/s], P [cPa], c [cm/s]
1.000000000000000021e-03 1.872765000000000124e-01 1.384520499999999932e-01 9.666394999999999982e+01 2.039009999999999991e+03
2.000000000000000042e-03 1.872455000000000092e-01 1.402378999999999820e+00 9.404460000000000264e+01 2.038759999999999991e+03
3.000000000000000062e-03 1.871364999999999834e-01 3.042389000000000010e+00 9.034369999999999834e+01 2.037934999999999945e+03
4.000000000000000083e-03 1.869755000000000167e-01 4.909939500000000123e+00 8.598160000000000025e+01 2.036730000000000018e+03
5.000000000000000104e-03 1.867900000000000116e-01 6.951459999999999972e+00 8.169110000000000582e+01 2.035369999999999891e+03
6.000000000000000125e-03 1.866035000000000055e-01 9.066900000000000404e+00 7.793154999999998722e+01 2.034005000000000109e+03
7.000000000000000146e-03 1.864244999999999930e-01 1.108774499999999996e+01 7.473480000000000700e+01 2.032714999999999918e+03
8.000000000000000167e-03 1.862574999999999925e-01 1.287083499999999958e+01 7.189740000000000464e+01 2.031534999999999854e+03
9.000000000000001055e-03 1.861039999999999917e-01 1.438523999999999958e+01 6.933404999999999063e+01 2.030470000000000027e+03
1.000000000000000194e-02 1.859685000000000088e-01 1.566090000000000160e+01 6.710984999999999445e+01 2.029539999999999964e+03
1.099999999999999936e-02 1.858540000000000192e-01 1.672194999999999965e+01 6.527445000000000164e+01 2.028759999999999991e+03
1.200000000000000025e-02 1.857594999999999941e-01 1.758324999999999960e+01 6.381685000000000230e+01 2.028125000000000000e+03
1.300000000000000114e-02 1.856835000000000013e-01 1.825440000000000040e+01 6.268710000000000093e+01 2.027625000000000000e+03
1.400000000000000203e-02 1.856230000000000102e-01 1.873559999999999803e+01 6.179514999999999958e+01 2.027224999999999909e+03
1.499999999999999944e-02 1.855729999999999880e-01 1.903369999999999962e+01 6.103905000000000314e+01 2.026909999999999854e+03
1.600000000000000033e-02 1.855320000000000025e-01 1.919375000000000142e+01 6.039470000000000027e+01 2.026655000000000200e+03
1.700000000000000122e-02 1.855030000000000012e-01 1.931020000000000181e+01 5.998525000000000063e+01 2.026474999999999909e+03
1.800000000000000211e-02 1.854910000000000170e-01 1.949784999999999968e+01 6.004554999999999865e+01 2.026410000000000082e+03
1.900000000000000300e-02 1.855040000000000022e-01 1.984179999999999922e+01 6.079469999999999885e+01 2.026505000000000109e+03
2.000000000000000042e-02 1.855439999999999867e-01 2.035914999999999964e+01 6.230140000000000100e+01 2.026779999999999973e+03
2.100000000000000130e-02 1.856089999999999962e-01 2.099210000000000065e+01 6.442179999999999040e+01 2.027224999999999909e+03
2.200000000000000219e-02 1.856905000000000083e-01 2.163320000000000221e+01 6.683440000000000225e+01 2.027785000000000082e+03
2.299999999999999961e-02 1.857759999999999967e-01 2.216539999999999822e+01 6.914454999999999529e+01 2.028384999999999991e+03
2.400000000000000050e-02 1.858549999999999924e-01 2.249960000000000093e+01 7.100569999999999027e+01 2.028940000000000055e+03
2.500000000000000139e-02 1.859175000000000133e-01 2.259810000000000230e+01 7.221295000000000641e+01 2.029394999999999982e+03
2.600000000000000228e-02 1.859594999999999998e-01 2.247735000000000127e+01 7.273874999999999602e+01 2.029704999999999927e+03
2.700000000000000316e-02 1.859819999999999807e-01 2.219314999999999927e+01 7.271039999999999281e+01 2.029880000000000109e+03
2.800000000000000058e-02 1.859885000000000010e-01 2.181634999999999991e+01 7.234229999999999450e+01 2.029940000000000055e+03
2.900000000000000147e-02 1.859859999999999847e-01 2.140729999999999933e+01 7.185389999999999588e+01 2.029934999999999945e+03
3.000000000000000236e-02 1.859794999999999920e-01 2.099880000000000280e+01 7.139969999999999573e+01 2.029894999999999982e+03
3.099999999999999978e-02 1.859719999999999984e-01 2.059094999999999942e+01 7.103329999999999700e+01 2.029840000000000146e+03
3.200000000000000067e-02 1.859629999999999894e-01 2.015760000000000218e+01 7.071035000000000537e+01 2.029779999999999973e+03
3.300000000000000155e-02 1.859514999999999918e-01 1.966114999999999924e+01 7.032294999999999163e+01 2.029704999999999927e+03
3.400000000000000244e-02 1.859339999999999882e-01 1.907019999999999982e+01 6.975310000000000343e+01 2.029590000000000146e+03
3.500000000000000333e-02 1.859080000000000177e-01 1.837465000000000259e+01 6.892494999999999550e+01 2.029414999999999964e+03
3.600000000000000422e-02 1.858724999999999961e-01 1.759424999999999883e+01 6.784305000000000518e+01 2.029175000000000182e+03
3.700000000000000511e-02 1.858294999999999808e-01 1.677799999999999869e+01 6.660374999999999091e+01 2.028894999999999982e+03
3.799999999999999906e-02 1.857844999999999913e-01 1.599489999999999945e+01 6.537884999999999991e+01 2.028585000000000036e+03
3.899999999999999994e-02 1.857429999999999914e-01 1.531869999999999976e+01 6.437505000000000166e+01 2.028295000000000073e+03
4.000000000000000083e-02 1.857125000000000026e-01 1.481064999999999898e+01 6.378324999999999534e+01 2.028075000000000045e+03
4.100000000000000172e-02 1.856975000000000153e-01 1.450670000000000037e+01 6.373179999999999978e+01 2.027960000000000036e+03
4.200000000000000261e-02 1.857014999999999916e-01 1.440995000000000026e+01 6.425629999999999598e+01 2.027974999999999909e+03
4.300000000000000350e-02 1.857244999999999868e-01 1.449150000000000027e+01 6.529274999999999807e+01 2.028119999999999891e+03
4.400000000000000439e-02 1.857634999999999981e-01 1.469759999999999955e+01 6.669210000000001060e+01 2.028375000000000000e+03
4.499999999999999833e-02 1.858130000000000059e-01 1.496020000000000039e+01 6.825185000000000457e+01 2.028704999999999927e+03
4.599999999999999922e-02 1.858664999999999901e-01 1.520915000000000106e+01 6.975374999999999659e+01 2.029070000000000164e+03
4.700000000000000011e-02 1.859164999999999845e-01 1.538245000000000040e+01 7.099939999999999429e+01 2.029414999999999964e+03
4.800000000000000100e-02 1.859569999999999834e-01 1.543339999999999890e+01 7.183769999999999811e+01 2.029695000000000164e+03
4.900000000000000189e-02 1.859830000000000094e-01 1.533384999999999998e+01 7.217920000000000869e+01 2.029884999999999991e+03
5.000000000000000278e-02 1.859919999999999907e-01 1.507359999999999900e+01 7.199734999999999729e+01 2.029960000000000036e+03
5.100000000000000366e-02 1.859834999999999960e-01 1.465715000000000146e+01 7.131895000000000095e+01 2.029904999999999973e+03
5.200000000000000455e-02 1.859569999999999834e-01 1.409909999999999997e+01 7.020834999999999582e+01 2.029730000000000018e+03
5.300000000000000544e-02 1.859155000000000113e-01 1.341904999999999859e+01 6.874885000000000446e+01 2.029449999999999818e+03
5.399999999999999939e-02 1.858609999999999984e-01 1.263824999999999932e+01 6.702694999999999936e+01 2.029085000000000036e+03
5.500000000000000028e-02 1.857959999999999889e-01 1.177674999999999983e+01 6.512115000000000009e+01 2.028639999999999873e+03
5.600000000000000117e-02 1.857234999999999858e-01 1.085300499999999957e+01 6.309704999999999586e+01 2.028140000000000100e+03
5.700000000000000205e-02 1.856450000000000045e-01 9.884645000000000792e+00 6.100764999999999816e+01 2.027599999999999909e+03
5.800000000000000294e-02 1.855630000000000057e-01 8.889670000000000627e+00 5.889799999999999613e+01 2.027039999999999964e+03
5.900000000000000383e-02 1.854799999999999782e-01 7.888060000000000294e+00 5.681105000000000160e+01 2.026465000000000146e+03
6.000000000000000472e-02 1.853970000000000062e-01 6.903235000000000454e+00 5.479349999999999454e+01 2.025889999999999873e+03
6.099999999999999867e-02 1.853159999999999807e-01 5.962180000000000035e+00 5.289974999999999739e+01 2.025329999999999927e+03
6.199999999999999956e-02 1.852405000000000024e-01 5.095309999999999562e+00 5.119315000000000282e+01 2.024804999999999836e+03
6.300000000000000044e-02 1.851729999999999765e-01 4.335099999999999731e+00 4.974445000000000050e+01 2.024329999999999927e+03
6.400000000000000133e-02 1.851154999999999884e-01 3.714274999999999771e+00 4.862754999999999939e+01 2.023929999999999836e+03
6.500000000000000222e-02 1.850709999999999855e-01 3.263595000000000468e+00 4.791400000000000148e+01 2.023610000000000127e+03
6.600000000000000311e-02 1.850430000000000130e-01 3.009694999999999787e+00 4.766655000000000086e+01 2.023404999999999973e+03
6.700000000000000400e-02 1.850335000000000174e-01 2.973160000000000025e+00 4.793394999999999584e+01 2.023319999999999936e+03
6.800000000000000488e-02 1.850434999999999997e-01 3.167189999999999728e+00 4.874634999999999962e+01 2.023375000000000000e+03
6.900000000000000577e-02 1.850749999999999895e-01 3.596829999999999750e+00 5.011315000000000452e+01 2.023574999999999818e+03
7.000000000000000666e-02 1.851280000000000148e-01 4.258869999999999933e+00 5.202230000000000132e+01 2.023925000000000182e+03
7.100000000000000755e-02 1.852020000000000055e-01 5.142339999999999911e+00 5.444155000000000655e+01 2.024414999999999964e+03
7.200000000000000844e-02 1.852960000000000163e-01 6.229449999999999932e+00 5.732184999999999775e+01 2.025049999999999955e+03
7.300000000000000933e-02 1.854080000000000172e-01 7.496909999999999741e+00 6.060065000000000168e+01 2.025815000000000055e+03
7.399999999999999634e-02 1.855360000000000065e-01 8.917559999999999931e+00 6.420685000000000286e+01 2.026684999999999945e+03
7.499999999999999722e-02 1.856774999999999953e-01 1.046180500000000002e+01 6.806570000000000675e+01 2.027654999999999973e+03
7.599999999999999811e-02 1.858294999999999808e-01 1.209947999999999979e+01 7.210309999999999775e+01 2.028694999999999936e+03
7.699999999999999900e-02 1.859889999999999877e-01 1.380146000000000051e+01 7.625024999999999409e+01 2.029804999999999836e+03
7.799999999999999989e-02 1.861539999999999861e-01 1.554060000000000130e+01 8.044689999999999941e+01 2.030944999999999936e+03
7.900000000000000078e-02 1.863225000000000020e-01 1.729329999999999856e+01 8.464400000000000546e+01 2.032115000000000009e+03
8.000000000000000167e-02 1.864925000000000055e-01 1.903974999999999795e+01 8.880490000000000350e+01 2.033295000000000073e+03
8.100000000000000255e-02 1.866610000000000213e-01 2.076440000000000197e+01 9.290585000000000093e+01 2.034480000000000018e+03
8.200000000000000344e-02 1.868299999999999961e-01 2.245579999999999998e+01 9.693455000000000155e+01 2.035654999999999973e+03
8.300000000000000433e-02 1.869959999999999956e-01 2.410620000000000118e+01 1.008895499999999998e+02 2.036824999999999818e+03
8.400000000000000522e-02 1.871605000000000074e-01 2.571075000000000088e+01 1.047745999999999924e+02 2.037980000000000018e+03
8.500000000000000611e-02 1.873235000000000039e-01 2.726670000000000016e+01 1.085989999999999895e+02 2.039130000000000109e+03
8.600000000000000699e-02 1.874844999999999984e-01 2.877284999999999826e+01 1.123729999999999905e+02 2.040264999999999873e+03
8.700000000000000788e-02 1.876435000000000186e-01 3.022824999999999918e+01 1.161064999999999969e+02 2.041389999999999873e+03
8.800000000000000877e-02 1.878015000000000101e-01 3.163210000000000122e+01 1.198044999999999902e+02 2.042505000000000109e+03
8.899999999999999578e-02 1.879580000000000140e-01 3.298314999999999486e+01 1.234694999999999965e+02 2.043615000000000009e+03
8.999999999999999667e-02 1.881134999999999891e-01 3.427955000000000041e+01 1.270974999999999966e+02 2.044719999999999800e+03
9.099999999999999756e-02 1.882674999999999765e-01 3.551855000000000473e+01 1.306820000000000164e+02 2.045809999999999945e+03
9.199999999999999845e-02 1.884195000000000175e-01 3.669700000000000273e+01 1.342119999999999891e+02 2.046894999999999982e+03
9.299999999999999933e-02 1.885695000000000010e-01 3.781105000000000160e+01 1.376730000000000018e+02 2.047960000000000036e+03
9.400000000000000022e-02 1.887159999999999949e-01 3.885649999999999693e+01 1.410500000000000114e+02 2.049005000000000109e+03
9.500000000000000111e-02 1.888600000000000001e-01 3.982905000000000229e+01 1.443260000000000218e+02 2.050025000000000091e+03
9.600000000000000200e-02 1.889990000000000003e-01 4.072395000000000209e+01 1.474830000000000041e+02 2.051024999999999636e+03
9.700000000000000289e-02 1.891335000000000099e-01 4.153659999999999997e+01 1.505039999999999907e+02 2.051985000000000127e+03
9.800000000000000377e-02 1.892619999999999858e-01 4.226219999999999999e+01 1.533720000000000141e+02 2.052905000000000200e+03
9.900000000000000466e-02 1.893854999999999844e-01 4.289620000000000033e+01 1.560709999999999980e+02 2.053789999999999964e+03
1.000000000000000056e-01 1.895010000000000028e-01 4.343399999999999750e+01 1.585840000000000032e+02 2.054619999999999891e+03
1.010000000000000064e-01 1.896094999999999864e-01 4.387154999999999916e+01 1.608975000000000080e+02 2.055394999999999982e+03
1.020000000000000073e-01 1.897094999999999754e-01 4.420510000000000161e+01 1.629979999999999905e+02 2.056119999999999891e+03
1.030000000000000082e-01 1.898015000000000119e-01 4.443205000000000382e+01 1.648735000000000070e+02 2.056784999999999854e+03
1.040000000000000091e-01 1.898834999999999829e-01 4.455065000000000452e+01 1.665165000000000077e+02 2.057380000000000109e+03
1.050000000000000100e-01 1.899565000000000003e-01 4.456054999999999922e+01 1.679225000000000136e+02 2.057904999999999745e+03
1.059999999999999970e-01 1.900195000000000078e-01 4.446309999999999718e+01 1.690904999999999916e+02 2.058369999999999891e+03
1.069999999999999979e-01 1.900729999999999920e-01 4.426120000000000232e+01 1.700235000000000127e+02 2.058760000000000218e+03
1.079999999999999988e-01 1.901174999999999948e-01 4.395980000000000132e+01 1.707314999999999827e+02 2.059085000000000036e+03
1.089999999999999997e-01 1.901519999999999877e-01 4.356550000000000011e+01 1.712259999999999991e+02 2.059345000000000255e+03
1.100000000000000006e-01 1.901780000000000137e-01 4.308644999999999925e+01 1.715240000000000009e+02 2.059539999999999964e+03
1.110000000000000014e-01 1.901964999999999906e-01 4.253204999999999814e+01 1.716465000000000032e+02 2.059680000000000291e+03
1.120000000000000023e-01 1.902074999999999738e-01 4.191294999999999504e+01 1.716150000000000091e+02 2.059764999999999873e+03
1.130000000000000032e-01 1.902115000000000056e-01 4.124009999999999820e+01 1.714555000000000007e+02 2.059805000000000291e+03
1.140000000000000041e-01 1.902099999999999902e-01 4.052474999999999739e+01 1.711904999999999859e+02 2.059805000000000291e+03
1.150000000000000050e-01 1.902044999999999986e-01 3.977805000000000035e+01 1.708435000000000059e+02 2.059764999999999873e+03
1.160000000000000059e-01 1.901950000000000029e-01 3.901050000000000040e+01 1.704370000000000118e+02 2.059699999999999818e+03
1.170000000000000068e-01 1.901825000000000043e-01 3.823174999999999812e+01 1.699904999999999973e+02 2.059614999999999782e+03
1.180000000000000077e-01 1.901680000000000037e-01 3.745035000000000025e+01 1.695204999999999984e+02 2.059514999999999873e+03
1.190000000000000085e-01 1.901519999999999877e-01 3.667345000000000255e+01 1.690395000000000039e+02 2.059400000000000091e+03
1.200000000000000094e-01 1.901349999999999985e-01 3.590690000000000026e+01 1.685585000000000093e+02 2.059284999999999854e+03
1.209999999999999964e-01 1.901174999999999948e-01 3.515505000000000280e+01 1.680824999999999818e+02 2.059155000000000200e+03
1.219999999999999973e-01 1.900995000000000046e-01 3.442049999999999699e+01 1.676144999999999925e+02 2.059034999999999854e+03
1.229999999999999982e-01 1.900820000000000010e-01 3.370449999999999591e+01 1.671544999999999845e+02 2.058900000000000091e+03
1.239999999999999991e-01 1.900634999999999963e-01 3.300699999999999790e+01 1.666985000000000241e+02 2.058769999999999982e+03
1.250000000000000000e-01 1.900454999999999783e-01 3.232649999999999579e+01 1.662404999999999973e+02 2.058635000000000218e+03
1.260000000000000009e-01 1.900264999999999871e-01 3.166045000000000087e+01 1.657715000000000032e+02 2.058500000000000000e+03
1.270000000000000018e-01 1.900074999999999958e-01 3.100539999999999807e+01 1.652835000000000036e+02 2.058364999999999782e+03
1.280000000000000027e-01 1.899869999999999892e-01 3.035734999999999673e+01 1.647649999999999864e+02 2.058215000000000146e+03
1.290000000000000036e-01 1.899649999999999950e-01 2.971189999999999998e+01 1.642049999999999841e+02 2.058059999999999945e+03
1.300000000000000044e-01 1.899414999999999853e-01 2.906434999999999746e+01 1.635930000000000177e+02 2.057890000000000327e+03
1.310000000000000053e-01 1.899155000000000149e-01 2.841035000000000110e+01 1.629184999999999945e+02 2.057704999999999927e+03
1.320000000000000062e-01 1.898874999999999869e-01 2.774595000000000056e+01 1.621734999999999900e+02 2.057500000000000000e+03
1.330000000000000071e-01 1.898559999999999970e-01 2.706779999999999831e+01 1.613514999999999873e+02 2.057274999999999636e+03
1.340000000000000080e-01 1.898214999999999764e-01 2.637335000000000207e+01 1.604479999999999791e+02 2.057034999999999854e+03
1.350000000000000089e-01 1.897840000000000082e-01 2.566120000000000090e+01 1.594625000000000057e+02 2.056769999999999982e+03
1.360000000000000098e-01 1.897429999999999950e-01 2.493104999999999905e+01 1.583954999999999984e+02 2.056480000000000018e+03
1.370000000000000107e-01 1.896990000000000065e-01 2.418399999999999750e+01 1.572524999999999977e+02 2.056164999999999964e+03
1.380000000000000115e-01 1.896525000000000016e-01 2.342229999999999990e+01 1.560409999999999968e+02 2.055835000000000036e+03
1.390000000000000124e-01 1.896025000000000071e-01 2.264950000000000330e+01 1.547715000000000032e+02 2.055480000000000018e+03
1.400000000000000133e-01 1.895505000000000106e-01 2.187030000000000030e+01 1.534579999999999984e+02 2.055110000000000127e+03
1.410000000000000142e-01 1.894969999999999988e-01 2.109029999999999916e+01 1.521165000000000020e+02 2.054730000000000018e+03
1.420000000000000151e-01 1.894415000000000127e-01 2.031605000000000061e+01 1.507640000000000100e+02 2.054340000000000146e+03
1.430000000000000160e-01 1.893869999999999998e-01 1.955444999999999922e+01 1.494180000000000064e+02 2.053949999999999818e+03
1.440000000000000169e-01 1.893314999999999859e-01 1.881264999999999787e+01 1.480974999999999966e+02 2.053554999999999836e+03
1.450000000000000178e-01 1.892770000000000008e-01 1.809775000000000134e+01 1.468199999999999932e+02 2.053170000000000073e+03
1.459999999999999909e-01 1.892245000000000177e-01 1.741639999999999944e+01 1.456025000000000205e+02 2.052795000000000073e+03
1.469999999999999918e-01 1.891744999999999954e-01 1.677475000000000094e+01 1.444590000000000032e+02 2.052434999999999945e+03
1.479999999999999927e-01 1.891269999999999896e-01 1.617794999999999916e+01 1.434019999999999868e+02 2.052095000000000255e+03
1.489999999999999936e-01 1.890824999999999867e-01 1.563009999999999877e+01 1.424410000000000025e+02 2.051775000000000091e+03
1.499999999999999944e-01 1.890419999999999878e-01 1.513429999999999964e+01 1.415819999999999936e+02 2.051484999999999673e+03
1.509999999999999953e-01 1.890054999999999930e-01 1.469229999999999947e+01 1.408284999999999911e+02 2.051220000000000255e+03
1.519999999999999962e-01 1.889730000000000021e-01 1.430470000000000041e+01 1.401809999999999832e+02 2.050985000000000127e+03
1.529999999999999971e-01 1.889445000000000152e-01 1.397090000000000032e+01 1.396370000000000005e+02 2.050775000000000091e+03
1.539999999999999980e-01 1.889199999999999768e-01 1.368925000000000125e+01 1.391909999999999741e+02 2.050599999999999909e+03
1.549999999999999989e-01 1.888994999999999980e-01 1.345730000000000004e+01 1.388375000000000057e+02 2.050449999999999818e+03
1.559999999999999998e-01 1.888825000000000087e-01 1.327155000000000129e+01 1.385674999999999955e+02 2.050324999999999818e+03
1.570000000000000007e-01 1.888694999999999957e-01 1.312809999999999988e+01 1.383725000000000023e+02 2.050224999999999909e+03
1.580000000000000016e-01 1.888589999999999991e-01 1.302250000000000085e+01 1.382420000000000186e+02 2.050150000000000091e+03
1.590000000000000024e-01 1.888509999999999911e-01 1.295005000000000095e+01 1.381649999999999920e+02 2.050085000000000036e+03
