# t [s], A [cm^2], U [cm/s], P [cPa], c [cm/s]
1.000000000000000021e-03 1.945350000000000135e-01 2.799185000000000145e-01 9.287819999999999254e+01 2.021244999999999891e+03
2.000000000000000042e-03 1.944915000000000116e-01 1.702671500000000115e+00 8.988665000000000305e+01 2.020944999999999936e+03
3.000000000000000062e-03 1.943624999999999936e-01 3.457004500000000036e+00 8.578454999999999586e+01 2.020099999999999909e+03
4.000000000000000083e-03 1.941815000000000069e-01 5.420560000000000045e+00 8.127355000000000018e+01 2.018929999999999836e+03
5.000000000000000104e-03 1.939830000000000165e-01 7.533064999999999678e+00 7.717640000000000100e+01 2.017659999999999854e+03
6.000000000000000125e-03 1.937895000000000034e-01 9.645870000000000388e+00 7.381770000000000209e+01 2.016434999999999945e+03
7.000000000000000146e-03 1.936069999999999736e-01 1.156008500000000083e+01 7.101364999999999839e+01 2.015299999999999955e+03
8.000000000000000167e-03 1.934394999999999865e-01 1.317640000000000100e+01 6.851814999999999145e+01 2.014275000000000091e+03
9.000000000000001055e-03 1.932909999999999906e-01 1.451825000000000010e+01 6.633820000000000050e+01 2.013380000000000109e+03
1.000000000000000194e-02 1.931645000000000167e-01 1.562379999999999924e+01 6.455599999999999739e+01 2.012619999999999891e+03
1.099999999999999936e-02 1.930610000000000104e-01 1.650885000000000247e+01 6.316649999999999920e+01 2.012014999999999873e+03
1.200000000000000025e-02 1.929780000000000106e-01 1.718520000000000181e+01 6.211275000000000546e+01 2.011534999999999854e+03
1.300000000000000114e-02 1.929135000000000155e-01 1.765934999999999988e+01 6.131104999999999450e+01 2.011164999999999964e+03
1.400000000000000203e-02 1.928615000000000190e-01 1.793785000000000096e+01 6.065600000000000591e+01 2.010875000000000000e+03
1.499999999999999944e-02 1.928199999999999914e-01 1.806019999999999825e+01 6.010214999999999463e+01 2.010650000000000091e+03
1.600000000000000033e-02 1.927899999999999892e-01 1.812444999999999951e+01 5.976720000000000255e+01 2.010494999999999891e+03
1.700000000000000122e-02 1.927789999999999782e-01 1.826324999999999932e+01 5.992295000000000016e+01 2.010440000000000055e+03
1.800000000000000211e-02 1.927949999999999942e-01 1.858310000000000173e+01 6.084834999999999638e+01 2.010550000000000182e+03
1.900000000000000300e-02 1.928435000000000010e-01 1.911019999999999897e+01 6.264674999999999727e+01 2.010840000000000146e+03
2.000000000000000042e-02 1.929224999999999968e-01 1.977540000000000120e+01 6.514869999999999095e+01 2.011309999999999945e+03
2.100000000000000130e-02 1.930209999999999981e-01 2.044284999999999997e+01 6.794819999999999993e+01 2.011910000000000082e+03
2.200000000000000219e-02 1.931249999999999911e-01 2.096170000000000044e+01 7.053999999999999204e+01 2.012539999999999964e+03
2.299999999999999961e-02 1.932169999999999999e-01 2.121799999999999997e+01 7.248680000000000234e+01 2.013105000000000018e+03
2.400000000000000050e-02 1.932860000000000134e-01 2.116619999999999990e+01 7.354715000000000202e+01 2.013545000000000073e+03
2.500000000000000139e-02 1.933265000000000122e-01 2.083344999999999914e+01 7.372364999999999213e+01 2.013809999999999945e+03
2.600000000000000228e-02 1.933400000000000118e-01 2.029874999999999829e+01 7.322305000000000064e+01 2.013910000000000082e+03
2.700000000000000316e-02 1.933334999999999915e-01 1.965780000000000172e+01 7.235580000000000211e+01 2.013884999999999991e+03
2.800000000000000058e-02 1.933159999999999878e-01 1.898920000000000030e+01 7.141814999999999714e+01 2.013785000000000082e+03
2.900000000000000147e-02 1.932935000000000070e-01 1.833310000000000173e+01 7.060069999999998913e+01 2.013659999999999854e+03
3.000000000000000236e-02 1.932719999999999994e-01 1.768724999999999881e+01 6.995095000000000596e+01 2.013529999999999973e+03
3.099999999999999978e-02 1.932515000000000205e-01 1.701950000000000074e+01 6.939209999999999923e+01 2.013404999999999973e+03
3.200000000000000067e-02 1.932284999999999975e-01 1.628869999999999862e+01 6.878215000000000146e+01 2.013269999999999982e+03
3.300000000000000155e-02 1.931999999999999829e-01 1.546739999999999959e+01 6.798785000000000878e+01 2.013105000000000018e+03
3.400000000000000244e-02 1.931634999999999880e-01 1.455839999999999890e+01 6.694974999999999454e+01 2.012884999999999991e+03
3.500000000000000333e-02 1.931189999999999851e-01 1.360099999999999909e+01 6.571795000000000186e+01 2.012630000000000109e+03
3.600000000000000422e-02 1.930705000000000060e-01 1.266515000000000057e+01 6.444960000000000377e+01 2.012340000000000146e+03
3.700000000000000511e-02 1.930244999999999878e-01 1.183575000000000088e+01 6.337134999999999962e+01 2.012059999999999945e+03
3.799999999999999906e-02 1.929879999999999929e-01 1.119187000000000154e+01 6.271784999999999854e+01 2.011840000000000146e+03
3.899999999999999994e-02 1.929695000000000160e-01 1.078699999999999903e+01 6.266719999999999402e+01 2.011715000000000146e+03
4.000000000000000083e-02 1.929734999999999923e-01 1.063605000000000089e+01 6.329130000000000678e+01 2.011724999999999909e+03
4.100000000000000172e-02 1.930010000000000059e-01 1.071189999999999998e+01 6.453509999999999991e+01 2.011880000000000109e+03
4.200000000000000261e-02 1.930489999999999984e-01 1.095149999999999935e+01 6.622620000000000573e+01 2.012154999999999973e+03
4.300000000000000350e-02 1.931114999999999915e-01 1.126825000000000010e+01 6.811029999999999518e+01 2.012519999999999982e+03
4.400000000000000439e-02 1.931785000000000030e-01 1.156745000000000090e+01 6.989979999999999905e+01 2.012920000000000073e+03
4.499999999999999833e-02 1.932409999999999961e-01 1.176149999999999984e+01 7.132399999999999807e+01 2.013289999999999964e+03
4.599999999999999922e-02 1.932899999999999896e-01 1.178064999999999962e+01 7.216929999999999268e+01 2.013585000000000036e+03
4.700000000000000011e-02 1.933170000000000166e-01 1.157969999999999899e+01 7.230344999999999800e+01 2.013760000000000218e+03
4.800000000000000100e-02 1.933185000000000042e-01 1.113909999999999911e+01 7.168209999999999127e+01 2.013775000000000091e+03
4.900000000000000189e-02 1.932924999999999782e-01 1.046218999999999966e+01 7.033944999999999936e+01 2.013625000000000000e+03
5.000000000000000278e-02 1.932399999999999951e-01 9.569475000000000620e+00 6.836834999999999241e+01 2.013319999999999936e+03
5.100000000000000366e-02 1.931634999999999880e-01 8.492865000000000109e+00 6.589610000000000412e+01 2.012869999999999891e+03
5.200000000000000455e-02 1.930669999999999886e-01 7.269705000000000084e+00 6.306199999999999761e+01 2.012295000000000073e+03
5.300000000000000544e-02 1.929555000000000020e-01 5.938909999999999911e+00 6.000024999999999409e+01 2.011630000000000109e+03
5.399999999999999939e-02 1.928330000000000044e-01 4.538990000000000080e+00 5.683034999999999570e+01 2.010894999999999982e+03
5.500000000000000028e-02 1.927045000000000008e-01 3.107355000000000089e+00 5.365479999999999450e+01 2.010130000000000109e+03
5.600000000000000117e-02 1.925749999999999962e-01 1.680979999999999919e+00 5.056170000000000186e+01 2.009345000000000027e+03
5.700000000000000205e-02 1.924465000000000203e-01 2.972000000000001307e-01 4.763015000000000043e+01 2.008570000000000164e+03
5.800000000000000294e-02 1.923230000000000217e-01 -1.005595000000000239e+00 4.493545000000000300e+01 2.007825000000000045e+03
5.900000000000000383e-02 1.922094999999999776e-01 -2.188105000000000189e+00 4.255290000000000106e+01 2.007134999999999991e+03
6.000000000000000472e-02 1.921074999999999866e-01 -3.210933000000000259e+00 4.055854999999999677e+01 2.006514999999999873e+03
6.099999999999999867e-02 1.920215000000000116e-01 -4.036260000000000403e+00 3.902684999999999604e+01 2.005985000000000127e+03
6.199999999999999956e-02 1.919534999999999991e-01 -4.629995000000000083e+00 3.802639999999999532e+01 2.005570000000000164e+03
6.300000000000000044e-02 1.919079999999999953e-01 -4.964039999999999786e+00 3.761384999999999934e+01 2.005279999999999973e+03
6.400000000000000133e-02 1.918865000000000154e-01 -5.018419999999999881e+00 3.782880000000000109e+01 2.005130000000000109e+03
6.500000000000000222e-02 1.918900000000000050e-01 -4.782795000000000130e+00 3.868834999999999980e+01 2.005139999999999873e+03
6.600000000000000311e-02 1.919200000000000073e-01 -4.257304999999999673e+00 4.018519999999999470e+01 2.005299999999999955e+03
6.700000000000000400e-02 1.919759999999999800e-01 -3.452644999999999964e+00 4.228674999999999784e+01 2.005619999999999891e+03
6.800000000000000488e-02 1.920569999999999777e-01 -2.389300899999999839e+00 4.493730000000000047e+01 2.006085000000000036e+03
6.900000000000000577e-02 1.921605000000000119e-01 -1.096245000000000136e+00 4.806135000000000446e+01 2.006690000000000055e+03
7.000000000000000666e-02 1.922845000000000248e-01 3.908100000000001017e-01 5.156920000000000215e+01 2.007425000000000182e+03
7.100000000000000755e-02 1.924244999999999983e-01 2.031499999999999861e+00 5.536240000000000094e+01 2.008255000000000109e+03
7.200000000000000844e-02 1.925775000000000126e-01 3.782946600000000270e+00 5.933960000000000434e+01 2.009170000000000073e+03
7.300000000000000933e-02 1.927395000000000080e-01 5.601944999999999730e+00 6.340274999999999750e+01 2.010134999999999991e+03
7.399999999999999634e-02 1.929059999999999941e-01 7.447034999999999627e+00 6.746164999999999168e+01 2.011139999999999873e+03
7.499999999999999722e-02 1.930739999999999956e-01 9.280300000000000438e+00 7.143919999999999959e+01 2.012154999999999973e+03
7.599999999999999811e-02 1.932409999999999961e-01 1.106895499999999899e+01 7.527379999999999427e+01 2.013159999999999854e+03
7.699999999999999900e-02 1.934035000000000060e-01 1.278651999999999944e+01 7.892220000000000368e+01 2.014150000000000091e+03
7.799999999999999989e-02 1.935600000000000098e-01 1.441334999999999944e+01 8.235994999999999777e+01 2.015105000000000018e+03
7.900000000000000078e-02 1.937095000000000067e-01 1.593700000000000117e+01 8.558070000000000732e+01 2.016014999999999873e+03
8.000000000000000167e-02 1.938515000000000099e-01 1.735154999999999959e+01 8.859444999999999482e+01 2.016884999999999991e+03
8.100000000000000255e-02 1.939855000000000051e-01 1.865735000000000099e+01 9.142439999999999145e+01 2.017714999999999918e+03
8.200000000000000344e-02 1.941140000000000088e-01 1.985920000000000130e+01 9.410280000000000200e+01 2.018500000000000000e+03
8.300000000000000433e-02 1.942359999999999920e-01 2.096580000000000155e+01 9.666714999999999236e+01 2.019250000000000000e+03
8.400000000000000522e-02 1.943535000000000124e-01 2.198750000000000071e+01 9.915574999999999761e+01 2.019980000000000018e+03
8.500000000000000611e-02 1.944684999999999886e-01 2.293570000000000064e+01 1.016043499999999966e+02 2.020695000000000164e+03
8.600000000000000699e-02 1.945815000000000183e-01 2.382119999999999749e+01 1.040417999999999950e+02 2.021394999999999982e+03
8.700000000000000788e-02 1.946940000000000059e-01 2.465344999999999942e+01 1.064900000000000091e+02 2.022085000000000036e+03
8.800000000000000877e-02 1.948064999999999936e-01 2.543959999999999866e+01 1.089610000000000127e+02 2.022779999999999973e+03
8.899999999999999578e-02 1.949194999999999955e-01 2.618435000000000201e+01 1.114574999999999960e+02 2.023480000000000018e+03
8.999999999999999667e-02 1.950334999999999985e-01 2.688969999999999771e+01 1.139735000000000014e+02 2.024180000000000064e+03
9.099999999999999756e-02 1.951470000000000149e-01 2.755474999999999852e+01 1.164934999999999974e+02 2.024880000000000109e+03
9.199999999999999845e-02 1.952610000000000179e-01 2.817624999999999957e+01 1.189969999999999999e+02 2.025585000000000036e+03
9.299999999999999933e-02 1.953734999999999777e-01 2.874875000000000114e+01 1.214579999999999984e+02 2.026284999999999854e+03
9.400000000000000022e-02 1.954845000000000055e-01 2.926500000000000057e+01 1.238460000000000036e+02 2.026970000000000027e+03
9.500000000000000111e-02 1.955919999999999881e-01 2.971659999999999968e+01 1.261305000000000121e+02 2.027630000000000109e+03
9.600000000000000200e-02 1.956950000000000078e-01 3.009445000000000192e+01 1.282785000000000082e+02 2.028269999999999982e+03
9.700000000000000289e-02 1.957920000000000216e-01 3.038920000000000243e+01 1.302615000000000123e+02 2.028869999999999891e+03
9.800000000000000377e-02 1.958820000000000006e-01 3.059205000000000041e+01 1.320509999999999877e+02 2.029434999999999945e+03
9.900000000000000466e-02 1.959650000000000003e-01 3.069500000000000028e+01 1.336234999999999786e+02 2.029949999999999818e+03
1.000000000000000056e-01 1.960379999999999900e-01 3.069150000000000134e+01 1.349590000000000032e+02 2.030405000000000200e+03
1.010000000000000064e-01 1.961010000000000253e-01 3.057690000000000197e+01 1.360439999999999827e+02 2.030805000000000064e+03
1.020000000000000073e-01 1.961539999999999950e-01 3.034880000000000067e+01 1.368709999999999809e+02 2.031130000000000109e+03
1.030000000000000082e-01 1.961954999999999949e-01 3.000719999999999743e+01 1.374385000000000048e+02 2.031400000000000091e+03
1.040000000000000091e-01 1.962269999999999848e-01 2.955485000000000184e+01 1.377524999999999977e+02 2.031599999999999909e+03
1.050000000000000100e-01 1.962470000000000048e-01 2.899715000000000131e+01 1.378245000000000005e+02 2.031735000000000127e+03
1.059999999999999970e-01 1.962570000000000148e-01 2.834210000000000207e+01 1.376734999999999900e+02 2.031800000000000182e+03
1.069999999999999979e-01 1.962575000000000014e-01 2.760000000000000142e+01 1.373220000000000027e+02 2.031815000000000055e+03
1.079999999999999988e-01 1.962490000000000068e-01 2.678314999999999912e+01 1.367980000000000018e+02 2.031769999999999982e+03
1.089999999999999997e-01 1.962335000000000051e-01 2.590524999999999878e+01 1.361320000000000050e+02 2.031679999999999836e+03
1.100000000000000006e-01 1.962110000000000243e-01 2.498110000000000142e+01 1.353559999999999945e+02 2.031545000000000073e+03
1.110000000000000014e-01 1.961835000000000107e-01 2.402564999999999884e+01 1.345024999999999977e+02 2.031384999999999991e+03
1.120000000000000023e-01 1.961519999999999930e-01 2.305389999999999873e+01 1.336020000000000039e+02 2.031194999999999936e+03
1.130000000000000032e-01 1.961180000000000145e-01 2.208014999999999972e+01 1.326834999999999809e+02 2.030990000000000009e+03
1.140000000000000041e-01 1.960830000000000073e-01 2.111730000000000018e+01 1.317724999999999795e+02 2.030775000000000091e+03
1.150000000000000050e-01 1.960465000000000124e-01 2.017685000000000173e+01 1.308899999999999864e+02 2.030550000000000182e+03
1.160000000000000059e-01 1.960115000000000052e-01 1.926825000000000188e+01 1.300519999999999925e+02 2.030335000000000036e+03
1.170000000000000068e-01 1.959774999999999989e-01 1.839890000000000114e+01 1.292704999999999984e+02 2.030125000000000000e+03
1.180000000000000077e-01 1.959445000000000214e-01 1.757365000000000066e+01 1.285500000000000114e+02 2.029924999999999955e+03
1.190000000000000085e-01 1.959140000000000048e-01 1.679514999999999958e+01 1.278915000000000077e+02 2.029730000000000018e+03
1.200000000000000094e-01 1.958854999999999902e-01 1.606380000000000052e+01 1.272904999999999944e+02 2.029554999999999836e+03
1.209999999999999964e-01 1.958594999999999919e-01 1.537760000000000105e+01 1.267384999999999877e+02 2.029390000000000100e+03
1.219999999999999973e-01 1.958344999999999947e-01 1.473275000000000112e+01 1.262224999999999966e+02 2.029230000000000018e+03
1.229999999999999982e-01 1.958104999999999984e-01 1.412375000000000114e+01 1.257270000000000039e+02 2.029079999999999927e+03
1.239999999999999991e-01 1.957875000000000032e-01 1.354394999999999882e+01 1.252349999999999994e+02 2.028934999999999945e+03
1.250000000000000000e-01 1.957645000000000080e-01 1.298564999999999969e+01 1.247265000000000015e+02 2.028789999999999964e+03
1.260000000000000009e-01 1.957404999999999839e-01 1.244089999999999918e+01 1.241834999999999951e+02 2.028639999999999873e+03
1.270000000000000018e-01 1.957154999999999867e-01 1.190174999999999983e+01 1.235884999999999962e+02 2.028485000000000127e+03
1.280000000000000027e-01 1.956880000000000008e-01 1.136054000000000030e+01 1.229260000000000019e+02 2.028309999999999945e+03
1.290000000000000036e-01 1.956574999999999842e-01 1.081078499999999920e+01 1.221825000000000045e+02 2.028130000000000109e+03
1.300000000000000044e-01 1.956245000000000067e-01 1.024706499999999920e+01 1.213489999999999895e+02 2.027920000000000073e+03
1.310000000000000053e-01 1.955874999999999975e-01 9.665565000000000850e+00 1.204205000000000041e+02 2.027690000000000055e+03
1.320000000000000062e-01 1.955465000000000120e-01 9.064230000000000231e+00 1.193969999999999914e+02 2.027440000000000055e+03
1.330000000000000071e-01 1.955014999999999947e-01 8.442964999999999165e+00 1.182819999999999965e+02 2.027170000000000073e+03
1.340000000000000080e-01 1.954535000000000022e-01 7.803675000000000139e+00 1.170840000000000032e+02 2.026869999999999891e+03
1.350000000000000089e-01 1.954015000000000057e-01 7.150140000000000384e+00 1.158179999999999978e+02 2.026554999999999836e+03
1.360000000000000098e-01 1.953469999999999929e-01 6.487885000000000346e+00 1.145000000000000000e+02 2.026220000000000027e+03
1.370000000000000107e-01 1.952900000000000191e-01 5.823925000000000018e+00 1.131504999999999939e+02 2.025869999999999891e+03
1.380000000000000115e-01 1.952320000000000166e-01 5.166459999999999830e+00 1.117920000000000016e+02 2.025514999999999873e+03
1.390000000000000124e-01 1.951734999999999998e-01 4.524435000000000429e+00 1.104474999999999909e+02 2.025154999999999973e+03
1.400000000000000133e-01 1.951154999999999973e-01 3.907140000000000057e+00 1.091415000000000077e+02 2.024799999999999955e+03
1.410000000000000142e-01 1.950590000000000102e-01 3.323790000000000244e+00 1.078969999999999914e+02 2.024449999999999818e+03
1.420000000000000151e-01 1.950045000000000250e-01 2.783059999999999867e+00 1.067340000000000089e+02 2.024115000000000009e+03
1.430000000000000160e-01 1.949535000000000018e-01 2.292726500000000112e+00 1.056705000000000041e+02 2.023800000000000182e+03
1.440000000000000169e-01 1.949059999999999959e-01 1.859314000000000133e+00 1.047214999999999918e+02 2.023509999999999991e+03
1.450000000000000178e-01 1.948634999999999950e-01 1.487872000000000083e+00 1.038965000000000032e+02 2.023244999999999891e+03
1.459999999999999909e-01 1.948259999999999992e-01 1.181759000000000004e+00 1.032030000000000030e+02 2.023009999999999991e+03
1.469999999999999918e-01 1.947939999999999949e-01 9.425704999999999778e-01 1.026419999999999959e+02 2.022805000000000064e+03
1.479999999999999927e-01 1.947665000000000091e-01 7.701236000000000193e-01 1.022104999999999961e+02 2.022639999999999873e+03
1.489999999999999936e-01 1.947450000000000014e-01 6.625305000000000222e-01 1.019039999999999964e+02 2.022500000000000000e+03
1.499999999999999944e-01 1.947284999999999988e-01 6.163305000000000033e-01 1.017119999999999891e+02 2.022394999999999982e+03
1.509999999999999953e-01 1.947170000000000012e-01 6.266785000000000272e-01 1.016219999999999999e+02 2.022320000000000164e+03
1.519999999999999962e-01 1.947095000000000076e-01 6.875894999999999646e-01 1.016204999999999927e+02 2.022264999999999873e+03
1.529999999999999971e-01 1.947059999999999902e-01 7.921860000000000568e-01 1.016910000000000025e+02 2.022235000000000127e+03
1.539999999999999980e-01 1.947055000000000036e-01 9.329780000000000850e-01 1.018180000000000121e+02 2.022230000000000018e+03
1.549999999999999989e-01 1.947075000000000056e-01 1.102139999999999898e+00 1.019840000000000089e+02 2.022240000000000009e+03
1.559999999999999998e-01 1.947119999999999962e-01 1.291770000000000085e+00 1.021735000000000042e+02 2.022264999999999873e+03
1.570000000000000007e-01 1.947174999999999878e-01 1.494145000000000056e+00 1.023710000000000093e+02 2.022295000000000073e+03
1.580000000000000016e-01 1.947234999999999938e-01 1.701940000000000008e+00 1.025635000000000048e+02 2.022329999999999927e+03
1.590000000000000024e-01 1.947294999999999998e-01 1.908430000000000071e+00 1.027379999999999995e+02 2.022365000000000009e+03
