# t [s], A [cm^2], U [cm/s], P [cPa], c [cm/s]
1.000000000000000021e-03 1.958995000000000042e-01 3.236575499999999606e-01 9.732094999999999629e+01 2.075095000000000255e+03
2.000000000000000042e-03 1.958380000000000121e-01 1.928291500000000047e+00 9.386825000000000330e+01 2.074579999999999927e+03
3.000000000000000062e-03 1.956789999999999918e-01 3.919510499999999897e+00 8.900900000000000034e+01 2.073300000000000182e+03
4.000000000000000083e-03 1.954660000000000009e-01 6.169171500000000030e+00 8.375804999999999723e+01 2.071610000000000127e+03
5.000000000000000104e-03 1.952419999999999989e-01 8.588424999999999088e+00 7.912645000000000550e+01 2.069855000000000018e+03
6.000000000000000125e-03 1.950299999999999812e-01 1.095527999999999835e+01 7.538380000000000791e+01 2.068215000000000146e+03
7.000000000000000146e-03 1.948340000000000072e-01 1.301621999999999879e+01 7.218309999999999604e+01 2.066725000000000364e+03
8.000000000000000167e-03 1.946565000000000101e-01 1.470443000000000033e+01 6.929694999999999538e+01 2.065404999999999745e+03
9.000000000000001055e-03 1.945044999999999968e-01 1.608220000000000027e+01 6.683944999999999936e+01 2.064289999999999964e+03
1.000000000000000194e-02 1.943785000000000096e-01 1.718830000000000169e+01 6.488349999999999795e+01 2.063375000000000000e+03
1.099999999999999936e-02 1.942785000000000206e-01 1.804785000000000039e+01 6.339179999999999637e+01 2.062659999999999854e+03
1.200000000000000025e-02 1.942030000000000145e-01 1.868925000000000125e+01 6.231024999999999636e+01 2.062125000000000000e+03
1.300000000000000114e-02 1.941459999999999853e-01 1.911820000000000164e+01 6.152169999999999561e+01 2.061730000000000018e+03
1.400000000000000203e-02 1.941010000000000235e-01 1.934490000000000265e+01 6.087369999999999948e+01 2.061434999999999945e+03
1.499999999999999944e-02 1.940665000000000029e-01 1.945769999999999911e+01 6.038575000000000159e+01 2.061210000000000036e+03
1.600000000000000033e-02 1.940514999999999879e-01 1.963510000000000133e+01 6.037805000000000177e+01 2.061119999999999891e+03
1.700000000000000122e-02 1.940680000000000183e-01 2.005879999999999797e+01 6.131020000000000181e+01 2.061250000000000000e+03
1.800000000000000211e-02 1.941265000000000074e-01 2.079950000000000188e+01 6.344134999999999991e+01 2.061680000000000291e+03
1.900000000000000300e-02 1.942254999999999954e-01 2.176310000000000144e+01 6.658180000000000121e+01 2.062400000000000091e+03
2.000000000000000042e-02 1.943479999999999930e-01 2.272610000000000241e+01 7.010054999999999836e+01 2.063305000000000291e+03
2.100000000000000130e-02 1.944700000000000040e-01 2.343140000000000001e+01 7.316264999999999930e+01 2.064215000000000146e+03
2.200000000000000219e-02 1.945655000000000023e-01 2.369075000000000131e+01 7.505424999999999613e+01 2.064944999999999709e+03
2.299999999999999961e-02 1.946180000000000132e-01 2.345035000000000025e+01 7.544219999999999970e+01 2.065369999999999891e+03
2.400000000000000050e-02 1.946224999999999761e-01 2.279755000000000109e+01 7.446359999999999957e+01 2.065440000000000055e+03
2.500000000000000139e-02 1.945890000000000120e-01 2.191199999999999903e+01 7.262669999999999959e+01 2.065224999999999909e+03
2.600000000000000228e-02 1.945355000000000001e-01 2.098899999999999721e+01 7.058195000000000618e+01 2.064845000000000255e+03
2.700000000000000316e-02 1.944799999999999862e-01 2.016899999999999693e+01 6.887344999999999118e+01 2.064434999999999945e+03
2.800000000000000058e-02 1.944345000000000101e-01 1.950039999999999907e+01 6.776964999999999861e+01 2.064085000000000036e+03
2.900000000000000147e-02 1.944035000000000069e-01 1.894194999999999851e+01 6.722294999999999732e+01 2.063849999999999909e+03
3.000000000000000236e-02 1.943830000000000002e-01 1.839714999999999989e+01 6.694814999999999827e+01 2.063695000000000164e+03
3.099999999999999978e-02 1.943630000000000080e-01 1.776265000000000072e+01 6.657210000000000605e+01 2.063550000000000182e+03
3.200000000000000067e-02 1.943350000000000077e-01 1.697475000000000023e+01 6.579534999999999911e+01 2.063345000000000255e+03
3.300000000000000155e-02 1.942915000000000059e-01 1.603890000000000171e+01 6.451434999999999320e+01 2.063034999999999854e+03
3.400000000000000244e-02 1.942349999999999910e-01 1.503500000000000014e+01 6.286979999999999791e+01 2.062625000000000000e+03
3.500000000000000333e-02 1.941729999999999845e-01 1.409615000000000151e+01 6.120735000000000525e+01 2.062170000000000073e+03
3.600000000000000422e-02 1.941184999999999994e-01 1.336915000000000120e+01 5.996760000000000446e+01 2.061764999999999873e+03
3.700000000000000511e-02 1.940854999999999941e-01 1.297070000000000078e+01 5.954455000000000098e+01 2.061505000000000109e+03
3.799999999999999906e-02 1.940844999999999931e-01 1.295299999999999940e+01 6.016225000000000023e+01 2.061474999999999909e+03
3.899999999999999994e-02 1.941195000000000004e-01 1.328930000000000078e+01 6.180564999999999998e+01 2.061704999999999927e+03
4.000000000000000083e-02 1.941875000000000129e-01 1.388100000000000023e+01 6.422249999999999659e+01 2.062184999999999945e+03
4.100000000000000172e-02 1.942765000000000186e-01 1.458019999999999960e+01 6.698509999999998854e+01 2.062829999999999927e+03
4.200000000000000261e-02 1.943725000000000036e-01 1.522159999999999869e+01 6.958795000000000641e+01 2.063524999999999636e+03
4.300000000000000350e-02 1.944575000000000053e-01 1.565244999999999997e+01 7.155160000000000764e+01 2.064154999999999745e+03
4.400000000000000439e-02 1.945164999999999811e-01 1.575655000000000072e+01 7.250800000000000978e+01 2.064605000000000018e+03
4.499999999999999833e-02 1.945379999999999887e-01 1.546744999999999948e+01 7.225145000000000550e+01 2.064784999999999854e+03
4.599999999999999922e-02 1.945159999999999945e-01 1.476974999999999838e+01 7.075069999999999482e+01 2.064645000000000437e+03
4.700000000000000011e-02 1.944504999999999983e-01 1.369284999999999997e+01 6.812584999999999980e+01 2.064179999999999836e+03
4.800000000000000100e-02 1.943455000000000044e-01 1.229722500000000096e+01 6.460259999999999536e+01 2.063425000000000182e+03
4.900000000000000189e-02 1.942089999999999927e-01 1.066028000000000020e+01 6.045770000000000266e+01 2.062430000000000291e+03
5.000000000000000278e-02 1.940489999999999993e-01 8.864090000000000913e+00 5.597079999999999700e+01 2.061260000000000218e+03
5.100000000000000366e-02 1.938765000000000072e-01 6.987030000000000740e+00 5.139099999999999824e+01 2.059989999999999782e+03
5.200000000000000455e-02 1.936984999999999957e-01 5.100283999999999374e+00 4.692130000000000223e+01 2.058675000000000182e+03
5.300000000000000544e-02 1.935234999999999872e-01 3.267584999999999518e+00 4.271970000000000312e+01 2.057380000000000109e+03
5.399999999999999939e-02 1.933570000000000011e-01 1.547520000000000229e+00 3.890975000000000250e+01 2.056144999999999982e+03
5.500000000000000028e-02 1.932045000000000012e-01 -4.194999999999948770e-03 3.559510000000000218e+01 2.055015000000000327e+03
5.600000000000000117e-02 1.930709999999999926e-01 -1.333314999999999806e+00 3.287129999999999797e+01 2.054019999999999982e+03
5.700000000000000205e-02 1.929609999999999936e-01 -2.387472999999999956e+00 3.083180000000000121e+01 2.053190000000000055e+03
5.800000000000000294e-02 1.928785000000000083e-01 -3.118415000000000159e+00 2.956680000000000064e+01 2.052559999999999945e+03
5.900000000000000383e-02 1.928269999999999984e-01 -3.485500000000000043e+00 2.915595000000000070e+01 2.052159999999999854e+03
6.000000000000000472e-02 1.928100000000000092e-01 -3.459744999999999848e+00 2.965769999999999840e+01 2.052010000000000218e+03
6.099999999999999867e-02 1.928300000000000014e-01 -3.027250000000000441e+00 3.109850000000000136e+01 2.052119999999999891e+03
6.199999999999999956e-02 1.928865000000000163e-01 -2.191369499999999970e+00 3.346495000000000175e+01 2.052514999999999873e+03
6.300000000000000044e-02 1.929804999999999993e-01 -9.730849999999999778e-01 3.670069999999999766e+01 2.053175000000000182e+03
6.400000000000000133e-02 1.931080000000000019e-01 5.904749999999998611e-01 4.070919999999999561e+01 2.054085000000000036e+03
6.500000000000000222e-02 1.932665000000000077e-01 2.448909999999999698e+00 4.536119999999999663e+01 2.055225000000000364e+03
6.600000000000000311e-02 1.934494999999999965e-01 4.542288500000000617e+00 5.050504999999999711e+01 2.056559999999999945e+03
6.700000000000000400e-02 1.936530000000000196e-01 6.805165000000000575e+00 5.597865000000000180e+01 2.058050000000000182e+03
6.800000000000000488e-02 1.938705000000000012e-01 9.170284999999999798e+00 6.162004999999999910e+01 2.059644999999999982e+03
6.900000000000000577e-02 1.940955000000000041e-01 1.157206500000000027e+01 6.727680000000000859e+01 2.061309999999999945e+03
7.000000000000000666e-02 1.943219999999999947e-01 1.394918499999999995e+01 7.281284999999999741e+01 2.062989999999999782e+03
7.100000000000000755e-02 1.945449999999999957e-01 1.624719999999999942e+01 7.811400000000000432e+01 2.064654999999999745e+03
7.200000000000000844e-02 1.947605000000000031e-01 1.842045000000000243e+01 8.309155000000001223e+01 2.066264999999999873e+03
7.300000000000000933e-02 1.949640000000000262e-01 2.043400000000000105e+01 8.768540000000000134e+01 2.067795000000000073e+03
7.399999999999999634e-02 1.951545000000000085e-01 2.226460000000000150e+01 9.186554999999999893e+01 2.069235000000000127e+03
7.499999999999999722e-02 1.953294999999999892e-01 2.390174999999999983e+01 9.563224999999999909e+01 2.070565000000000055e+03
7.599999999999999811e-02 1.954899999999999971e-01 2.534709999999999752e+01 9.901489999999999725e+01 2.071784999999999854e+03
7.699999999999999900e-02 1.956364999999999910e-01 2.661374999999999957e+01 1.020683500000000095e+02 2.072900000000000091e+03
7.799999999999999989e-02 1.957710000000000006e-01 2.772419999999999973e+01 1.048665000000000020e+02 2.073934999999999945e+03
7.900000000000000078e-02 1.958965000000000012e-01 2.870759999999999934e+01 1.074960000000000093e+02 2.074894999999999982e+03
8.000000000000000167e-02 1.960155000000000092e-01 2.959704999999999941e+01 1.100484999999999900e+02 2.075809999999999945e+03
8.100000000000000255e-02 1.961324999999999874e-01 3.042620000000000147e+01 1.126084999999999923e+02 2.076699999999999818e+03
8.200000000000000344e-02 1.962494999999999934e-01 3.122614999999999696e+01 1.152520000000000095e+02 2.077594999999999800e+03
8.300000000000000433e-02 1.963695000000000024e-01 3.202304999999999779e+01 1.180339999999999918e+02 2.078505000000000109e+03
8.400000000000000522e-02 1.964940000000000020e-01 3.283610000000000184e+01 1.209894999999999925e+02 2.079454999999999927e+03
8.500000000000000611e-02 1.966245000000000076e-01 3.367624999999999602e+01 1.241280000000000001e+02 2.080445000000000164e+03
8.600000000000000699e-02 1.967615000000000058e-01 3.454579999999999984e+01 1.274339999999999975e+02 2.081484999999999673e+03
8.700000000000000788e-02 1.969035000000000091e-01 3.543880000000000052e+01 1.308729999999999905e+02 2.082565000000000055e+03
8.800000000000000877e-02 1.970500000000000029e-01 3.634199999999999875e+01 1.343899999999999864e+02 2.083675000000000182e+03
8.899999999999999578e-02 1.971990000000000132e-01 3.723604999999999876e+01 1.379174999999999898e+02 2.084805000000000291e+03
8.999999999999999667e-02 1.973469999999999946e-01 3.809720000000000084e+01 1.413810000000000002e+02 2.085930000000000291e+03
9.099999999999999756e-02 1.974920000000000009e-01 3.889955000000000496e+01 1.447030000000000030e+02 2.087034999999999854e+03
9.199999999999999845e-02 1.976304999999999867e-01 3.961625000000000085e+01 1.478075000000000045e+02 2.088095000000000255e+03
9.299999999999999933e-02 1.977599999999999913e-01 4.022189999999999799e+01 1.506265000000000214e+02 2.089090000000000146e+03
9.400000000000000022e-02 1.978779999999999983e-01 4.069364999999999810e+01 1.531014999999999873e+02 2.089994999999999891e+03
9.500000000000000111e-02 1.979825000000000057e-01 4.101274999999999693e+01 1.551885000000000048e+02 2.090800000000000182e+03
9.600000000000000200e-02 1.980709999999999971e-01 4.116535000000000366e+01 1.568569999999999993e+02 2.091484999999999673e+03
9.700000000000000289e-02 1.981430000000000136e-01 4.114334999999999809e+01 1.580919999999999845e+02 2.092055000000000291e+03
9.800000000000000377e-02 1.981974999999999987e-01 4.094474999999999909e+01 1.588940000000000055e+02 2.092485000000000127e+03
9.900000000000000466e-02 1.982355000000000089e-01 4.057349999999999568e+01 1.592789999999999964e+02 2.092784999999999854e+03
1.000000000000000056e-01 1.982565000000000022e-01 4.003950000000000387e+01 1.592775000000000034e+02 2.092965000000000146e+03
1.010000000000000064e-01 1.982619999999999938e-01 3.935770000000000124e+01 1.589294999999999902e+02 2.093019999999999982e+03
1.020000000000000073e-01 1.982539999999999858e-01 3.854739999999999611e+01 1.582835000000000036e+02 2.092975000000000364e+03
1.030000000000000082e-01 1.982339999999999935e-01 3.763114999999999810e+01 1.573969999999999914e+02 2.092829999999999927e+03
1.040000000000000091e-01 1.982035000000000047e-01 3.663370000000000459e+01 1.563274999999999864e+02 2.092609999999999673e+03
1.050000000000000100e-01 1.981654999999999944e-01 3.558084999999999809e+01 1.551354999999999791e+02 2.092329999999999927e+03
1.059999999999999970e-01 1.981224999999999792e-01 3.449819999999999709e+01 1.538774999999999977e+02 2.092010000000000218e+03
1.069999999999999979e-01 1.980760000000000021e-01 3.341035000000000110e+01 1.526075000000000159e+02 2.091659999999999854e+03
1.079999999999999988e-01 1.980279999999999818e-01 3.233960000000000434e+01 1.513720000000000141e+02 2.091300000000000182e+03
1.089999999999999997e-01 1.979815000000000047e-01 3.130564999999999998e+01 1.502100000000000080e+02 2.090940000000000055e+03
1.100000000000000006e-01 1.979370000000000018e-01 3.032444999999999879e+01 1.491535000000000082e+02 2.090605000000000018e+03
1.110000000000000014e-01 1.978955000000000020e-01 2.940814999999999912e+01 1.482219999999999800e+02 2.090284999999999854e+03
1.120000000000000023e-01 1.978590000000000071e-01 2.856435000000000102e+01 1.474275000000000091e+02 2.090000000000000000e+03
1.130000000000000032e-01 1.978270000000000028e-01 2.779645000000000010e+01 1.467704999999999984e+02 2.089750000000000000e+03
1.140000000000000041e-01 1.978000000000000036e-01 2.710325000000000273e+01 1.462425000000000068e+02 2.089539999999999964e+03
1.150000000000000050e-01 1.977769999999999806e-01 2.647944999999999993e+01 1.458254999999999768e+02 2.089355000000000018e+03
1.160000000000000059e-01 1.977579999999999893e-01 2.591604999999999848e+01 1.454945000000000164e+02 2.089210000000000036e+03
1.170000000000000068e-01 1.977420000000000011e-01 2.540090000000000003e+01 1.452169999999999845e+02 2.089079999999999927e+03
1.180000000000000077e-01 1.977285000000000015e-01 2.491935000000000144e+01 1.449565000000000055e+02 2.088965000000000146e+03
1.190000000000000085e-01 1.977144999999999875e-01 2.445539999999999736e+01 1.446744999999999948e+02 2.088855000000000018e+03
1.200000000000000094e-01 1.976995000000000002e-01 2.399249999999999972e+01 1.443315000000000055e+02 2.088739999999999782e+03
1.209999999999999964e-01 1.976824999999999832e-01 2.351435000000000031e+01 1.438905000000000030e+02 2.088605000000000018e+03
1.219999999999999973e-01 1.976610000000000034e-01 2.300614999999999810e+01 1.433189999999999884e+02 2.088440000000000055e+03
1.229999999999999982e-01 1.976350000000000051e-01 2.245514999999999972e+01 1.425900000000000034e+02 2.088244999999999891e+03
1.239999999999999991e-01 1.976019999999999999e-01 2.185174999999999912e+01 1.416854999999999905e+02 2.087994999999999891e+03
1.250000000000000000e-01 1.975629999999999886e-01 2.118994999999999962e+01 1.405964999999999918e+02 2.087699999999999818e+03
1.260000000000000009e-01 1.975159999999999971e-01 2.046759999999999735e+01 1.393230000000000075e+02 2.087345000000000255e+03
1.270000000000000018e-01 1.974625000000000130e-01 1.968674999999999997e+01 1.378770000000000095e+02 2.086940000000000055e+03
1.280000000000000027e-01 1.974024999999999808e-01 1.885340000000000060e+01 1.362779999999999916e+02 2.086485000000000127e+03
1.290000000000000036e-01 1.973364999999999980e-01 1.797745000000000104e+01 1.345550000000000068e+02 2.085994999999999891e+03
1.300000000000000044e-01 1.972654999999999825e-01 1.707179999999999964e+01 1.327454999999999927e+02 2.085460000000000036e+03
1.310000000000000053e-01 1.971915000000000195e-01 1.615194999999999936e+01 1.308899999999999864e+02 2.084899999999999636e+03
1.320000000000000062e-01 1.971160000000000134e-01 1.523505000000000109e+01 1.290329999999999870e+02 2.084324999999999818e+03
1.330000000000000071e-01 1.970405000000000073e-01 1.433905000000000030e+01 1.272190000000000083e+02 2.083755000000000109e+03
1.340000000000000080e-01 1.969660000000000022e-01 1.348160000000000025e+01 1.254915000000000020e+02 2.083190000000000055e+03
1.350000000000000089e-01 1.968955000000000011e-01 1.267940000000000111e+01 1.238900000000000006e+02 2.082650000000000091e+03
1.360000000000000098e-01 1.968300000000000050e-01 1.194720500000000030e+01 1.224480000000000075e+02 2.082149999999999636e+03
1.370000000000000107e-01 1.967700000000000005e-01 1.129742000000000068e+01 1.211929999999999978e+02 2.081694999999999709e+03
1.380000000000000115e-01 1.967184999999999906e-01 1.073920500000000011e+01 1.201440000000000055e+02 2.081295000000000073e+03
1.390000000000000124e-01 1.966740000000000155e-01 1.027860000000000085e+01 1.193110000000000070e+02 2.080954999999999927e+03
1.400000000000000133e-01 1.966380000000000072e-01 9.918150000000000688e+00 1.186965000000000003e+02 2.080670000000000073e+03
1.410000000000000142e-01 1.966109999999999802e-01 9.656849999999998602e+00 1.182944999999999993e+02 2.080454999999999927e+03
1.420000000000000151e-01 1.965919999999999890e-01 9.490694999999998771e+00 1.180914999999999964e+02 2.080304999999999836e+03
1.430000000000000160e-01 1.965804999999999914e-01 9.412725000000000009e+00 1.180695000000000050e+02 2.080210000000000036e+03
1.440000000000000169e-01 1.965764999999999874e-01 9.413579999999999615e+00 1.182030000000000030e+02 2.080175000000000182e+03
1.450000000000000178e-01 1.965790000000000037e-01 9.481975000000000264e+00 1.184650000000000034e+02 2.080180000000000291e+03
1.459999999999999909e-01 1.965864999999999974e-01 9.605415000000000703e+00 1.188259999999999934e+02 2.080230000000000018e+03
1.469999999999999918e-01 1.965979999999999950e-01 9.770585000000000520e+00 1.192545000000000073e+02 2.080315000000000055e+03
1.479999999999999927e-01 1.966124999999999956e-01 9.963984999999999204e+00 1.197214999999999918e+02 2.080414999999999964e+03
1.489999999999999936e-01 1.966284999999999838e-01 1.017248500000000000e+01 1.201989999999999981e+02 2.080534999999999854e+03
1.499999999999999944e-01 1.966455000000000009e-01 1.038359999999999950e+01 1.206610000000000014e+02 2.080659999999999854e+03
1.509999999999999953e-01 1.966624999999999901e-01 1.058614999999999995e+01 1.210850000000000080e+02 2.080784999999999854e+03
1.519999999999999962e-01 1.966780000000000195e-01 1.077039999999999864e+01 1.214519999999999982e+02 2.080899999999999636e+03
1.529999999999999971e-01 1.966914999999999913e-01 1.092839999999999989e+01 1.217485000000000070e+02 2.081005000000000109e+03
1.539999999999999980e-01 1.967025000000000023e-01 1.105410000000000004e+01 1.219650000000000034e+02 2.081090000000000146e+03
1.549999999999999989e-01 1.967105000000000103e-01 1.114344999999999963e+01 1.220960000000000036e+02 2.081149999999999636e+03
1.559999999999999998e-01 1.967154999999999876e-01 1.119450000000000145e+01 1.221409999999999911e+02 2.081195000000000164e+03
1.570000000000000007e-01 1.967170000000000030e-01 1.120715000000000039e+01 1.221030000000000086e+02 2.081210000000000036e+03
1.580000000000000016e-01 1.967154999999999876e-01 1.118324999999999925e+01 1.219894999999999925e+02 2.081199999999999818e+03
1.590000000000000024e-01 1.967119999999999980e-01 1.112614999999999910e+01 1.218100000000000023e+02 2.081175000000000182e+03
