# t [s], A [cm^2], U [cm/s], P [cPa], c [cm/s]
1.000000000000000021e-03 7.375104999999999578e-01 6.129000000000002502e-03 1.017170000000000130e+02 1.648260000000000218e+03
2.000000000000000042e-03 7.374979999999999869e-01 -1.429244999999999995e-03 1.016835000000000093e+02 1.648250000000000000e+03
3.000000000000000062e-03 7.375730000000000341e-01 1.184937499999999810e-01 1.018139999999999930e+02 1.648280000000000200e+03
4.000000000000000083e-03 7.376234999999999875e-01 2.164163499999999796e-01 1.019284999999999997e+02 1.648309999999999945e+03
5.000000000000000104e-03 7.375650000000000261e-01 1.572215000000000140e-01 1.017994999999999948e+02 1.648284999999999854e+03
6.000000000000000125e-03 7.374699999999999589e-01 3.379149999999997434e-02 1.014960000000000093e+02 1.648210000000000036e+03
7.000000000000000146e-03 7.373825000000000518e-01 -8.983050000000003532e-02 1.011209999999999951e+02 1.648125000000000000e+03
8.000000000000000167e-03 7.372279999999999944e-01 -3.366649999999999920e-01 1.005350499999999982e+02 1.647980000000000018e+03
9.000000000000001055e-03 7.369885000000000463e-01 -7.376449999999998841e-01 9.965675000000000239e+01 1.647775000000000091e+03
1.000000000000000194e-02 7.366650000000000142e-01 -1.281289999999999818e+00 9.845314999999999372e+01 1.647485000000000127e+03
1.099999999999999936e-02 7.362245000000000594e-01 -2.001145000000000174e+00 9.683424999999999727e+01 1.647095000000000027e+03
1.200000000000000025e-02 7.356610000000000094e-01 -2.882989999999999942e+00 9.475929999999999609e+01 1.646579999999999927e+03
1.300000000000000114e-02 7.350464999999999360e-01 -3.780545000000000044e+00 9.237254999999998972e+01 1.645980000000000018e+03
1.400000000000000203e-02 7.344935000000000214e-01 -4.472183999999999493e+00 8.997390000000000043e+01 1.645345000000000027e+03
1.499999999999999944e-02 7.340824999999999712e-01 -4.785785999999999873e+00 8.785765000000000668e+01 1.644755000000000109e+03
1.600000000000000033e-02 7.338219999999999743e-01 -4.673964999999999925e+00 8.617640000000000100e+01 1.644250000000000000e+03
1.700000000000000122e-02 7.336584999999999912e-01 -4.211375000000000313e+00 8.490014999999999645e+01 1.643829999999999927e+03
1.800000000000000211e-02 7.335099999999999953e-01 -3.544585000000000097e+00 8.385775000000001000e+01 1.643465000000000146e+03
1.900000000000000300e-02 7.332985000000000753e-01 -2.827368499999999951e+00 8.282184999999999775e+01 1.643105000000000018e+03
2.000000000000000042e-02 7.329810000000001047e-01 -2.164342500000000058e+00 8.160224999999999795e+01 1.642710000000000036e+03
2.100000000000000130e-02 7.325614999999999766e-01 -1.581474999999999742e+00 8.011365000000000691e+01 1.642255000000000109e+03
2.200000000000000219e-02 7.320789999999999242e-01 -1.034680000000000044e+00 7.839099999999999113e+01 1.641744999999999891e+03
2.299999999999999961e-02 7.315869999999999873e-01 -4.492500000000001492e-01 7.655010000000000048e+01 1.641204999999999927e+03
2.400000000000000050e-02 7.311255000000000948e-01 2.327500000000002345e-01 7.472085000000001287e+01 1.640664999999999964e+03
2.500000000000000139e-02 7.307069999999999954e-01 1.019025000000000070e+00 7.298465000000000202e+01 1.640130000000000109e+03
2.600000000000000228e-02 7.303109999999999324e-01 1.856829999999999981e+00 7.133960000000000434e+01 1.639619999999999891e+03
2.700000000000000316e-02 7.298945000000000016e-01 2.643810000000000215e+00 6.969720000000000937e+01 1.639115000000000009e+03
2.800000000000000058e-02 7.294024999999999537e-01 3.253445000000000142e+00 6.790680000000000405e+01 1.638570000000000164e+03
2.900000000000000147e-02 7.287859999999999339e-01 3.567635000000000112e+00 6.579970000000000141e+01 1.637964999999999918e+03
3.000000000000000236e-02 7.280185000000000128e-01 3.508655000000000079e+00 6.324060000000000059e+01 1.637259999999999991e+03
3.099999999999999978e-02 7.271030000000000548e-01 3.061279999999999557e+00 6.017365000000000208e+01 1.636429999999999836e+03
3.200000000000000067e-02 7.260744999999999560e-01 2.277684999999999516e+00 5.664639999999999986e+01 1.635490000000000009e+03
3.300000000000000155e-02 7.249924999999999287e-01 1.263759999999999550e+00 5.280490000000000350e+01 1.634465000000000146e+03
3.400000000000000244e-02 7.239275000000000571e-01 1.531500000000001194e-01 4.886445000000000505e+01 1.633404999999999973e+03
3.500000000000000333e-02 7.229449999999999488e-01 -9.203200000000002490e-01 4.506754999999999711e+01 1.632360000000000127e+03
3.600000000000000422e-02 7.220999999999999641e-01 -1.843985000000000429e+00 4.164405000000000001e+01 1.631400000000000091e+03
3.700000000000000511e-02 7.214279999999999582e-01 -2.538314999999999877e+00 3.878099999999999881e+01 1.630555000000000064e+03
3.799999999999999906e-02 7.209455000000000169e-01 -2.958835000000000104e+00 3.660580000000000211e+01 1.629880000000000109e+03
3.899999999999999994e-02 7.206565000000000332e-01 -3.091651000000000149e+00 3.518274999999999864e+01 1.629400000000000091e+03
4.000000000000000083e-02 7.205509999999999415e-01 -2.944234999999999935e+00 3.452020000000000266e+01 1.629115000000000009e+03
4.100000000000000172e-02 7.206150000000000055e-01 -2.534980000000000011e+00 3.458545000000000158e+01 1.629025000000000091e+03
4.200000000000000261e-02 7.208330000000000570e-01 -1.884115999999999902e+00 3.532189999999999941e+01 1.629125000000000000e+03
4.300000000000000350e-02 7.211899999999999977e-01 -1.007985000000000131e+00 3.666454999999999842e+01 1.629400000000000091e+03
4.400000000000000439e-02 7.216744999999999965e-01 8.215499999999975600e-02 3.855020000000000380e+01 1.629835000000000036e+03
4.499999999999999833e-02 7.222759999999999181e-01 1.377484999999999626e+00 4.092085000000000150e+01 1.630410000000000082e+03
4.599999999999999922e-02 7.229830000000000423e-01 2.866839999999999833e+00 4.372145000000000437e+01 1.631115000000000009e+03
4.700000000000000011e-02 7.237824999999999953e-01 4.531859999999999999e+00 4.689480000000000359e+01 1.631929999999999836e+03
4.800000000000000100e-02 7.246559999999999668e-01 6.344289999999999985e+00 5.037699999999999534e+01 1.632840000000000146e+03
4.900000000000000189e-02 7.255850000000000355e-01 8.265399500000000899e+00 5.409425000000000239e+01 1.633829999999999927e+03
5.000000000000000278e-02 7.265444999999999265e-01 1.024854500000000002e+01 5.796430000000000149e+01 1.634875000000000000e+03
5.100000000000000366e-02 7.275114999999999776e-01 1.224304000000000059e+01 6.189970000000000283e+01 1.635950000000000045e+03
5.200000000000000455e-02 7.284629999999999717e-01 1.419909999999999961e+01 6.581434999999999036e+01 1.637035000000000082e+03
5.300000000000000544e-02 7.293815000000000159e-01 1.607238500000000059e+01 6.962975000000000136e+01 1.638110000000000127e+03
5.399999999999999939e-02 7.302520000000000122e-01 1.782724999999999937e+01 7.328149999999999409e+01 1.639150000000000091e+03
5.500000000000000028e-02 7.310674999999999812e-01 1.943885000000000218e+01 7.672329999999999472e+01 1.640150000000000091e+03
5.600000000000000117e-02 7.318240000000000300e-01 2.089365000000000094e+01 7.992910000000000537e+01 1.641095000000000027e+03
5.700000000000000205e-02 7.325230000000000352e-01 2.218820000000000192e+01 8.289260000000000161e+01 1.641980000000000018e+03
5.800000000000000294e-02 7.331704999999999472e-01 2.332770000000000010e+01 8.562524999999999409e+01 1.642804999999999836e+03
5.900000000000000383e-02 7.337750000000000661e-01 2.432365000000000066e+01 8.815240000000000009e+01 1.643579999999999927e+03
6.000000000000000472e-02 7.343459999999999432e-01 2.519229999999999947e+01 9.050980000000001269e+01 1.644300000000000182e+03
6.099999999999999867e-02 7.348940000000000472e-01 2.595275000000000176e+01 9.273939999999998918e+01 1.644990000000000009e+03
6.199999999999999956e-02 7.354294999999999582e-01 2.662570000000000192e+01 9.488634999999999309e+01 1.645650000000000091e+03
6.300000000000000044e-02 7.359629999999999228e-01 2.723250000000000171e+01 9.699559999999999604e+01 1.646299999999999955e+03
6.400000000000000133e-02 7.365049999999999653e-01 2.779359999999999786e+01 9.910864999999999725e+01 1.646940000000000055e+03
6.500000000000000222e-02 7.370630000000000237e-01 2.832784999999999798e+01 1.012619499999999988e+02 1.647585000000000036e+03
6.600000000000000311e-02 7.376424999999999788e-01 2.885074999999999790e+01 1.034834999999999923e+02 1.648244999999999891e+03
6.700000000000000400e-02 7.382465000000000277e-01 2.937340000000000018e+01 1.057909999999999968e+02 1.648930000000000064e+03
6.800000000000000488e-02 7.388744999999999896e-01 2.990149999999999864e+01 1.081905000000000001e+02 1.649630000000000109e+03
6.900000000000000577e-02 7.395235000000000003e-01 3.043464999999999776e+01 1.106740000000000066e+02 1.650355000000000018e+03
7.000000000000000666e-02 7.401864999999999695e-01 3.096685000000000088e+01 1.132210000000000036e+02 1.651095000000000027e+03
7.100000000000000755e-02 7.408540000000000125e-01 3.148649999999999949e+01 1.158000000000000114e+02 1.651849999999999909e+03
7.200000000000000844e-02 7.415140000000000065e-01 3.197789999999999822e+01 1.183700000000000045e+02 1.652605000000000018e+03
7.300000000000000933e-02 7.421554999999999680e-01 3.242300000000000182e+01 1.208834999999999980e+02 1.653340000000000146e+03
7.399999999999999634e-02 7.427645000000000497e-01 3.280264999999999986e+01 1.232914999999999992e+02 1.654054999999999836e+03
7.499999999999999722e-02 7.433300000000000463e-01 3.309829999999999472e+01 1.255444999999999993e+02 1.654730000000000018e+03
7.599999999999999811e-02 7.438415000000000443e-01 3.329370000000000118e+01 1.275989999999999895e+02 1.655355000000000018e+03
7.699999999999999900e-02 7.442914999999999948e-01 3.337539999999999907e+01 1.294174999999999898e+02 1.655920000000000073e+03
7.799999999999999989e-02 7.446730000000000294e-01 3.333435000000000059e+01 1.309719999999999800e+02 1.656414999999999964e+03
7.900000000000000078e-02 7.449835000000000207e-01 3.316550000000000153e+01 1.322450000000000045e+02 1.656829999999999927e+03
8.000000000000000167e-02 7.452225000000000099e-01 3.286854999999999905e+01 1.332289999999999850e+02 1.657170000000000073e+03
8.100000000000000255e-02 7.453920000000000545e-01 3.244765000000000299e+01 1.339279999999999973e+02 1.657425000000000182e+03
8.200000000000000344e-02 7.454959999999999365e-01 3.191100000000000136e+01 1.343555000000000064e+02 1.657610000000000127e+03
8.300000000000000433e-02 7.455400000000000915e-01 3.127049999999999841e+01 1.345324999999999989e+02 1.657714999999999918e+03
8.400000000000000522e-02 7.455330000000000013e-01 3.054100000000000037e+01 1.344894999999999925e+02 1.657755000000000109e+03
8.500000000000000611e-02 7.454829999999998957e-01 2.973969999999999914e+01 1.342604999999999791e+02 1.657735000000000127e+03
8.600000000000000699e-02 7.453994999999999926e-01 2.888519999999999754e+01 1.338830000000000098e+02 1.657670000000000073e+03
8.700000000000000788e-02 7.452925000000000244e-01 2.799710000000000321e+01 1.333969999999999914e+02 1.657570000000000164e+03
8.800000000000000877e-02 7.451710000000000278e-01 2.709459999999999980e+01 1.328414999999999964e+02 1.657440000000000055e+03
8.899999999999999578e-02 7.450444999999999984e-01 2.619594999999999985e+01 1.322545000000000073e+02 1.657295000000000073e+03
8.999999999999999667e-02 7.449200000000000266e-01 2.531779999999999831e+01 1.316689999999999827e+02 1.657144999999999982e+03
9.099999999999999756e-02 7.448049999999999393e-01 2.447415000000000163e+01 1.311144999999999925e+02 1.656990000000000009e+03
9.199999999999999845e-02 7.447030000000000038e-01 2.367624999999999957e+01 1.306134999999999877e+02 1.656849999999999909e+03
9.299999999999999933e-02 7.446194999999999897e-01 2.293179999999999907e+01 1.301825000000000045e+02 1.656724999999999909e+03
9.400000000000000022e-02 7.445534999999999792e-01 2.224504999999999910e+01 1.298309999999999889e+02 1.656615000000000009e+03
9.500000000000000111e-02 7.445064999999999600e-01 2.161670000000000158e+01 1.295610000000000070e+02 1.656529999999999973e+03
9.600000000000000200e-02 7.444755000000000678e-01 2.104404999999999859e+01 1.293679999999999950e+02 1.656460000000000036e+03
9.700000000000000289e-02 7.444589999999999819e-01 2.052154999999999774e+01 1.292415000000000020e+02 1.656410000000000082e+03
9.800000000000000377e-02 7.444520000000000026e-01 2.004100000000000037e+01 1.291674999999999898e+02 1.656375000000000000e+03
9.900000000000000466e-02 7.444489999999999164e-01 1.959224999999999994e+01 1.291250000000000000e+02 1.656349999999999909e+03
1.000000000000000056e-01 7.444450000000000234e-01 1.916389999999999816e+01 1.290929999999999893e+02 1.656325000000000045e+03
1.010000000000000064e-01 7.444344999999999990e-01 1.874370000000000047e+01 1.290494999999999948e+02 1.656305000000000064e+03
1.020000000000000073e-01 7.444120000000000736e-01 1.831940000000000168e+01 1.289705000000000155e+02 1.656275000000000091e+03
1.030000000000000082e-01 7.443714999999999637e-01 1.787940000000000040e+01 1.288340000000000032e+02 1.656234999999999900e+03
1.040000000000000091e-01 7.443100000000000271e-01 1.741329999999999956e+01 1.286210000000000093e+02 1.656174999999999955e+03
1.050000000000000100e-01 7.442225000000000090e-01 1.691264999999999930e+01 1.283160000000000025e+02 1.656094999999999800e+03
1.059999999999999970e-01 7.441090000000000204e-01 1.637109999999999843e+01 1.279074999999999989e+02 1.655984999999999900e+03
1.069999999999999979e-01 7.439664999999999750e-01 1.578540000000000099e+01 1.273900000000000006e+02 1.655844999999999800e+03
1.079999999999999988e-01 7.437975000000000003e-01 1.515480000000000160e+01 1.267625000000000028e+02 1.655679999999999836e+03
1.089999999999999997e-01 7.436024999999999441e-01 1.448185000000000144e+01 1.260314999999999941e+02 1.655480000000000018e+03
1.100000000000000006e-01 7.433864999999999501e-01 1.377211999999999925e+01 1.252079999999999984e+02 1.655260000000000218e+03
1.110000000000000014e-01 7.431535000000000224e-01 1.303360500000000144e+01 1.243084999999999951e+02 1.655019999999999982e+03
1.120000000000000023e-01 7.429099999999999593e-01 1.227691000000000088e+01 1.233534999999999968e+02 1.654755000000000109e+03
1.130000000000000032e-01 7.426610000000000156e-01 1.151424000000000092e+01 1.223679999999999950e+02 1.654485000000000127e+03
1.140000000000000041e-01 7.424144999999999772e-01 1.075910999999999973e+01 1.213790000000000049e+02 1.654204999999999927e+03
1.150000000000000050e-01 7.421770000000000866e-01 1.002539499999999961e+01 1.204134999999999991e+02 1.653929999999999836e+03
1.160000000000000059e-01 7.419554999999999900e-01 9.326940000000000452e+00 1.194989999999999952e+02 1.653664999999999964e+03
1.170000000000000068e-01 7.417555000000000121e-01 8.676549999999998875e+00 1.186610000000000014e+02 1.653420000000000073e+03
1.180000000000000077e-01 7.415829999999999922e-01 8.085544999999999760e+00 1.179209999999999923e+02 1.653195000000000164e+03
1.190000000000000085e-01 7.414404999999999468e-01 7.563264999999999461e+00 1.172984999999999900e+02 1.653005000000000109e+03
1.200000000000000094e-01 7.413319999999999910e-01 7.116429999999999367e+00 1.168050000000000068e+02 1.652840000000000146e+03
1.209999999999999964e-01 7.412579999999999725e-01 6.749139999999999695e+00 1.164495000000000005e+02 1.652715000000000146e+03
1.219999999999999973e-01 7.412190000000000722e-01 6.462625000000000064e+00 1.162330000000000041e+02 1.652634999999999991e+03
1.229999999999999982e-01 7.412125000000000519e-01 6.255320000000000213e+00 1.161529999999999916e+02 1.652585000000000036e+03
1.239999999999999991e-01 7.412360000000000060e-01 6.123089999999999478e+00 1.161995000000000005e+02 1.652570000000000164e+03
1.250000000000000000e-01 7.412860000000000005e-01 6.059535000000000338e+00 1.163599999999999994e+02 1.652590000000000146e+03
1.260000000000000009e-01 7.413585000000000313e-01 6.056390000000000384e+00 1.166179999999999950e+02 1.652644999999999982e+03
1.270000000000000018e-01 7.414475000000000371e-01 6.104025000000000034e+00 1.169540000000000077e+02 1.652714999999999918e+03
1.280000000000000027e-01 7.415484999999999438e-01 6.191869999999999763e+00 1.173479999999999990e+02 1.652809999999999945e+03
1.290000000000000036e-01 7.416559999999999819e-01 6.309000000000000163e+00 1.177779999999999916e+02 1.652909999999999854e+03
1.300000000000000044e-01 7.417650000000000077e-01 6.444510000000000183e+00 1.182235000000000014e+02 1.653030000000000200e+03
1.310000000000000053e-01 7.418709999999999471e-01 6.587984999999999758e+00 1.186659999999999968e+02 1.653144999999999982e+03
1.320000000000000062e-01 7.419705000000000883e-01 6.729824999999999946e+00 1.190875000000000057e+02 1.653255000000000109e+03
1.330000000000000071e-01 7.420599999999999419e-01 6.861559999999999881e+00 1.194739999999999895e+02 1.653365000000000009e+03
1.340000000000000080e-01 7.421364999999999768e-01 6.976045000000000051e+00 1.198135000000000048e+02 1.653465000000000146e+03
1.350000000000000089e-01 7.421990000000000531e-01 7.067624999999999602e+00 1.200974999999999966e+02 1.653545000000000073e+03
1.360000000000000098e-01 7.422465000000000312e-01 7.132189999999999586e+00 1.203209999999999980e+02 1.653615000000000009e+03
1.370000000000000107e-01 7.422784999999999522e-01 7.167215000000000558e+00 1.204815000000000111e+02 1.653670000000000073e+03
1.380000000000000115e-01 7.422949999999999271e-01 7.171700000000000408e+00 1.205799999999999983e+02 1.653704999999999927e+03
1.390000000000000124e-01 7.422979999999999023e-01 7.146065000000000111e+00 1.206194999999999879e+02 1.653724999999999909e+03
1.400000000000000133e-01 7.422889999999999766e-01 7.092040000000000788e+00 1.206049999999999898e+02 1.653730000000000018e+03
1.410000000000000142e-01 7.422690000000000676e-01 7.012459999999999916e+00 1.205444999999999993e+02 1.653724999999999909e+03
1.420000000000000151e-01 7.422409999999999286e-01 6.911090000000000622e+00 1.204459999999999980e+02 1.653704999999999927e+03
1.430000000000000160e-01 7.422079999999999789e-01 6.792349999999999888e+00 1.203185000000000002e+02 1.653679999999999836e+03
1.440000000000000169e-01 7.421710000000000251e-01 6.661105000000000942e+00 1.201724999999999994e+02 1.653650000000000091e+03
1.450000000000000178e-01 7.421335000000000015e-01 6.522395000000000387e+00 1.200169999999999959e+02 1.653610000000000127e+03
1.459999999999999909e-01 7.420970000000000066e-01 6.381174999999999820e+00 1.198610000000000042e+02 1.653569999999999936e+03
1.469999999999999918e-01 7.420634999999999870e-01 6.242094999999999949e+00 1.197129999999999939e+02 1.653534999999999854e+03
1.479999999999999927e-01 7.420340000000000824e-01 6.109289999999999665e+00 1.195799999999999983e+02 1.653494999999999891e+03
1.489999999999999936e-01 7.420105000000000173e-01 5.986180000000000057e+00 1.194660000000000082e+02 1.653465000000000146e+03
1.499999999999999944e-01 7.419930000000000136e-01 5.875365000000000393e+00 1.193755000000000024e+02 1.653440000000000055e+03
1.509999999999999953e-01 7.419815000000000715e-01 5.778554999999999886e+00 1.193085000000000093e+02 1.653420000000000073e+03
1.519999999999999962e-01 7.419765000000000388e-01 5.696534999999999904e+00 1.192669999999999959e+02 1.653400000000000091e+03
1.529999999999999971e-01 7.419769999999999976e-01 5.629234999999999545e+00 1.192475000000000023e+02 1.653394999999999982e+03
1.539999999999999980e-01 7.419810000000000016e-01 5.575784999999999769e+00 1.192469999999999999e+02 1.653389999999999873e+03
1.549999999999999989e-01 7.419884999999999398e-01 5.534695000000000142e+00 1.192609999999999957e+02 1.653389999999999873e+03
1.559999999999999998e-01 7.419970000000000176e-01 5.503980000000000317e+00 1.192845000000000084e+02 1.653394999999999982e+03
1.570000000000000007e-01 7.420059999999999434e-01 5.481354999999999755e+00 1.193114999999999952e+02 1.653400000000000091e+03
1.580000000000000016e-01 7.420139999999999514e-01 5.464404999999999291e+00 1.193365000000000009e+02 1.653404999999999973e+03
1.590000000000000024e-01 7.420189999999999841e-01 5.450775000000000148e+00 1.193545000000000016e+02 1.653409999999999854e+03
