# t [s], A [cm^2], U [cm/s], P [cPa], c [cm/s]
1.000000000000000021e-03 7.376445000000000363e-01 8.153249999999993836e-03 1.094740000000000038e+02 1.811420000000000073e+03
2.000000000000000042e-03 7.376300000000000079e-01 -5.568214999999999623e-03 1.094364999999999952e+02 1.811414999999999964e+03
3.000000000000000062e-03 7.376840000000000064e-01 8.341534999999999922e-02 1.095490000000000066e+02 1.811434999999999945e+03
4.000000000000000083e-03 7.377369999999999761e-01 1.854057500000000080e-01 1.096905000000000001e+02 1.811470000000000027e+03
5.000000000000000104e-03 7.377050000000000551e-01 1.593349000000000015e-01 1.096200000000000045e+02 1.811454999999999927e+03
6.000000000000000125e-03 7.376325000000000243e-01 6.346800000000002440e-02 1.093725000000000023e+02 1.811405000000000200e+03
7.000000000000000146e-03 7.375795000000000545e-01 -6.680999999999992500e-03 1.090974999999999966e+02 1.811344999999999800e+03
8.000000000000000167e-03 7.374935000000000240e-01 -1.479210000000000247e-01 1.086905000000000001e+02 1.811264999999999873e+03
9.000000000000001055e-03 7.373454999999999870e-01 -4.155250000000000332e-01 1.080519999999999925e+02 1.811134999999999991e+03
1.000000000000000194e-02 7.371285000000000753e-01 -8.208300000000000596e-01 1.071264999999999930e+02 1.810949999999999818e+03
1.099999999999999936e-02 7.368164999999999853e-01 -1.399270000000000014e+00 1.058160000000000025e+02 1.810679999999999836e+03
1.200000000000000025e-02 7.364109999999999268e-01 -2.131534999999999958e+00 1.040879999999999939e+02 1.810329999999999927e+03
1.300000000000000114e-02 7.359720000000000706e-01 -2.886620000000000186e+00 1.020812999999999988e+02 1.809904999999999973e+03
1.400000000000000203e-02 7.355810000000000404e-01 -3.487682999999999645e+00 1.000474499999999978e+02 1.809460000000000036e+03
1.499999999999999944e-02 7.352819999999999911e-01 -3.814185049999999855e+00 9.819934999999999548e+01 1.809035000000000082e+03
1.600000000000000033e-02 7.350680000000000547e-01 -3.846545500000000395e+00 9.661669999999999447e+01 1.808639999999999873e+03
1.700000000000000122e-02 7.348935000000000883e-01 -3.646634500000000223e+00 9.524320000000000164e+01 1.808289999999999964e+03
1.800000000000000211e-02 7.347049999999999415e-01 -3.309223000000000248e+00 9.394565000000000055e+01 1.807945000000000164e+03
1.900000000000000300e-02 7.344654999999999934e-01 -2.915383499999999906e+00 9.258655000000000257e+01 1.807585000000000036e+03
2.000000000000000042e-02 7.341644999999999976e-01 -2.504380000000000273e+00 9.108180000000000121e+01 1.807200000000000045e+03
2.100000000000000130e-02 7.338154999999999539e-01 -2.068880000000000052e+00 8.942529999999999291e+01 1.806779999999999973e+03
2.200000000000000219e-02 7.334495000000000875e-01 -1.570865000000000178e+00 8.767824999999999136e+01 1.806340000000000146e+03
2.299999999999999961e-02 7.330955000000000110e-01 -9.691849999999999632e-01 8.593154999999998722e+01 1.805894999999999982e+03
2.400000000000000050e-02 7.327694999999999625e-01 -2.462650000000001782e-01 8.425999999999999091e+01 1.805460000000000036e+03
2.500000000000000139e-02 7.324669999999999792e-01 5.764050000000000562e-01 8.268770000000000664e+01 1.805045000000000073e+03
2.600000000000000228e-02 7.321660000000000945e-01 1.437789999999999901e+00 8.117419999999999902e+01 1.804644999999999982e+03
2.700000000000000316e-02 7.318340000000000956e-01 2.250049999999999883e+00 7.962404999999999688e+01 1.804235000000000127e+03
2.800000000000000058e-02 7.314359999999999751e-01 2.919875000000000220e+00 7.791419999999999391e+01 1.803800000000000182e+03
2.900000000000000147e-02 7.309490000000000709e-01 3.372505000000000308e+00 7.593250000000000455e+01 1.803315000000000055e+03
3.000000000000000236e-02 7.303690000000000460e-01 3.571655000000000246e+00 7.361504999999999654e+01 1.802765000000000100e+03
3.099999999999999978e-02 7.297119999999999163e-01 3.528259999999999952e+00 7.097079999999999700e+01 1.802154999999999973e+03
3.200000000000000067e-02 7.290130000000000221e-01 3.295245000000000424e+00 6.808414999999999395e+01 1.801490000000000009e+03
3.300000000000000155e-02 7.283155000000000046e-01 2.950284999999999602e+00 6.509520000000000550e+01 1.800804999999999836e+03
3.400000000000000244e-02 7.276595000000000146e-01 2.575474999999999959e+00 6.216875000000000284e+01 1.800119999999999891e+03
3.500000000000000333e-02 7.270790000000000308e-01 2.240165000000000628e+00 5.946219999999999573e+01 1.799474999999999909e+03
3.600000000000000422e-02 7.265939999999999621e-01 1.992074999999999818e+00 5.710290000000000532e+01 1.798900000000000091e+03
3.700000000000000511e-02 7.262129999999999974e-01 1.856439999999999868e+00 5.517719999999999914e+01 1.798414999999999964e+03
3.799999999999999906e-02 7.259359999999999147e-01 1.840945000000000054e+00 5.373120000000000118e+01 1.798029999999999973e+03
3.899999999999999994e-02 7.257605000000000306e-01 1.943667000000000034e+00 5.277935000000000088e+01 1.797759999999999991e+03
4.000000000000000083e-02 7.256814999999999793e-01 2.161287499999999806e+00 5.231685000000000230e+01 1.797599999999999909e+03
4.100000000000000172e-02 7.256964999999999666e-01 2.495260000000000034e+00 5.233275000000000432e+01 1.797549999999999955e+03
4.200000000000000261e-02 7.258059999999999512e-01 2.954544999999999977e+00 5.281869999999999976e+01 1.797610000000000127e+03
4.300000000000000350e-02 7.260130000000000194e-01 3.554600000000000204e+00 5.377309999999999945e+01 1.797789999999999964e+03
4.400000000000000439e-02 7.263220000000000232e-01 4.313276000000000110e+00 5.519894999999999641e+01 1.798074999999999818e+03
4.499999999999999833e-02 7.267339999999999911e-01 5.245361500000000454e+00 5.709829999999999472e+01 1.798469999999999800e+03
4.599999999999999922e-02 7.272475000000000467e-01 6.357634000000000007e+00 5.946480000000000388e+01 1.798980000000000018e+03
4.700000000000000011e-02 7.278565000000000174e-01 7.645599999999999952e+00 6.227764999999999418e+01 1.799595000000000027e+03
4.800000000000000100e-02 7.285490000000000022e-01 9.092784999999999229e+00 6.549850000000000705e+01 1.800309999999999945e+03
4.900000000000000189e-02 7.293110000000000426e-01 1.067206000000000010e+01 6.907169999999999277e+01 1.801115000000000009e+03
5.000000000000000278e-02 7.301239999999999952e-01 1.234893999999999892e+01 7.292740000000000578e+01 1.801985000000000127e+03
5.100000000000000366e-02 7.309704999999999675e-01 1.408528500000000072e+01 7.698775000000000546e+01 1.802920000000000073e+03
5.200000000000000455e-02 7.318329999999999558e-01 1.584337999999999980e+01 8.117295000000000016e+01 1.803890000000000100e+03
5.300000000000000544e-02 7.326969999999999317e-01 1.758910499999999999e+01 8.540819999999999368e+01 1.804884999999999991e+03
5.399999999999999939e-02 7.335499999999999243e-01 1.929420000000000002e+01 8.962864999999999327e+01 1.805889999999999873e+03
5.500000000000000028e-02 7.343859999999999832e-01 2.093710000000000093e+01 9.378305000000000291e+01 1.806884999999999991e+03
5.600000000000000117e-02 7.351980000000000182e-01 2.250305000000000177e+01 9.783400000000000318e+01 1.807865000000000009e+03
5.700000000000000205e-02 7.359845000000000415e-01 2.398274999999999935e+01 1.017595000000000027e+02 1.808825000000000045e+03
5.800000000000000294e-02 7.367449999999999832e-01 2.537185000000000201e+01 1.055478499999999968e+02 1.809759999999999991e+03
5.900000000000000383e-02 7.374810000000000532e-01 2.666895000000000238e+01 1.091992000000000047e+02 1.810660000000000082e+03
6.000000000000000472e-02 7.381940000000000168e-01 2.787474999999999881e+01 1.127179999999999893e+02 1.811539999999999964e+03
6.099999999999999867e-02 7.388865000000000016e-01 2.899074999999999847e+01 1.161144999999999925e+02 1.812384999999999991e+03
6.199999999999999956e-02 7.395599999999999952e-01 3.001849999999999596e+01 1.193984999999999985e+02 1.813210000000000036e+03
6.300000000000000044e-02 7.402155000000000262e-01 3.095914999999999750e+01 1.225784999999999911e+02 1.814009999999999991e+03
6.400000000000000133e-02 7.408535000000000537e-01 3.181245000000000189e+01 1.256595000000000084e+02 1.814789999999999964e+03
6.500000000000000222e-02 7.414724999999999788e-01 3.257710000000000150e+01 1.286440000000000055e+02 1.815545000000000073e+03
6.600000000000000311e-02 7.420720000000000649e-01 3.325050000000000239e+01 1.315260000000000105e+02 1.816269999999999982e+03
6.700000000000000400e-02 7.426475000000000160e-01 3.382914999999999850e+01 1.342975000000000136e+02 1.816974999999999909e+03
6.800000000000000488e-02 7.431980000000000253e-01 3.430930000000000035e+01 1.369465000000000146e+02 1.817654999999999973e+03
6.900000000000000577e-02 7.437184999999999491e-01 3.468744999999999834e+01 1.394579999999999984e+02 1.818295000000000073e+03
7.000000000000000666e-02 7.442070000000000629e-01 3.496105000000000018e+01 1.418179999999999836e+02 1.818904999999999973e+03
7.100000000000000755e-02 7.446599999999999886e-01 3.512879999999999825e+01 1.440124999999999886e+02 1.819474999999999909e+03
7.200000000000000844e-02 7.450764999999999194e-01 3.519095000000000084e+01 1.460300000000000011e+02 1.820005000000000109e+03
7.300000000000000933e-02 7.454544999999999089e-01 3.514924999999999500e+01 1.478609999999999900e+02 1.820485000000000127e+03
7.399999999999999634e-02 7.457934999999999981e-01 3.500690000000000168e+01 1.495000000000000000e+02 1.820929999999999836e+03
7.499999999999999722e-02 7.460929999999998952e-01 3.476794999999999902e+01 1.509449999999999932e+02 1.821320000000000164e+03
7.599999999999999811e-02 7.463535000000000030e-01 3.443699999999999761e+01 1.521945000000000050e+02 1.821664999999999964e+03
7.699999999999999900e-02 7.465749999999999886e-01 3.401950000000000074e+01 1.532504999999999882e+02 1.821960000000000036e+03
7.799999999999999989e-02 7.467584999999999917e-01 3.352100000000000080e+01 1.541175000000000068e+02 1.822210000000000036e+03
7.900000000000000078e-02 7.469044999999999712e-01 3.294780000000000086e+01 1.548009999999999877e+02 1.822414999999999964e+03
8.000000000000000167e-02 7.470155000000000545e-01 3.230689999999999884e+01 1.553075000000000045e+02 1.822575000000000045e+03
8.100000000000000255e-02 7.470930000000000071e-01 3.160614999999999952e+01 1.556485000000000127e+02 1.822690000000000055e+03
8.200000000000000344e-02 7.471399999999999153e-01 3.085444999999999993e+01 1.558360000000000127e+02 1.822775000000000091e+03
8.300000000000000433e-02 7.471590000000000176e-01 3.006184999999999974e+01 1.558840000000000146e+02 1.822815000000000055e+03
8.400000000000000522e-02 7.471540000000000958e-01 2.923894999999999911e+01 1.558110000000000070e+02 1.822819999999999936e+03
8.500000000000000611e-02 7.471304999999999197e-01 2.839710000000000178e+01 1.556354999999999791e+02 1.822805000000000064e+03
8.600000000000000699e-02 7.470904999999999907e-01 2.754729999999999990e+01 1.553770000000000095e+02 1.822765000000000100e+03
8.700000000000000788e-02 7.470390000000000086e-01 2.670029999999999859e+01 1.550564999999999998e+02 1.822699999999999818e+03
8.800000000000000877e-02 7.469805000000000472e-01 2.586534999999999940e+01 1.546915000000000191e+02 1.822625000000000000e+03
8.899999999999999578e-02 7.469164999999999832e-01 2.505024999999999835e+01 1.543000000000000114e+02 1.822539999999999964e+03
8.999999999999999667e-02 7.468505000000000837e-01 2.426055000000000206e+01 1.538940000000000055e+02 1.822444999999999936e+03
9.099999999999999756e-02 7.467829999999999746e-01 2.349984999999999857e+01 1.534850000000000136e+02 1.822349999999999909e+03
9.199999999999999845e-02 7.467144999999999477e-01 2.276940000000000097e+01 1.530780000000000030e+02 1.822255000000000109e+03
9.299999999999999933e-02 7.466455000000000730e-01 2.206859999999999999e+01 1.526750000000000114e+02 1.822154999999999973e+03
9.400000000000000022e-02 7.465755000000000585e-01 2.139480000000000004e+01 1.522750000000000057e+02 1.822054999999999836e+03
9.500000000000000111e-02 7.465024999999999578e-01 2.074430000000000263e+01 1.518739999999999952e+02 1.821950000000000045e+03
9.600000000000000200e-02 7.464254999999999640e-01 2.011214999999999975e+01 1.514649999999999750e+02 1.821849999999999909e+03
9.700000000000000289e-02 7.463429999999999787e-01 1.949289999999999878e+01 1.510409999999999968e+02 1.821740000000000009e+03
9.800000000000000377e-02 7.462524999999999853e-01 1.888064999999999927e+01 1.505930000000000177e+02 1.821630000000000109e+03
9.900000000000000466e-02 7.461530000000000662e-01 1.826975000000000193e+01 1.501129999999999995e+02 1.821509999999999991e+03
1.000000000000000056e-01 7.460424999999999418e-01 1.765474999999999994e+01 1.495929999999999893e+02 1.821380000000000109e+03
1.010000000000000064e-01 7.459210000000000562e-01 1.703089999999999904e+01 1.490260000000000105e+02 1.821244999999999891e+03
1.020000000000000073e-01 7.457875000000000476e-01 1.639430000000000121e+01 1.484089999999999918e+02 1.821095000000000027e+03
1.030000000000000082e-01 7.456415000000000681e-01 1.574205000000000076e+01 1.477379999999999995e+02 1.820934999999999945e+03
1.040000000000000091e-01 7.454834999999999656e-01 1.507274999999999920e+01 1.470130000000000052e+02 1.820765000000000100e+03
1.050000000000000100e-01 7.453145000000001019e-01 1.438615000000000066e+01 1.462370000000000232e+02 1.820579999999999927e+03
1.059999999999999970e-01 7.451364999999999794e-01 1.368365499999999813e+01 1.454150000000000205e+02 1.820380000000000109e+03
1.069999999999999979e-01 7.449509999999999188e-01 1.296807499999999891e+01 1.445554999999999950e+02 1.820175000000000182e+03
1.079999999999999988e-01 7.447610000000000063e-01 1.224347000000000030e+01 1.436684999999999945e+02 1.819965000000000146e+03
1.089999999999999997e-01 7.445684999999999665e-01 1.151523500000000055e+01 1.427665000000000077e+02 1.819750000000000000e+03
1.100000000000000006e-01 7.443779999999999841e-01 1.078954000000000057e+01 1.418634999999999877e+02 1.819535000000000082e+03
1.110000000000000014e-01 7.441925000000000345e-01 1.007328500000000027e+01 1.409749999999999943e+02 1.819315000000000055e+03
1.120000000000000023e-01 7.440145000000000231e-01 9.373730000000000118e+00 1.401164999999999736e+02 1.819110000000000127e+03
1.130000000000000032e-01 7.438480000000000647e-01 8.698010000000000019e+00 1.393029999999999973e+02 1.818904999999999973e+03
1.140000000000000041e-01 7.436949999999999950e-01 8.052889999999999660e+00 1.385480000000000018e+02 1.818720000000000027e+03
1.150000000000000050e-01 7.435590000000000810e-01 7.444499999999999673e+00 1.378644999999999925e+02 1.818550000000000182e+03
1.160000000000000059e-01 7.434410000000000185e-01 6.878014999999999546e+00 1.372620000000000005e+02 1.818389999999999873e+03
1.170000000000000068e-01 7.433419999999999472e-01 6.357280000000000264e+00 1.367485000000000070e+02 1.818255000000000109e+03
1.180000000000000077e-01 7.432635000000000769e-01 5.884854999999999947e+00 1.363269999999999982e+02 1.818139999999999873e+03
1.190000000000000085e-01 7.432039999999999758e-01 5.461820000000000341e+00 1.360000000000000000e+02 1.818045000000000073e+03
1.200000000000000094e-01 7.431634999999999769e-01 5.087830000000000297e+00 1.357644999999999982e+02 1.817980000000000018e+03
1.209999999999999964e-01 7.431404999999999816e-01 4.761210000000000164e+00 1.356150000000000091e+02 1.817924999999999955e+03
1.219999999999999973e-01 7.431330000000000435e-01 4.479115000000000180e+00 1.355444999999999993e+02 1.817894999999999982e+03
1.229999999999999982e-01 7.431389999999999940e-01 4.237745000000000317e+00 1.355425000000000182e+02 1.817884999999999991e+03
1.239999999999999991e-01 7.431559999999999278e-01 4.032630000000000159e+00 1.355994999999999777e+02 1.817880000000000109e+03
1.250000000000000000e-01 7.431799999999999518e-01 3.858854999999999702e+00 1.357015000000000100e+02 1.817894999999999982e+03
1.260000000000000009e-01 7.432110000000000660e-01 3.711324999999999985e+00 1.358375000000000057e+02 1.817920000000000073e+03
1.270000000000000018e-01 7.432449999999999335e-01 3.584959999999999702e+00 1.359959999999999809e+02 1.817944999999999936e+03
1.280000000000000027e-01 7.432799999999999407e-01 3.474885000000000002e+00 1.361644999999999754e+02 1.817980000000000018e+03
1.290000000000000036e-01 7.433149999999999480e-01 3.376524999999999999e+00 1.363344999999999914e+02 1.818019999999999982e+03
1.300000000000000044e-01 7.433475000000000499e-01 3.285739999999999661e+00 1.364964999999999975e+02 1.818050000000000182e+03
1.310000000000000053e-01 7.433760000000000367e-01 3.198865000000000069e+00 1.366435000000000173e+02 1.818085000000000036e+03
1.320000000000000062e-01 7.434000000000000608e-01 3.112750000000000128e+00 1.367694999999999936e+02 1.818115000000000009e+03
1.330000000000000071e-01 7.434180000000000232e-01 3.024814999999999809e+00 1.368700000000000045e+02 1.818139999999999873e+03
1.340000000000000080e-01 7.434309999999999530e-01 2.933024999999999771e+00 1.369424999999999955e+02 1.818159999999999854e+03
1.350000000000000089e-01 7.434370000000000145e-01 2.835960000000000036e+00 1.369850000000000136e+02 1.818170000000000073e+03
1.360000000000000098e-01 7.434374999999999734e-01 2.732739999999999725e+00 1.369970000000000141e+02 1.818174999999999955e+03
1.370000000000000107e-01 7.434320000000000928e-01 2.623079999999999856e+00 1.369794999999999732e+02 1.818170000000000073e+03
1.380000000000000115e-01 7.434209999999999985e-01 2.507159999999999833e+00 1.369339999999999975e+02 1.818164999999999964e+03
1.390000000000000124e-01 7.434055000000000524e-01 2.385629999999999917e+00 1.368629999999999995e+02 1.818150000000000091e+03
1.400000000000000133e-01 7.433855000000000324e-01 2.259470000000000312e+00 1.367694999999999936e+02 1.818134999999999991e+03
1.410000000000000142e-01 7.433619999999999672e-01 2.129910000000000192e+00 1.366564999999999941e+02 1.818110000000000127e+03
1.420000000000000151e-01 7.433359999999999967e-01 1.998304999999999776e+00 1.365280000000000200e+02 1.818079999999999927e+03
1.430000000000000160e-01 7.433075000000000099e-01 1.866030000000000078e+00 1.363865000000000123e+02 1.818049999999999955e+03
1.440000000000000169e-01 7.432779999999999943e-01 1.734359999999999902e+00 1.362355000000000018e+02 1.818009999999999991e+03
1.450000000000000178e-01 7.432464999999999211e-01 1.604406999999999917e+00 1.360769999999999982e+02 1.817974999999999909e+03
1.459999999999999909e-01 7.432149999999999590e-01 1.477055000000000007e+00 1.359130000000000109e+02 1.817940000000000055e+03
1.469999999999999918e-01 7.431820000000000093e-01 1.352929000000000048e+00 1.357439999999999998e+02 1.817900000000000091e+03
1.479999999999999927e-01 7.431484999999999896e-01 1.232419000000000153e+00 1.355715000000000146e+02 1.817855000000000018e+03
1.489999999999999936e-01 7.431140000000000523e-01 1.115690499999999918e+00 1.353940000000000055e+02 1.817815000000000055e+03
1.499999999999999944e-01 7.430779999999999053e-01 1.002748999999999890e+00 1.352125000000000057e+02 1.817769999999999982e+03
1.509999999999999953e-01 7.430409999999999515e-01 8.935100000000000264e-01 1.350240000000000009e+02 1.817730000000000018e+03
1.519999999999999962e-01 7.430019999999999403e-01 7.878870000000000040e-01 1.348280000000000030e+02 1.817680000000000064e+03
1.529999999999999971e-01 7.429609999999999825e-01 6.858435999999999977e-01 1.346245000000000118e+02 1.817630000000000109e+03
1.539999999999999980e-01 7.429179999999999673e-01 5.874754999999999283e-01 1.344120000000000061e+02 1.817579999999999927e+03
1.549999999999999989e-01 7.428734999999999644e-01 4.930560000000000498e-01 1.341904999999999859e+02 1.817519999999999982e+03
1.559999999999999998e-01 7.428265000000000562e-01 4.030349999999999766e-01 1.339605000000000246e+02 1.817470000000000027e+03
1.570000000000000007e-01 7.427785000000000082e-01 3.180695000000000050e-01 1.337230000000000132e+02 1.817409999999999854e+03
1.580000000000000016e-01 7.427289999999999726e-01 2.389479999999999937e-01 1.334789999999999850e+02 1.817355000000000018e+03
1.590000000000000024e-01 7.426789999999999781e-01 1.665650000000000186e-01 1.332309999999999945e+02 1.817289999999999964e+03
