# t [s], A [cm^2], U [cm/s], P [cPa], c [cm/s]
1.000000000000000021e-03 6.584860000000000158e-01 5.984650000000001080e-03 1.022429999999999950e+02 1.660005000000000109e+03
2.000000000000000042e-03 6.584745000000000736e-01 -2.232792500000000107e-03 1.022125000000000057e+02 1.659994999999999891e+03
3.000000000000000062e-03 6.585324999999999651e-01 9.913459999999998939e-02 1.023250000000000028e+02 1.660019999999999982e+03
4.000000000000000083e-03 6.585810000000000830e-01 1.965716100000000077e-01 1.024474999999999909e+02 1.660049999999999955e+03
5.000000000000000104e-03 6.585469999999999935e-01 1.622969499999999954e-01 1.023700000000000045e+02 1.660035000000000082e+03
6.000000000000000125e-03 6.584750000000000325e-01 5.681900000000000839e-02 1.021235000000000070e+02 1.659985000000000127e+03
7.000000000000000146e-03 6.584129999999999150e-01 -3.971000000000002306e-02 1.018195000000000050e+02 1.659924999999999955e+03
8.000000000000000167e-03 6.583120000000000083e-01 -2.182450000000000223e-01 1.013644999999999925e+02 1.659824999999999818e+03
9.000000000000001055e-03 6.581455000000000499e-01 -5.308549999999999658e-01 1.006640500000000031e+02 1.659684999999999945e+03
1.000000000000000194e-02 6.579099999999999948e-01 -9.773700000000000720e-01 9.967589999999999861e+01 1.659474999999999909e+03
1.099999999999999936e-02 6.575849999999999751e-01 -1.582430000000000003e+00 9.832550000000000523e+01 1.659190000000000055e+03
1.200000000000000025e-02 6.571620000000000239e-01 -2.341689999999999827e+00 9.656600000000000250e+01 1.658809999999999945e+03
1.300000000000000114e-02 6.566834999999999756e-01 -3.152715000000000156e+00 9.448615000000000919e+01 1.658360000000000127e+03
1.400000000000000203e-02 6.562265000000000459e-01 -3.843816499999999969e+00 9.230529999999998836e+01 1.657860000000000127e+03
1.499999999999999944e-02 6.558530000000000193e-01 -4.264518500000000323e+00 9.026355000000000928e+01 1.657369999999999891e+03
1.600000000000000033e-02 6.555809999999999693e-01 -4.350636500000000240e+00 8.851200000000000045e+01 1.656925000000000182e+03
1.700000000000000122e-02 6.553849999999999953e-01 -4.132234999999999658e+00 8.706964999999999577e+01 1.656530000000000200e+03
1.800000000000000211e-02 6.552149999999999919e-01 -3.701785000000000103e+00 8.584329999999999927e+01 1.656180000000000064e+03
1.900000000000000300e-02 6.550205000000000055e-01 -3.168521999999999839e+00 8.468354999999999677e+01 1.655840000000000146e+03
2.000000000000000042e-02 6.547669999999999879e-01 -2.617258999999999780e+00 8.344920000000000471e+01 1.655485000000000127e+03
2.100000000000000130e-02 6.544499999999999762e-01 -2.083699999999999886e+00 8.205815000000001191e+01 1.655109999999999900e+03
2.200000000000000219e-02 6.540859999999999452e-01 -1.553390000000000049e+00 8.050839999999999463e+01 1.654690000000000055e+03
2.299999999999999961e-02 6.537060000000000093e-01 -9.826900000000000635e-01 7.886150000000000659e+01 1.654255000000000109e+03
2.400000000000000050e-02 6.533379999999999743e-01 -3.301950000000002383e-01 7.720295000000000130e+01 1.653809999999999945e+03
2.500000000000000139e-02 6.529945000000000332e-01 4.163200000000002454e-01 7.559694999999999254e+01 1.653375000000000000e+03
2.600000000000000228e-02 6.526665000000000383e-01 1.227015000000000189e+00 7.405535000000000423e+01 1.652950000000000045e+03
2.700000000000000316e-02 6.523305000000000353e-01 2.032894999999999897e+00 7.252824999999999989e+01 1.652530000000000200e+03
2.800000000000000058e-02 6.519515000000000171e-01 2.740990000000000038e+00 7.091525000000000034e+01 1.652095000000000027e+03
2.900000000000000147e-02 6.514949999999999353e-01 3.256759999999999877e+00 6.909314999999999429e+01 1.651615000000000009e+03
3.000000000000000236e-02 6.509395000000000042e-01 3.507849999999999913e+00 6.695185000000000741e+01 1.651074999999999818e+03
3.099999999999999978e-02 6.502799999999999692e-01 3.462995000000000267e+00 6.442950000000000443e+01 1.650460000000000036e+03
3.200000000000000067e-02 6.495319999999999983e-01 3.140029999999999877e+00 6.153520000000000323e+01 1.649764999999999873e+03
3.300000000000000155e-02 6.487319999999999753e-01 2.601029999999999731e+00 5.835365000000000180e+01 1.649009999999999991e+03
3.400000000000000244e-02 6.479245000000000143e-01 1.936799999999999855e+00 5.502989999999999782e+01 1.648210000000000036e+03
3.500000000000000333e-02 6.471549999999999248e-01 1.246474999999999334e+00 5.174190000000000111e+01 1.647414999999999964e+03
3.600000000000000422e-02 6.464644999999999975e-01 6.201799999999995094e-01 4.867040000000000077e+01 1.646655000000000200e+03
3.700000000000000511e-02 6.458825000000000260e-01 1.273400000000002308e-01 4.597350000000000136e+01 1.645970000000000027e+03
3.799999999999999906e-02 6.454260000000000552e-01 -1.874149999999996652e-01 4.377080000000000126e+01 1.645380000000000109e+03
3.899999999999999994e-02 6.451029999999999820e-01 -3.024649999999997618e-01 4.213739999999999952e+01 1.644925000000000182e+03
4.000000000000000083e-02 6.449124999999999996e-01 -2.134100000000000996e-01 4.110625000000000284e+01 1.644599999999999909e+03
4.100000000000000172e-02 6.448484999999999356e-01 7.443499999999991790e-02 4.067745000000000033e+01 1.644414999999999964e+03
4.200000000000000261e-02 6.449039999999999218e-01 5.530770000000000408e-01 4.082970000000000255e+01 1.644375000000000000e+03
4.300000000000000350e-02 6.450735000000000774e-01 1.216793999999999931e+00 4.153164999999999907e+01 1.644469999999999800e+03
4.400000000000000439e-02 6.453504999999999381e-01 2.064000000000000057e+00 4.275029999999999575e+01 1.644699999999999818e+03
4.499999999999999833e-02 6.457325000000000426e-01 3.096065000000000289e+00 4.445504999999999995e+01 1.645049999999999955e+03
4.599999999999999922e-02 6.462144999999999140e-01 4.314009999999999678e+00 4.661684999999999945e+01 1.645514999999999873e+03
4.700000000000000011e-02 6.467909999999998938e-01 5.714385000000000048e+00 4.920494999999999663e+01 1.646090000000000146e+03
4.800000000000000100e-02 6.474539999999999740e-01 7.286225499999999577e+00 5.218259999999999366e+01 1.646764999999999873e+03
4.900000000000000189e-02 6.481905000000000028e-01 9.009127499999999955e+00 5.550360000000000582e+01 1.647529999999999973e+03
5.000000000000000278e-02 6.489875000000000504e-01 1.085388500000000001e+01 5.911135000000000161e+01 1.648375000000000000e+03
5.100000000000000366e-02 6.498275000000000023e-01 1.278434999999999988e+01 6.293999999999999773e+01 1.649284999999999854e+03
5.200000000000000455e-02 6.506939999999999946e-01 1.476074000000000019e+01 6.691779999999999973e+01 1.650240000000000009e+03
5.300000000000000544e-02 6.515699999999999825e-01 1.674316499999999763e+01 7.097220000000000084e+01 1.651224999999999909e+03
5.399999999999999939e-02 6.524404999999999788e-01 1.869494999999999862e+01 7.503489999999999327e+01 1.652224999999999909e+03
5.500000000000000028e-02 6.532949999999999591e-01 2.058514999999999873e+01 7.904659999999999798e+01 1.653224999999999909e+03
5.600000000000000117e-02 6.541244999999999976e-01 2.238994999999999891e+01 8.296075000000000443e+01 1.654210000000000036e+03
5.700000000000000205e-02 6.549249999999999794e-01 2.409349999999999881e+01 8.674479999999999791e+01 1.655174999999999955e+03
5.800000000000000294e-02 6.556939999999999991e-01 2.568704999999999927e+01 9.038159999999999172e+01 1.656115000000000009e+03
5.900000000000000383e-02 6.564330000000000442e-01 2.716829999999999856e+01 9.386695000000000277e+01 1.657025000000000091e+03
6.000000000000000472e-02 6.571455000000000490e-01 2.853990000000000293e+01 9.720850000000000080e+01 1.657900000000000091e+03
6.099999999999999867e-02 6.578359999999999763e-01 2.980839999999999890e+01 1.004223499999999945e+02 1.658744999999999891e+03
6.199999999999999956e-02 6.585099999999999287e-01 3.098270000000000124e+01 1.035313500000000033e+02 1.659569999999999936e+03
6.300000000000000044e-02 6.591720000000000912e-01 3.207325000000000159e+01 1.065614500000000078e+02 1.660375000000000000e+03
6.400000000000000133e-02 6.598289999999999988e-01 3.309080000000000155e+01 1.095384999999999991e+02 1.661159999999999854e+03
6.500000000000000222e-02 6.604840000000000710e-01 3.404524999999999579e+01 1.124865000000000066e+02 1.661940000000000055e+03
6.600000000000000311e-02 6.611409999999999787e-01 3.494535000000000480e+01 1.154265000000000043e+02 1.662715000000000146e+03
6.700000000000000400e-02 6.618025000000000713e-01 3.579710000000000036e+01 1.183704999999999927e+02 1.663489999999999782e+03
6.800000000000000488e-02 6.624680000000000568e-01 3.660384999999999422e+01 1.213249999999999886e+02 1.664264999999999873e+03
6.900000000000000577e-02 6.631359999999999477e-01 3.736560000000000059e+01 1.242874999999999943e+02 1.665049999999999955e+03
7.000000000000000666e-02 6.638029999999999209e-01 3.807914999999999850e+01 1.272469999999999999e+02 1.665825000000000045e+03
7.100000000000000755e-02 6.644639999999999436e-01 3.873855000000000359e+01 1.301854999999999905e+02 1.666594999999999800e+03
7.200000000000000844e-02 6.651130000000000653e-01 3.933575000000000443e+01 1.330780000000000030e+02 1.667360000000000127e+03
7.300000000000000933e-02 6.657435000000000436e-01 3.986124999999999829e+01 1.358960000000000150e+02 1.668105000000000018e+03
7.399999999999999634e-02 6.663485000000000102e-01 4.030534999999999712e+01 1.386075000000000159e+02 1.668825000000000045e+03
7.499999999999999722e-02 6.669209999999999861e-01 4.065859999999999985e+01 1.411829999999999927e+02 1.669514999999999873e+03
7.599999999999999811e-02 6.674550000000000205e-01 4.091290000000000049e+01 1.435935000000000059e+02 1.670170000000000073e+03
7.699999999999999900e-02 6.679459999999999287e-01 4.106170000000000186e+01 1.458140000000000214e+02 1.670775000000000091e+03
7.799999999999999989e-02 6.683900000000000396e-01 4.110060000000000002e+01 1.478245000000000005e+02 1.671329999999999927e+03
7.900000000000000078e-02 6.687849999999999628e-01 4.102734999999999843e+01 1.496109999999999900e+02 1.671829999999999927e+03
8.000000000000000167e-02 6.691285000000000149e-01 4.084224999999999994e+01 1.511639999999999873e+02 1.672279999999999973e+03
8.100000000000000255e-02 6.694215000000000027e-01 4.054779999999999518e+01 1.524825000000000159e+02 1.672670000000000073e+03
8.200000000000000344e-02 6.696644999999999959e-01 4.014894999999999925e+01 1.535695000000000050e+02 1.672994999999999891e+03
8.300000000000000433e-02 6.698600000000000110e-01 3.965274999999999750e+01 1.544334999999999809e+02 1.673264999999999873e+03
8.400000000000000522e-02 6.700114999999999821e-01 3.906839999999999691e+01 1.550894999999999868e+02 1.673480000000000018e+03
8.500000000000000611e-02 6.701230000000000242e-01 3.840680000000000405e+01 1.555550000000000068e+02 1.673644999999999982e+03
8.600000000000000699e-02 6.702000000000000179e-01 3.768030000000000257e+01 1.558524999999999920e+02 1.673765000000000100e+03
8.700000000000000788e-02 6.702464999999999673e-01 3.690250000000000341e+01 1.560054999999999836e+02 1.673849999999999909e+03
8.800000000000000877e-02 6.702695000000000736e-01 3.608740000000000236e+01 1.560405000000000086e+02 1.673894999999999982e+03
8.899999999999999578e-02 6.702734999999999665e-01 3.524915000000000020e+01 1.559839999999999804e+02 1.673909999999999854e+03
8.999999999999999667e-02 6.702654999999999585e-01 3.440140000000000242e+01 1.558615000000000066e+02 1.673904999999999973e+03
9.099999999999999756e-02 6.702485000000000248e-01 3.355684999999999718e+01 1.556980000000000075e+02 1.673884999999999991e+03
9.199999999999999845e-02 6.702289999999999637e-01 3.272650000000000148e+01 1.555149999999999864e+02 1.673855000000000018e+03
9.299999999999999933e-02 6.702090000000000547e-01 3.191920000000000002e+01 1.553294999999999959e+02 1.673815000000000055e+03
9.400000000000000022e-02 6.701909999999999812e-01 3.114164999999999850e+01 1.551564999999999941e+02 1.673779999999999973e+03
9.500000000000000111e-02 6.701770000000000227e-01 3.039789999999999992e+01 1.550040000000000191e+02 1.673744999999999891e+03
9.600000000000000200e-02 6.701680000000000970e-01 2.968945000000000078e+01 1.548770000000000095e+02 1.673715000000000146e+03
9.700000000000000289e-02 6.701620000000000354e-01 2.901530000000000342e+01 1.547740000000000009e+02 1.673684999999999945e+03
9.800000000000000377e-02 6.701580000000000314e-01 2.837239999999999895e+01 1.546904999999999859e+02 1.673659999999999854e+03
9.900000000000000466e-02 6.701539999999999164e-01 2.775570000000000093e+01 1.546184999999999832e+02 1.673640000000000100e+03
1.000000000000000056e-01 6.701470000000000482e-01 2.715885000000000105e+01 1.545455000000000041e+02 1.673619999999999891e+03
1.010000000000000064e-01 6.701340000000000074e-01 2.657444999999999879e+01 1.544574999999999818e+02 1.673595000000000027e+03
1.020000000000000073e-01 6.701124999999999998e-01 2.599470000000000169e+01 1.543425000000000011e+02 1.673559999999999945e+03
1.030000000000000082e-01 6.700785000000000213e-01 2.541179999999999950e+01 1.541834999999999809e+02 1.673519999999999982e+03
1.040000000000000091e-01 6.700304999999999733e-01 2.481830000000000069e+01 1.539689999999999941e+02 1.673464999999999918e+03
1.050000000000000100e-01 6.699654999999999916e-01 2.420775000000000077e+01 1.536859999999999786e+02 1.673400000000000091e+03
1.059999999999999970e-01 6.698815000000000186e-01 2.357469999999999999e+01 1.533249999999999886e+02 1.673309999999999945e+03
1.069999999999999979e-01 6.697779999999999845e-01 2.291539999999999822e+01 1.528805000000000121e+02 1.673204999999999927e+03
1.079999999999999988e-01 6.696545000000000414e-01 2.222769999999999868e+01 1.523485000000000014e+02 1.673079999999999927e+03
1.089999999999999997e-01 6.695119999999999960e-01 2.151160000000000139e+01 1.517305000000000064e+02 1.672929999999999836e+03
1.100000000000000006e-01 6.693519999999999470e-01 2.076890000000000214e+01 1.510314999999999941e+02 1.672759999999999991e+03
1.110000000000000014e-01 6.691765000000000629e-01 2.000329999999999941e+01 1.502590000000000146e+02 1.672574999999999818e+03
1.120000000000000023e-01 6.689884999999999859e-01 1.922050000000000125e+01 1.494254999999999995e+02 1.672369999999999891e+03
1.130000000000000032e-01 6.687925000000000120e-01 1.842770000000000152e+01 1.485459999999999923e+02 1.672154999999999973e+03
1.140000000000000041e-01 6.685915000000000052e-01 1.763329999999999842e+01 1.476380000000000052e+02 1.671934999999999945e+03
1.150000000000000050e-01 6.683904999999999985e-01 1.684665000000000035e+01 1.467205000000000155e+02 1.671704999999999927e+03
1.160000000000000059e-01 6.681934999999999958e-01 1.607755000000000223e+01 1.458134999999999764e+02 1.671474999999999909e+03
1.170000000000000068e-01 6.680049999999999599e-01 1.533585000000000065e+01 1.449364999999999952e+02 1.671250000000000000e+03
1.180000000000000077e-01 6.678295000000000758e-01 1.463084999999999880e+01 1.441084999999999923e+02 1.671034999999999854e+03
1.190000000000000085e-01 6.676695000000000269e-01 1.397109000000000023e+01 1.433464999999999918e+02 1.670835000000000036e+03
1.200000000000000094e-01 6.675290000000000390e-01 1.336391000000000062e+01 1.426655000000000086e+02 1.670650000000000091e+03
1.209999999999999964e-01 6.674090000000000300e-01 1.281498000000000026e+01 1.420765000000000100e+02 1.670485000000000127e+03
1.219999999999999973e-01 6.673115000000000574e-01 1.232826499999999825e+01 1.415875000000000057e+02 1.670349999999999909e+03
1.229999999999999982e-01 6.672374999999999279e-01 1.190580500000000086e+01 1.412024999999999864e+02 1.670235000000000127e+03
1.239999999999999991e-01 6.671854999999999869e-01 1.154775499999999866e+01 1.409215000000000089e+02 1.670144999999999982e+03
1.250000000000000000e-01 6.671544999999999837e-01 1.125234000000000023e+01 1.407409999999999854e+02 1.670079999999999927e+03
1.260000000000000009e-01 6.671435000000000004e-01 1.101609499999999997e+01 1.406535000000000082e+02 1.670039999999999964e+03
1.270000000000000018e-01 6.671495000000000619e-01 1.083418500000000151e+01 1.406499999999999773e+02 1.670014999999999873e+03
1.280000000000000027e-01 6.671690000000000120e-01 1.070043000000000077e+01 1.407169999999999845e+02 1.670014999999999873e+03
1.290000000000000036e-01 6.672000000000000153e-01 1.060796000000000028e+01 1.408414999999999964e+02 1.670029999999999973e+03
1.300000000000000044e-01 6.672390000000000265e-01 1.054941999999999958e+01 1.410095000000000027e+02 1.670059999999999945e+03
1.310000000000000053e-01 6.672819999999999308e-01 1.051725000000000065e+01 1.412060000000000173e+02 1.670095000000000027e+03
1.320000000000000062e-01 6.673270000000000035e-01 1.050413999999999959e+01 1.414175000000000182e+02 1.670134999999999991e+03
1.330000000000000071e-01 6.673715000000000064e-01 1.050320499999999946e+01 1.416299999999999955e+02 1.670179999999999836e+03
1.340000000000000080e-01 6.674124999999999641e-01 1.050812499999999972e+01 1.418340000000000032e+02 1.670224999999999909e+03
1.350000000000000089e-01 6.674495000000000289e-01 1.051352999999999938e+01 1.420200000000000102e+02 1.670269999999999982e+03
1.360000000000000098e-01 6.674800000000000733e-01 1.051493999999999929e+01 1.421809999999999832e+02 1.670309999999999945e+03
1.370000000000000107e-01 6.675039999999999862e-01 1.050882000000000005e+01 1.423114999999999952e+02 1.670340000000000146e+03
1.380000000000000115e-01 6.675204999999999611e-01 1.049264499999999956e+01 1.424099999999999966e+02 1.670369999999999891e+03
1.390000000000000124e-01 6.675299999999999567e-01 1.046490000000000009e+01 1.424755000000000109e+02 1.670384999999999991e+03
1.400000000000000133e-01 6.675335000000000019e-01 1.042495999999999867e+01 1.425095000000000027e+02 1.670394999999999982e+03
1.410000000000000142e-01 6.675305000000000266e-01 1.037289499999999975e+01 1.425134999999999934e+02 1.670400000000000091e+03
1.420000000000000151e-01 6.675230000000000885e-01 1.030966499999999897e+01 1.424920000000000186e+02 1.670400000000000091e+03
1.430000000000000160e-01 6.675115000000000354e-01 1.023656499999999880e+01 1.424505000000000052e+02 1.670394999999999982e+03
1.440000000000000169e-01 6.674970000000000070e-01 1.015554500000000004e+01 1.423924999999999841e+02 1.670380000000000109e+03
1.450000000000000178e-01 6.674815000000000609e-01 1.006870500000000135e+01 1.423249999999999886e+02 1.670365000000000009e+03
1.459999999999999909e-01 6.674655000000000449e-01 9.978324999999999889e+00 1.422529999999999859e+02 1.670349999999999909e+03
1.469999999999999918e-01 6.674499999999999877e-01 9.886769999999998504e+00 1.421809999999999832e+02 1.670335000000000036e+03
1.479999999999999927e-01 6.674364999999999881e-01 9.796210000000000306e+00 1.421134999999999877e+02 1.670320000000000164e+03
1.489999999999999936e-01 6.674249999999999350e-01 9.708574999999999733e+00 1.420554999999999950e+02 1.670305000000000064e+03
1.499999999999999944e-01 6.674169999999999270e-01 9.625505000000000422e+00 1.420079999999999814e+02 1.670295000000000073e+03
1.509999999999999953e-01 6.674115000000000464e-01 9.548230000000000217e+00 1.419745000000000061e+02 1.670289999999999964e+03
1.519999999999999962e-01 6.674094999999999889e-01 9.477605000000000501e+00 1.419540000000000077e+02 1.670280000000000200e+03
1.529999999999999971e-01 6.674100000000000588e-01 9.413904999999999745e+00 1.419474999999999909e+02 1.670275000000000091e+03
1.539999999999999980e-01 6.674134999999999929e-01 9.357154999999998779e+00 1.419540000000000077e+02 1.670275000000000091e+03
1.549999999999999989e-01 6.674195000000000544e-01 9.306820000000000093e+00 1.419699999999999989e+02 1.670279999999999973e+03
1.559999999999999998e-01 6.674265000000000336e-01 9.262154999999999916e+00 1.419939999999999998e+02 1.670289999999999964e+03
1.570000000000000007e-01 6.674340000000000828e-01 9.222175000000000011e+00 1.420235000000000127e+02 1.670295000000000073e+03
1.580000000000000016e-01 6.674419999999999797e-01 9.185724999999999696e+00 1.420534999999999854e+02 1.670295000000000073e+03
1.590000000000000024e-01 6.674485000000000001e-01 9.151645000000000252e+00 1.420824999999999818e+02 1.670304999999999836e+03
