# t [s], A [cm^2], U [cm/s], P [cPa], c [cm/s]
1.000000000000000021e-03 1.749070000000000069e-01 2.842139999999999667e-01 9.784270000000000778e+01 2.089840000000000146e+03
2.000000000000000042e-03 1.748625000000000040e-01 1.789088000000000012e+00 9.458539999999999281e+01 2.089449999999999818e+03
3.000000000000000062e-03 1.747365000000000168e-01 3.667524499999999854e+00 9.002915000000000134e+01 2.088425000000000182e+03
4.000000000000000083e-03 1.745629999999999959e-01 5.789495500000000128e+00 8.500875000000000625e+01 2.087024999999999636e+03
5.000000000000000104e-03 1.743754999999999888e-01 8.082169999999999632e+00 8.045320000000000960e+01 2.085525000000000091e+03
6.000000000000000125e-03 1.741944999999999744e-01 1.036702999999999975e+01 7.669644999999999868e+01 2.084095000000000255e+03
7.000000000000000146e-03 1.740244999999999986e-01 1.241650499999999901e+01 7.349459999999999127e+01 2.082780000000000200e+03
8.000000000000000167e-03 1.738680000000000225e-01 1.413783500000000082e+01 7.059975000000000023e+01 2.081590000000000146e+03
9.000000000000001055e-03 1.737305000000000099e-01 1.557019999999999982e+01 6.806935000000000002e+01 2.080559999999999945e+03
1.000000000000000194e-02 1.736145000000000049e-01 1.675254999999999939e+01 6.599385000000000900e+01 2.079694999999999709e+03
1.099999999999999936e-02 1.735190000000000066e-01 1.770274999999999821e+01 6.435675000000000523e+01 2.078994999999999891e+03
1.200000000000000025e-02 1.734430000000000138e-01 1.843750000000000000e+01 6.309820000000000562e+01 2.078449999999999818e+03
1.300000000000000114e-02 1.733834999999999960e-01 1.896130000000000138e+01 6.211490000000000578e+01 2.078025000000000091e+03
1.400000000000000203e-02 1.733345000000000025e-01 1.928204999999999814e+01 6.127700000000000102e+01 2.077685000000000400e+03
1.499999999999999944e-02 1.732954999999999912e-01 1.946189999999999998e+01 6.056810000000000116e+01 2.077414999999999964e+03
1.600000000000000033e-02 1.732684999999999920e-01 1.963640000000000185e+01 6.020279999999999632e+01 2.077239999999999782e+03
1.700000000000000122e-02 1.732640000000000013e-01 1.996320000000000050e+01 6.055030000000000001e+01 2.077215000000000146e+03
1.800000000000000211e-02 1.732894999999999852e-01 2.053584999999999994e+01 6.189560000000000173e+01 2.077409999999999854e+03
1.900000000000000300e-02 1.733480000000000021e-01 2.132914999999999850e+01 6.422110000000000696e+01 2.077840000000000146e+03
2.000000000000000042e-02 1.734304999999999874e-01 2.220635000000000048e+01 6.715094999999999459e+01 2.078460000000000036e+03
2.100000000000000130e-02 1.735240000000000116e-01 2.297735000000000127e+01 7.007759999999998968e+01 2.079159999999999854e+03
2.200000000000000219e-02 1.736099999999999866e-01 2.347319999999999851e+01 7.238585000000000491e+01 2.079824999999999818e+03
2.299999999999999961e-02 1.736739999999999950e-01 2.360435000000000016e+01 7.366554999999999609e+01 2.080329999999999927e+03
2.400000000000000050e-02 1.737084999999999879e-01 2.338139999999999930e+01 7.382734999999999559e+01 2.080610000000000127e+03
2.500000000000000139e-02 1.737140000000000073e-01 2.289724999999999966e+01 7.309010000000000673e+01 2.080680000000000291e+03
2.600000000000000228e-02 1.736975000000000047e-01 2.228154999999999930e+01 7.185880000000000223e+01 2.080574999999999818e+03
2.700000000000000316e-02 1.736705000000000054e-01 2.164959999999999951e+01 7.055514999999999759e+01 2.080385000000000218e+03
2.800000000000000058e-02 1.736419999999999908e-01 2.106595000000000084e+01 6.947090000000000032e+01 2.080170000000000073e+03
2.900000000000000147e-02 1.736165000000000069e-01 2.053284999999999982e+01 6.869364999999999100e+01 2.079980000000000018e+03
3.000000000000000236e-02 1.735949999999999993e-01 2.000384999999999991e+01 6.811920000000000641e+01 2.079809999999999945e+03
3.099999999999999978e-02 1.735734999999999917e-01 1.941259999999999764e+01 6.753034999999999854e+01 2.079655000000000200e+03
3.200000000000000067e-02 1.735475000000000212e-01 1.870680000000000121e+01 6.670669999999999789e+01 2.079460000000000036e+03
3.300000000000000155e-02 1.735114999999999852e-01 1.787474999999999881e+01 6.552594999999999459e+01 2.079194999999999709e+03
3.400000000000000244e-02 1.734660000000000091e-01 1.695755000000000123e+01 6.402545000000000641e+01 2.078860000000000127e+03
3.500000000000000333e-02 1.734134999999999982e-01 1.604265000000000185e+01 6.240559999999999263e+01 2.078475000000000364e+03
3.600000000000000422e-02 1.733629999999999893e-01 1.524159999999999826e+01 6.097700000000000387e+01 2.078095000000000255e+03
3.700000000000000511e-02 1.733224999999999905e-01 1.465974999999999895e+01 6.006834999999999525e+01 2.077784999999999854e+03
3.799999999999999906e-02 1.733014999999999972e-01 1.436720000000000041e+01 5.992895000000000039e+01 2.077609999999999673e+03
3.899999999999999994e-02 1.733049999999999868e-01 1.438030000000000008e+01 6.065579999999999927e+01 2.077619999999999891e+03
4.000000000000000083e-02 1.733339999999999881e-01 1.465824999999999889e+01 6.216519999999999868e+01 2.077819999999999709e+03
4.100000000000000172e-02 1.733844999999999970e-01 1.511294999999999966e+01 6.421269999999999811e+01 2.078180000000000291e+03
4.200000000000000261e-02 1.734479999999999911e-01 1.562870000000000026e+01 6.644884999999999309e+01 2.078644999999999982e+03
4.300000000000000350e-02 1.735150000000000026e-01 1.608439999999999870e+01 6.849339999999999407e+01 2.079139999999999873e+03
4.400000000000000439e-02 1.735729999999999773e-01 1.637429999999999808e+01 7.000630000000001019e+01 2.079585000000000036e+03
4.499999999999999833e-02 1.736139999999999906e-01 1.642174999999999940e+01 7.074084999999999468e+01 2.079900000000000091e+03
4.599999999999999922e-02 1.736300000000000066e-01 1.618585000000000207e+01 7.057139999999999702e+01 2.080034999999999854e+03
4.700000000000000011e-02 1.736185000000000089e-01 1.566015000000000157e+01 6.949314999999999998e+01 2.079960000000000036e+03
4.800000000000000100e-02 1.735794999999999977e-01 1.486650000000000027e+01 6.760065000000000168e+01 2.079680000000000291e+03
4.900000000000000189e-02 1.735154999999999892e-01 1.384515000000000029e+01 6.505310000000000059e+01 2.079210000000000036e+03
5.000000000000000278e-02 1.734300000000000008e-01 1.264579499999999967e+01 6.203774999999999551e+01 2.078579999999999927e+03
5.100000000000000366e-02 1.733290000000000108e-01 1.131984500000000082e+01 5.873910000000000053e+01 2.077835000000000036e+03
5.200000000000000455e-02 1.732179999999999831e-01 9.916264999999999219e+00 5.531964999999999577e+01 2.077000000000000000e+03
5.300000000000000544e-02 1.731020000000000059e-01 8.480349999999999611e+00 5.191310000000000002e+01 2.076130000000000109e+03
5.399999999999999939e-02 1.729844999999999855e-01 7.054350000000000342e+00 4.862720000000000198e+01 2.075244999999999891e+03
5.500000000000000028e-02 1.728699999999999959e-01 5.679644999999999833e+00 4.555284999999999940e+01 2.074385000000000218e+03
5.600000000000000117e-02 1.727615000000000123e-01 4.398530000000000051e+00 4.277420000000000044e+01 2.073570000000000164e+03
5.700000000000000205e-02 1.726634999999999975e-01 3.254937500000000039e+00 4.037680000000000291e+01 2.072819999999999709e+03
5.800000000000000294e-02 1.725774999999999948e-01 2.294050050000000063e+00 3.845064999999999600e+01 2.072170000000000073e+03
5.900000000000000383e-02 1.725089999999999957e-01 1.560362000000000027e+00 3.708844999999999459e+01 2.071640000000000327e+03
6.000000000000000472e-02 1.724594999999999878e-01 1.094852500000000006e+00 3.637930000000000064e+01 2.071260000000000218e+03
6.099999999999999867e-02 1.724340000000000039e-01 9.317185000000000050e-01 3.639995000000000402e+01 2.071045000000000073e+03
6.199999999999999956e-02 1.724334999999999896e-01 1.095331499999999902e+00 3.720584999999999809e+01 2.071024999999999636e+03
6.300000000000000044e-02 1.724605000000000166e-01 1.597990500000000091e+00 3.882344999999999402e+01 2.071204999999999927e+03
6.400000000000000133e-02 1.725160000000000027e-01 2.438754000000000310e+00 4.124609999999999843e+01 2.071600000000000364e+03
6.500000000000000222e-02 1.725990000000000024e-01 3.603464999999999918e+00 4.443339999999999890e+01 2.072199999999999818e+03
6.600000000000000311e-02 1.727084999999999870e-01 5.065844999999999487e+00 4.831374999999999886e+01 2.073005000000000109e+03
6.700000000000000400e-02 1.728425000000000100e-01 6.789430000000000298e+00 5.279000000000000625e+01 2.073989999999999782e+03
6.800000000000000488e-02 1.729975000000000263e-01 8.729935000000001111e+00 5.774670000000000414e+01 2.075135000000000218e+03
6.900000000000000577e-02 1.731695000000000040e-01 1.083805000000000085e+01 6.305795000000000528e+01 2.076420000000000073e+03
7.000000000000000666e-02 1.733544999999999947e-01 1.306228500000000103e+01 6.859555000000000291e+01 2.077805000000000291e+03
7.100000000000000755e-02 1.735490000000000088e-01 1.535149999999999793e+01 7.423635000000000161e+01 2.079269999999999982e+03
7.200000000000000844e-02 1.737485000000000002e-01 1.765749999999999886e+01 7.986899999999999977e+01 2.080769999999999982e+03
7.300000000000000933e-02 1.739485000000000059e-01 1.993759999999999977e+01 8.539959999999999241e+01 2.082284999999999854e+03
7.399999999999999634e-02 1.741465000000000096e-01 2.215615000000000023e+01 9.075575000000000614e+01 2.083795000000000073e+03
7.499999999999999722e-02 1.743405000000000094e-01 2.428600000000000136e+01 9.588949999999999818e+01 2.085265000000000327e+03
7.599999999999999811e-02 1.745279999999999887e-01 2.630900000000000105e+01 1.007781999999999982e+02 2.086699999999999818e+03
7.699999999999999900e-02 1.747080000000000022e-01 2.821614999999999895e+01 1.054219500000000096e+02 2.088085000000000036e+03
7.799999999999999989e-02 1.748815000000000230e-01 3.000645000000000095e+01 1.098410000000000082e+02 2.089420000000000073e+03
7.900000000000000078e-02 1.750484999999999958e-01 3.168574999999999875e+01 1.140720000000000027e+02 2.090699999999999818e+03
8.000000000000000167e-02 1.752090000000000036e-01 3.326480000000000103e+01 1.181595000000000084e+02 2.091945000000000164e+03
8.100000000000000255e-02 1.753659999999999941e-01 3.475690000000000168e+01 1.221525000000000034e+02 2.093150000000000091e+03
8.200000000000000344e-02 1.755194999999999950e-01 3.617654999999999887e+01 1.260965000000000060e+02 2.094340000000000146e+03
8.300000000000000433e-02 1.756715000000000082e-01 3.753695000000000448e+01 1.300285000000000082e+02 2.095515000000000327e+03
8.400000000000000522e-02 1.758230000000000071e-01 3.884924999999999784e+01 1.339755000000000109e+02 2.096684999999999945e+03
8.500000000000000611e-02 1.759745000000000059e-01 4.012095000000000056e+01 1.379505000000000052e+02 2.097854999999999563e+03
8.600000000000000699e-02 1.761260000000000048e-01 4.135580000000000211e+01 1.419535000000000196e+02 2.099029999999999745e+03
8.700000000000000788e-02 1.762785000000000046e-01 4.255344999999999800e+01 1.459699999999999989e+02 2.100210000000000036e+03
8.800000000000000877e-02 1.764310000000000045e-01 4.370969999999999800e+01 1.499759999999999991e+02 2.101385000000000218e+03
8.899999999999999578e-02 1.765825000000000033e-01 4.481705000000000183e+01 1.539375000000000000e+02 2.102560000000000400e+03
8.999999999999999667e-02 1.767314999999999858e-01 4.586500000000000199e+01 1.578145000000000095e+02 2.103719999999999800e+03
9.099999999999999756e-02 1.768770000000000064e-01 4.684135000000000559e+01 1.615629999999999882e+02 2.104849999999999909e+03
9.199999999999999845e-02 1.770180000000000087e-01 4.773250000000000171e+01 1.651380000000000052e+02 2.105945000000000164e+03
9.299999999999999933e-02 1.771530000000000049e-01 4.852450000000000330e+01 1.684954999999999927e+02 2.106989999999999782e+03
9.400000000000000022e-02 1.772795000000000065e-01 4.920374999999999943e+01 1.715949999999999989e+02 2.107975000000000364e+03
9.500000000000000111e-02 1.773970000000000269e-01 4.975789999999999935e+01 1.743994999999999891e+02 2.108900000000000091e+03
9.600000000000000200e-02 1.775034999999999807e-01 5.017624999999999602e+01 1.768799999999999955e+02 2.109735000000000127e+03
9.700000000000000289e-02 1.775990000000000069e-01 5.045074999999999932e+01 1.790140000000000100e+02 2.110484999999999673e+03
9.800000000000000377e-02 1.776814999999999922e-01 5.057620000000000005e+01 1.807870000000000061e+02 2.111140000000000327e+03
9.900000000000000466e-02 1.777515000000000067e-01 5.055105000000000359e+01 1.821954999999999814e+02 2.111695000000000164e+03
1.000000000000000056e-01 1.778089999999999948e-01 5.037715000000000032e+01 1.832429999999999950e+02 2.112149999999999636e+03
1.010000000000000064e-01 1.778534999999999977e-01 5.006020000000000181e+01 1.839445000000000050e+02 2.112505000000000109e+03
1.020000000000000073e-01 1.778850000000000153e-01 4.960954999999999870e+01 1.843234999999999957e+02 2.112769999999999982e+03
1.030000000000000082e-01 1.779054999999999942e-01 4.903764999999999930e+01 1.844089999999999918e+02 2.112940000000000055e+03
1.040000000000000091e-01 1.779155000000000042e-01 4.835974999999999824e+01 1.842395000000000209e+02 2.113019999999999982e+03
1.050000000000000100e-01 1.779155000000000042e-01 4.759309999999999974e+01 1.838550000000000182e+02 2.113034999999999854e+03
1.059999999999999970e-01 1.779084999999999972e-01 4.675624999999999432e+01 1.833000000000000114e+02 2.112989999999999782e+03
1.069999999999999979e-01 1.778945000000000110e-01 4.586820000000000164e+01 1.826185000000000116e+02 2.112885000000000218e+03
1.079999999999999988e-01 1.778750000000000053e-01 4.494760000000000133e+01 1.818520000000000039e+02 2.112739999999999782e+03
1.089999999999999997e-01 1.778520000000000101e-01 4.401219999999999999e+01 1.810389999999999873e+02 2.112574999999999818e+03
1.100000000000000006e-01 1.778274999999999995e-01 4.307789999999999964e+01 1.802155000000000200e+02 2.112385000000000218e+03
1.110000000000000014e-01 1.778015000000000012e-01 4.215845000000000198e+01 1.794080000000000155e+02 2.112185000000000400e+03
1.120000000000000023e-01 1.777749999999999886e-01 4.126500000000000057e+01 1.786394999999999982e+02 2.111980000000000018e+03
1.130000000000000032e-01 1.777495000000000047e-01 4.040574999999999761e+01 1.779230000000000018e+02 2.111779999999999745e+03
1.140000000000000041e-01 1.777254999999999807e-01 3.958579999999999899e+01 1.772665000000000077e+02 2.111585000000000036e+03
1.150000000000000050e-01 1.777024999999999855e-01 3.880724999999999625e+01 1.766689999999999827e+02 2.111409999999999854e+03
1.160000000000000059e-01 1.776814999999999922e-01 3.806920000000000215e+01 1.761250000000000000e+02 2.111239999999999782e+03
1.170000000000000068e-01 1.776615000000000000e-01 3.736795000000000044e+01 1.756214999999999975e+02 2.111079999999999927e+03
1.180000000000000077e-01 1.776425000000000087e-01 3.669764999999999588e+01 1.751405000000000030e+02 2.110930000000000291e+03
1.190000000000000085e-01 1.776234999999999897e-01 3.605030000000000001e+01 1.746605000000000132e+02 2.110779999999999745e+03
1.200000000000000094e-01 1.776050000000000129e-01 3.541660000000000252e+01 1.741589999999999918e+02 2.110635000000000218e+03
1.209999999999999964e-01 1.775849999999999929e-01 3.478650000000000375e+01 1.736089999999999804e+02 2.110480000000000018e+03
1.219999999999999973e-01 1.775629999999999986e-01 3.414985000000000070e+01 1.729875000000000114e+02 2.110309999999999945e+03
1.229999999999999982e-01 1.775390000000000024e-01 3.349674999999999869e+01 1.722725000000000080e+02 2.110114999999999782e+03
1.239999999999999991e-01 1.775114999999999887e-01 3.281850000000000023e+01 1.714440000000000168e+02 2.109900000000000091e+03
1.250000000000000000e-01 1.774795000000000122e-01 3.210800000000000409e+01 1.704875000000000114e+02 2.109654999999999745e+03
1.260000000000000009e-01 1.774435000000000040e-01 3.136010000000000275e+01 1.693944999999999936e+02 2.109380000000000109e+03
1.270000000000000018e-01 1.774029999999999774e-01 3.057200000000000273e+01 1.681614999999999895e+02 2.109065000000000055e+03
1.280000000000000027e-01 1.773575000000000013e-01 2.974354999999999905e+01 1.667925000000000182e+02 2.108715000000000146e+03
1.290000000000000036e-01 1.773069999999999924e-01 2.887720000000000198e+01 1.652980000000000018e+02 2.108329999999999927e+03
1.300000000000000044e-01 1.772529999999999939e-01 2.797800000000000153e+01 1.636935000000000002e+02 2.107909999999999854e+03
1.310000000000000053e-01 1.771945000000000048e-01 2.705349999999999966e+01 1.620024999999999977e+02 2.107460000000000036e+03
1.320000000000000062e-01 1.771334999999999993e-01 2.611309999999999931e+01 1.602509999999999764e+02 2.106994999999999891e+03
1.330000000000000071e-01 1.770705000000000195e-01 2.516815000000000069e+01 1.584694999999999823e+02 2.106500000000000000e+03
1.340000000000000080e-01 1.770055000000000101e-01 2.423080000000000211e+01 1.566904999999999859e+02 2.106010000000000218e+03
1.350000000000000089e-01 1.769415000000000016e-01 2.331380000000000052e+01 1.549465000000000146e+02 2.105510000000000218e+03
1.360000000000000098e-01 1.768784999999999941e-01 2.242980000000000018e+01 1.532694999999999936e+02 2.105025000000000091e+03
1.370000000000000107e-01 1.768175000000000163e-01 2.159069999999999823e+01 1.516879999999999882e+02 2.104550000000000182e+03
1.380000000000000115e-01 1.767595000000000138e-01 2.080715000000000003e+01 1.502280000000000086e+02 2.104099999999999909e+03
1.390000000000000124e-01 1.767060000000000020e-01 2.008805000000000263e+01 1.489099999999999966e+02 2.103685000000000400e+03
1.400000000000000133e-01 1.766570000000000085e-01 1.944024999999999892e+01 1.477484999999999786e+02 2.103295000000000073e+03
1.410000000000000142e-01 1.766130000000000200e-01 1.886830000000000140e+01 1.467535000000000025e+02 2.102954999999999927e+03
1.420000000000000151e-01 1.765754999999999963e-01 1.837434999999999974e+01 1.459265000000000043e+02 2.102659999999999854e+03
1.430000000000000160e-01 1.765430000000000055e-01 1.795820000000000149e+01 1.452644999999999982e+02 2.102404999999999745e+03
1.440000000000000169e-01 1.765164999999999929e-01 1.761720000000000041e+01 1.447604999999999791e+02 2.102190000000000055e+03
1.450000000000000178e-01 1.764954999999999996e-01 1.734700000000000131e+01 1.444004999999999939e+02 2.102025000000000091e+03
1.459999999999999909e-01 1.764799999999999980e-01 1.714144999999999897e+01 1.441690000000000111e+02 2.101894999999999982e+03
1.469999999999999918e-01 1.764680000000000137e-01 1.699309999999999832e+01 1.440465000000000089e+02 2.101800000000000182e+03
1.479999999999999927e-01 1.764604999999999924e-01 1.689354999999999762e+01 1.440135000000000218e+02 2.101739999999999782e+03
1.489999999999999936e-01 1.764565000000000161e-01 1.683395000000000152e+01 1.440484999999999900e+02 2.101695000000000164e+03
1.499999999999999944e-01 1.764545000000000141e-01 1.680525000000000091e+01 1.441320000000000050e+02 2.101680000000000291e+03
1.509999999999999953e-01 1.764550000000000007e-01 1.679854999999999876e+01 1.442439999999999998e+02 2.101679999999999836e+03
1.519999999999999962e-01 1.764570000000000027e-01 1.680560000000000187e+01 1.443665000000000020e+02 2.101690000000000055e+03
1.529999999999999971e-01 1.764590000000000047e-01 1.681879999999999953e+01 1.444859999999999900e+02 2.101704999999999927e+03
1.539999999999999980e-01 1.764614999999999934e-01 1.683155000000000001e+01 1.445889999999999986e+02 2.101720000000000255e+03
1.549999999999999989e-01 1.764634999999999954e-01 1.683845000000000169e+01 1.446659999999999968e+02 2.101735000000000127e+03
1.559999999999999998e-01 1.764645000000000241e-01 1.683514999999999873e+01 1.447100000000000080e+02 2.101750000000000000e+03
1.570000000000000007e-01 1.764654999999999974e-01 1.681865000000000165e+01 1.447179999999999893e+02 2.101750000000000000e+03
1.580000000000000016e-01 1.764650000000000107e-01 1.678715000000000046e+01 1.446875000000000000e+02 2.101750000000000000e+03
1.590000000000000024e-01 1.764634999999999954e-01 1.674005000000000010e+01 1.446210000000000093e+02 2.101739999999999782e+03
