# t [s], A [cm^2], U [cm/s], P [cPa], c [cm/s]
1.000000000000000021e-03 1.447904999999999887e-01 1.622366000000000086e-01 9.556940000000000168e+01 1.870220000000000027e+03
2.000000000000000042e-03 1.447700000000000098e-01 1.470405500000000032e+00 9.303034999999999854e+01 1.870009999999999991e+03
3.000000000000000062e-03 1.446860000000000090e-01 3.142610499999999973e+00 8.959655000000000769e+01 1.869220000000000027e+03
4.000000000000000083e-03 1.445575000000000054e-01 5.025876000000000232e+00 8.555819999999999936e+01 1.868029999999999973e+03
5.000000000000000104e-03 1.444039999999999768e-01 7.071899999999999409e+00 8.154089999999999350e+01 1.866630000000000109e+03
6.000000000000000125e-03 1.442459999999999853e-01 9.201724999999999710e+00 7.796645000000000891e+01 1.865195000000000164e+03
7.000000000000000146e-03 1.440925000000000122e-01 1.128021000000000029e+01 7.491855000000001041e+01 1.863815000000000055e+03
8.000000000000000167e-03 1.439459999999999906e-01 1.317206499999999991e+01 7.224609999999999843e+01 1.862519999999999982e+03
9.000000000000001055e-03 1.438099999999999934e-01 1.482153500000000079e+01 6.982210000000000605e+01 1.861335000000000036e+03
1.000000000000000194e-02 1.436859999999999804e-01 1.624380000000000024e+01 6.765935000000000343e+01 1.860275000000000091e+03
1.099999999999999936e-02 1.435774999999999968e-01 1.746389999999999887e+01 6.580870000000000175e+01 1.859349999999999909e+03
1.200000000000000025e-02 1.434840000000000004e-01 1.849595000000000056e+01 6.427700000000000102e+01 1.858569999999999936e+03
1.300000000000000114e-02 1.434059999999999779e-01 1.935030000000000072e+01 6.303725000000000023e+01 1.857914999999999964e+03
1.400000000000000203e-02 1.433419999999999972e-01 2.003345000000000198e+01 6.204165000000000418e+01 1.857384999999999991e+03
1.499999999999999944e-02 1.432889999999999997e-01 2.054759999999999920e+01 6.122034999999999627e+01 1.856960000000000036e+03
1.600000000000000033e-02 1.432444999999999968e-01 2.090469999999999828e+01 6.050915000000000532e+01 1.856605000000000018e+03
1.700000000000000122e-02 1.432074999999999876e-01 2.114735000000000298e+01 5.990769999999999840e+01 1.856315000000000055e+03
1.800000000000000211e-02 1.431800000000000017e-01 2.135204999999999842e+01 5.951559999999999917e+01 1.856105000000000018e+03
1.900000000000000300e-02 1.431655000000000011e-01 2.160745000000000005e+01 5.950305000000000177e+01 1.855994999999999891e+03
2.000000000000000042e-02 1.431680000000000175e-01 2.198069999999999879e+01 6.002809999999999491e+01 1.856030000000000200e+03
2.100000000000000130e-02 1.431904999999999983e-01 2.249054999999999893e+01 6.115024999999999977e+01 1.856224999999999909e+03
2.200000000000000219e-02 1.432315000000000116e-01 2.310060000000000002e+01 6.278484999999999872e+01 1.856575000000000045e+03
2.299999999999999961e-02 1.432869999999999977e-01 2.373335000000000150e+01 6.471715000000000373e+01 1.857050000000000182e+03
2.400000000000000050e-02 1.433495000000000186e-01 2.429615000000000080e+01 6.666235000000000355e+01 1.857585000000000036e+03
2.500000000000000139e-02 1.434104999999999963e-01 2.470899999999999963e+01 6.834409999999999741e+01 1.858119999999999891e+03
2.600000000000000228e-02 1.434634999999999938e-01 2.492454999999999998e+01 6.956399999999999295e+01 1.858590000000000146e+03
2.700000000000000316e-02 1.435040000000000204e-01 2.493629999999999924e+01 7.024129999999999541e+01 1.858950000000000045e+03
2.800000000000000058e-02 1.435290000000000177e-01 2.477409999999999712e+01 7.041564999999999941e+01 1.859190000000000055e+03
2.900000000000000147e-02 1.435420000000000029e-01 2.449014999999999986e+01 7.021659999999999968e+01 1.859315000000000055e+03
3.000000000000000236e-02 1.435445000000000193e-01 2.414085000000000036e+01 6.981334999999999980e+01 1.859355000000000018e+03
3.099999999999999978e-02 1.435414999999999885e-01 2.377080000000000126e+01 6.936154999999999404e+01 1.859335000000000036e+03
3.200000000000000067e-02 1.435354999999999825e-01 2.340289999999999893e+01 6.896335000000000548e+01 1.859289999999999964e+03
3.300000000000000155e-02 1.435295000000000043e-01 2.303625000000000256e+01 6.864930000000001087e+01 1.859240000000000009e+03
3.400000000000000244e-02 1.435230000000000117e-01 2.265155000000000030e+01 6.838410000000000366e+01 1.859190000000000055e+03
3.500000000000000333e-02 1.435155000000000181e-01 2.222149999999999892e+01 6.809055000000000746e+01 1.859125000000000000e+03
3.600000000000000422e-02 1.435040000000000204e-01 2.172234999999999872e+01 6.768315000000001191e+01 1.859029999999999973e+03
3.700000000000000511e-02 1.434885000000000188e-01 2.114430000000000121e+01 6.710155000000000314e+01 1.858904999999999973e+03
3.799999999999999906e-02 1.434664999999999968e-01 2.049745000000000061e+01 6.633554999999999779e+01 1.858724999999999909e+03
3.899999999999999994e-02 1.434394999999999976e-01 1.981305000000000049e+01 6.543514999999999304e+01 1.858500000000000000e+03
4.000000000000000083e-02 1.434094999999999953e-01 1.913830000000000098e+01 6.450440000000000396e+01 1.858244999999999891e+03
4.100000000000000172e-02 1.433800000000000074e-01 1.852785000000000082e+01 6.368039999999999878e+01 1.857994999999999891e+03
4.200000000000000261e-02 1.433554999999999968e-01 1.803249999999999886e+01 6.310369999999999635e+01 1.857785000000000082e+03
4.300000000000000350e-02 1.433395000000000086e-01 1.768919999999999959e+01 6.288725000000000165e+01 1.857639999999999873e+03
4.400000000000000439e-02 1.433345000000000036e-01 1.751440000000000197e+01 6.309239999999999782e+01 1.857590000000000146e+03
4.499999999999999833e-02 1.433435000000000126e-01 1.750075000000000003e+01 6.371594999999999942e+01 1.857650000000000091e+03
4.599999999999999922e-02 1.433639999999999914e-01 1.761965000000000003e+01 6.469095000000000084e+01 1.857815000000000055e+03
4.700000000000000011e-02 1.433945000000000081e-01 1.782620000000000005e+01 6.589920000000000755e+01 1.858069999999999936e+03
4.800000000000000100e-02 1.434325000000000183e-01 1.806674999999999898e+01 6.719190000000000396e+01 1.858384999999999991e+03
4.900000000000000189e-02 1.434725000000000028e-01 1.828699999999999903e+01 6.841310000000000002e+01 1.858715000000000146e+03
5.000000000000000278e-02 1.435104999999999853e-01 1.843834999999999980e+01 6.942134999999998968e+01 1.859039999999999964e+03
5.100000000000000366e-02 1.435414999999999885e-01 1.848310000000000031e+01 7.010669999999998936e+01 1.859309999999999945e+03
5.200000000000000455e-02 1.435624999999999818e-01 1.839665000000000106e+01 7.039990000000000236e+01 1.859494999999999891e+03
5.300000000000000544e-02 1.435714999999999908e-01 1.816805000000000092e+01 7.027434999999999832e+01 1.859579999999999927e+03
5.399999999999999939e-02 1.435684999999999878e-01 1.779785000000000039e+01 6.974179999999999779e+01 1.859559999999999945e+03
5.500000000000000028e-02 1.435520000000000129e-01 1.729564999999999841e+01 6.884319999999999595e+01 1.859425000000000182e+03
5.600000000000000117e-02 1.435230000000000117e-01 1.667695000000000149e+01 6.763775000000001114e+01 1.859190000000000055e+03
5.700000000000000205e-02 1.434845000000000148e-01 1.596005000000000074e+01 6.619244999999999379e+01 1.858865000000000009e+03
5.800000000000000294e-02 1.434364999999999946e-01 1.516420000000000101e+01 6.457370000000000232e+01 1.858460000000000036e+03
5.900000000000000383e-02 1.433820000000000094e-01 1.430835000000000079e+01 6.284199999999999875e+01 1.858000000000000000e+03
6.000000000000000472e-02 1.433224999999999916e-01 1.341084999999999994e+01 6.105004999999999882e+01 1.857494999999999891e+03
6.099999999999999867e-02 1.432599999999999985e-01 1.248994000000000071e+01 5.924365000000000236e+01 1.856965000000000146e+03
6.199999999999999956e-02 1.431955000000000033e-01 1.156433000000000000e+01 5.746405000000000030e+01 1.856414999999999964e+03
6.300000000000000044e-02 1.431315000000000226e-01 1.065409999999999968e+01 5.575150000000000006e+01 1.855869999999999891e+03
6.400000000000000133e-02 1.430695000000000161e-01 9.781285000000000451e+00 5.414784999999999826e+01 1.855329999999999927e+03
6.500000000000000222e-02 1.430099999999999982e-01 8.969805000000000916e+00 5.269879999999999853e+01 1.854825000000000045e+03
6.600000000000000311e-02 1.429564999999999864e-01 8.245129999999999626e+00 5.145380000000000109e+01 1.854360000000000127e+03
6.700000000000000400e-02 1.429094999999999949e-01 7.633454999999999657e+00 5.046545000000000414e+01 1.853954999999999927e+03
6.800000000000000488e-02 1.428714999999999846e-01 7.160579999999999501e+00 4.978669999999999618e+01 1.853625000000000000e+03
6.900000000000000577e-02 1.428444999999999854e-01 6.850365000000000038e+00 4.946775000000000233e+01 1.853384999999999991e+03
7.000000000000000666e-02 1.428304999999999991e-01 6.723410000000000331e+00 4.955250000000000199e+01 1.853250000000000000e+03
7.100000000000000755e-02 1.428300000000000125e-01 6.795780000000000598e+00 5.007504999999999740e+01 1.853235000000000127e+03
7.200000000000000844e-02 1.428455000000000141e-01 7.078065000000000495e+00 5.105709999999999837e+01 1.853355000000000018e+03
7.300000000000000933e-02 1.428769999999999762e-01 7.574764999999999304e+00 5.250634999999999764e+01 1.853605000000000018e+03
7.399999999999999634e-02 1.429250000000000242e-01 8.284129999999999328e+00 5.441559999999999775e+01 1.854005000000000109e+03
7.499999999999999722e-02 1.429894999999999916e-01 9.198360000000000980e+00 5.676359999999999673e+01 1.854539999999999964e+03
7.599999999999999811e-02 1.430700000000000027e-01 1.030413499999999871e+01 5.951635000000000275e+01 1.855214999999999918e+03
7.699999999999999900e-02 1.431655000000000011e-01 1.158338499999999982e+01 6.262915000000000276e+01 1.856014999999999873e+03
7.799999999999999989e-02 1.432744999999999991e-01 1.301435000000000031e+01 6.604964999999999975e+01 1.856929999999999836e+03
7.900000000000000078e-02 1.433949999999999947e-01 1.457280000000000086e+01 6.972060000000000457e+01 1.857954999999999927e+03
8.000000000000000167e-02 1.435255000000000003e-01 1.623279999999999745e+01 7.358279999999999177e+01 1.859059999999999945e+03
8.100000000000000255e-02 1.436634999999999995e-01 1.796825000000000117e+01 7.757839999999998781e+01 1.860244999999999891e+03
8.200000000000000344e-02 1.438079999999999914e-01 1.975394999999999968e+01 8.165309999999999491e+01 1.861480000000000018e+03
8.300000000000000433e-02 1.439564999999999872e-01 2.156604999999999706e+01 8.575854999999999961e+01 1.862750000000000000e+03
8.400000000000000522e-02 1.441069999999999851e-01 2.338349999999999795e+01 8.985394999999999754e+01 1.864054999999999836e+03
8.500000000000000611e-02 1.442589999999999983e-01 2.518805000000000049e+01 9.390704999999999814e+01 1.865365000000000009e+03
8.600000000000000699e-02 1.444104999999999972e-01 2.696484999999999843e+01 9.789539999999999509e+01 1.866679999999999836e+03
8.700000000000000788e-02 1.445604999999999807e-01 2.870230000000000103e+01 1.018036500000000046e+02 1.867985000000000127e+03
8.800000000000000877e-02 1.447094999999999909e-01 3.039220000000000255e+01 1.056256000000000057e+02 1.869275000000000091e+03
8.899999999999999578e-02 1.448554999999999982e-01 3.202904999999999802e+01 1.093610000000000042e+02 1.870554999999999836e+03
8.999999999999999667e-02 1.449995000000000034e-01 3.360960000000000036e+01 1.130149999999999864e+02 1.871815000000000055e+03
9.099999999999999756e-02 1.451414999999999789e-01 3.513254999999999484e+01 1.165945000000000107e+02 1.873050000000000182e+03
9.199999999999999845e-02 1.452804999999999791e-01 3.659754999999999825e+01 1.201075000000000017e+02 1.874275000000000091e+03
9.299999999999999933e-02 1.454179999999999917e-01 3.800495000000000090e+01 1.235614999999999952e+02 1.875480000000000018e+03
9.400000000000000022e-02 1.455529999999999879e-01 3.935504999999999853e+01 1.269639999999999986e+02 1.876670000000000073e+03
9.500000000000000111e-02 1.456870000000000109e-01 4.064799999999999613e+01 1.303164999999999907e+02 1.877849999999999909e+03
9.600000000000000200e-02 1.458185000000000175e-01 4.188339999999999463e+01 1.336184999999999832e+02 1.879005000000000109e+03
9.700000000000000289e-02 1.459484999999999810e-01 4.305984999999999729e+01 1.368665000000000020e+02 1.880154999999999973e+03
9.800000000000000377e-02 1.460759999999999836e-01 4.417565000000000452e+01 1.400534999999999854e+02 1.881284999999999854e+03
9.900000000000000466e-02 1.462009999999999976e-01 4.522804999999999609e+01 1.431684999999999945e+02 1.882394999999999982e+03
1.000000000000000056e-01 1.463240000000000096e-01 4.621384999999999366e+01 1.461999999999999886e+02 1.883480000000000018e+03
1.010000000000000064e-01 1.464435000000000042e-01 4.712930000000000064e+01 1.491335000000000264e+02 1.884539999999999964e+03
1.020000000000000073e-01 1.465595000000000092e-01 4.797034999999999627e+01 1.519544999999999959e+02 1.885570000000000164e+03
1.030000000000000082e-01 1.466709999999999958e-01 4.873255000000000337e+01 1.546479999999999961e+02 1.886565000000000055e+03
1.040000000000000091e-01 1.467780000000000196e-01 4.941174999999999784e+01 1.571984999999999957e+02 1.887519999999999982e+03
1.050000000000000100e-01 1.468800000000000106e-01 5.000350000000000250e+01 1.595914999999999964e+02 1.888425000000000182e+03
1.059999999999999970e-01 1.469759999999999955e-01 5.050390000000000157e+01 1.618135000000000048e+02 1.889285000000000082e+03
1.069999999999999979e-01 1.470660000000000023e-01 5.090919999999999845e+01 1.638514999999999873e+02 1.890089999999999918e+03
1.079999999999999988e-01 1.471485000000000154e-01 5.121630000000000393e+01 1.656965000000000146e+02 1.890835000000000036e+03
1.089999999999999997e-01 1.472249999999999948e-01 5.142265000000000441e+01 1.673374999999999773e+02 1.891514999999999873e+03
1.100000000000000006e-01 1.472930000000000073e-01 5.152684999999999604e+01 1.687690000000000055e+02 1.892130000000000109e+03
1.110000000000000014e-01 1.473539999999999850e-01 5.152814999999999657e+01 1.699859999999999900e+02 1.892680000000000064e+03
1.120000000000000023e-01 1.474059999999999815e-01 5.142725000000000080e+01 1.709875000000000114e+02 1.893159999999999854e+03
1.130000000000000032e-01 1.474509999999999987e-01 5.122610000000000241e+01 1.717755000000000223e+02 1.893565000000000055e+03
1.140000000000000041e-01 1.474874999999999936e-01 5.092784999999999940e+01 1.723549999999999898e+02 1.893900000000000091e+03
1.150000000000000050e-01 1.475164999999999949e-01 5.053730000000000189e+01 1.727334999999999923e+02 1.894170000000000073e+03
1.160000000000000059e-01 1.475374999999999881e-01 5.006040000000000134e+01 1.729225000000000136e+02 1.894365000000000009e+03
1.170000000000000068e-01 1.475515000000000021e-01 4.950445000000000562e+01 1.729370000000000118e+02 1.894500000000000000e+03
1.180000000000000077e-01 1.475589999999999957e-01 4.887789999999999679e+01 1.727930000000000064e+02 1.894575000000000045e+03
1.190000000000000085e-01 1.475599999999999967e-01 4.818984999999999985e+01 1.725090000000000146e+02 1.894589999999999918e+03
1.200000000000000094e-01 1.475555000000000061e-01 4.745015000000000072e+01 1.721055000000000064e+02 1.894559999999999945e+03
1.209999999999999964e-01 1.475464999999999971e-01 4.666890000000000072e+01 1.716030000000000086e+02 1.894485000000000127e+03
1.219999999999999973e-01 1.475329999999999975e-01 4.585614999999999952e+01 1.710215000000000032e+02 1.894375000000000000e+03
1.229999999999999982e-01 1.475159999999999805e-01 4.502170000000000272e+01 1.703810000000000002e+02 1.894224999999999909e+03
1.239999999999999991e-01 1.474965000000000026e-01 4.417470000000000141e+01 1.696979999999999791e+02 1.894055000000000064e+03
1.250000000000000000e-01 1.474749999999999950e-01 4.332354999999999734e+01 1.689904999999999973e+02 1.893869999999999891e+03
1.260000000000000009e-01 1.474515000000000131e-01 4.247560000000000002e+01 1.682715000000000032e+02 1.893664999999999964e+03
1.270000000000000018e-01 1.474274999999999891e-01 4.163700000000000045e+01 1.675515000000000043e+02 1.893450000000000045e+03
1.280000000000000027e-01 1.474024999999999919e-01 4.081269999999999953e+01 1.668380000000000223e+02 1.893230000000000018e+03
1.290000000000000036e-01 1.473770000000000080e-01 4.000625000000000142e+01 1.661379999999999768e+02 1.893009999999999991e+03
1.300000000000000044e-01 1.473524999999999974e-01 3.921989999999999554e+01 1.654519999999999982e+02 1.892784999999999854e+03
1.310000000000000053e-01 1.473269999999999857e-01 3.845459999999999923e+01 1.647810000000000059e+02 1.892559999999999945e+03
1.320000000000000062e-01 1.473025000000000029e-01 3.771009999999999707e+01 1.641220000000000141e+02 1.892340000000000146e+03
1.330000000000000071e-01 1.472779999999999923e-01 3.698494999999999777e+01 1.634695000000000107e+02 1.892115000000000009e+03
1.340000000000000080e-01 1.472529999999999950e-01 3.627674999999999983e+01 1.628185000000000002e+02 1.891894999999999982e+03
1.350000000000000089e-01 1.472279999999999978e-01 3.558245000000000147e+01 1.621594999999999800e+02 1.891670000000000073e+03
1.360000000000000098e-01 1.472025000000000139e-01 3.489820000000000277e+01 1.614839999999999804e+02 1.891440000000000055e+03
1.370000000000000107e-01 1.471764999999999879e-01 3.421994999999999720e+01 1.607824999999999989e+02 1.891204999999999927e+03
1.380000000000000115e-01 1.471494999999999886e-01 3.354319999999999879e+01 1.600459999999999923e+02 1.890970000000000027e+03
1.390000000000000124e-01 1.471210000000000018e-01 3.286379999999999768e+01 1.592660000000000196e+02 1.890710000000000036e+03
1.400000000000000133e-01 1.470905000000000129e-01 3.217759999999999820e+01 1.584340000000000259e+02 1.890444999999999936e+03
1.410000000000000142e-01 1.470589999999999953e-01 3.148090000000000188e+01 1.575425000000000182e+02 1.890164999999999964e+03
1.420000000000000151e-01 1.470249999999999890e-01 3.077074999999999960e+01 1.565875000000000057e+02 1.889860000000000127e+03
1.430000000000000160e-01 1.469885000000000219e-01 3.004484999999999673e+01 1.555645000000000095e+02 1.889539999999999964e+03
1.440000000000000169e-01 1.469499999999999973e-01 2.930174999999999841e+01 1.544739999999999895e+02 1.889199999999999818e+03
1.450000000000000178e-01 1.469084999999999974e-01 2.854110000000000014e+01 1.533149999999999977e+02 1.888835000000000036e+03
1.459999999999999909e-01 1.468650000000000233e-01 2.776335000000000264e+01 1.520925000000000011e+02 1.888444999999999936e+03
1.469999999999999918e-01 1.468189999999999773e-01 2.697025000000000006e+01 1.508104999999999905e+02 1.888045000000000073e+03
1.479999999999999927e-01 1.467709999999999848e-01 2.616424999999999912e+01 1.494780000000000086e+02 1.887619999999999891e+03
1.489999999999999936e-01 1.467209999999999903e-01 2.534900000000000020e+01 1.481045000000000016e+02 1.887179999999999836e+03
1.499999999999999944e-01 1.466695000000000082e-01 2.452880000000000038e+01 1.466999999999999886e+02 1.886724999999999909e+03
1.509999999999999953e-01 1.466169999999999973e-01 2.370870000000000033e+01 1.452789999999999964e+02 1.886259999999999991e+03
1.519999999999999962e-01 1.465635000000000132e-01 2.289419999999999789e+01 1.438539999999999850e+02 1.885789999999999964e+03
1.529999999999999971e-01 1.465100000000000013e-01 2.209109999999999729e+01 1.424385000000000048e+02 1.885315000000000055e+03
1.539999999999999980e-01 1.464560000000000028e-01 2.130539999999999878e+01 1.410469999999999970e+02 1.884845000000000027e+03
1.549999999999999989e-01 1.464035000000000197e-01 2.054289999999999949e+01 1.396924999999999955e+02 1.884380000000000109e+03
1.559999999999999998e-01 1.463515000000000232e-01 1.980910000000000082e+01 1.383874999999999886e+02 1.883920000000000073e+03
1.570000000000000007e-01 1.463015000000000010e-01 1.910904999999999987e+01 1.371430000000000007e+02 1.883474999999999909e+03
1.580000000000000016e-01 1.462534999999999807e-01 1.844715000000000060e+01 1.359685000000000059e+02 1.883050000000000182e+03
1.590000000000000024e-01 1.462080000000000046e-01 1.782689999999999841e+01 1.348704999999999927e+02 1.882644999999999982e+03
