# t [s], A [cm^2], U [cm/s], P [cPa], c [cm/s]
1.000000000000000021e-03 6.722839999999999927e-01 5.365749999999995523e-03 9.919270000000000209e+01 1.728329999999999927e+03
2.000000000000000042e-03 6.722759999999999847e-01 2.241484999999999658e-03 9.916499999999999204e+01 1.728320000000000164e+03
3.000000000000000062e-03 6.723405000000000076e-01 1.191931499999999977e-01 9.930154999999999177e+01 1.728345000000000027e+03
4.000000000000000083e-03 6.723799999999999777e-01 2.053931999999999980e-01 9.941425000000000978e+01 1.728369999999999891e+03
5.000000000000000104e-03 6.723354999999999748e-01 1.493240000000000123e-01 9.929570000000001073e+01 1.728355000000000018e+03
6.000000000000000125e-03 6.722675000000000178e-01 4.494650000000000034e-02 9.902495000000000402e+01 1.728299999999999955e+03
7.000000000000000146e-03 6.722015000000000073e-01 -6.690949999999995512e-02 9.867549999999999955e+01 1.728230000000000018e+03
8.000000000000000167e-03 6.720829999999999860e-01 -2.884649999999999714e-01 9.812165000000000248e+01 1.728125000000000000e+03
9.000000000000001055e-03 6.718930000000000735e-01 -6.564150000000000817e-01 9.727490000000000236e+01 1.727960000000000036e+03
1.000000000000000194e-02 6.716210000000000235e-01 -1.183924999999999894e+00 9.607009999999999650e+01 1.727724999999999909e+03
1.099999999999999936e-02 6.712449999999999806e-01 -1.894004999999999939e+00 9.442435000000000400e+01 1.727400000000000091e+03
1.200000000000000025e-02 6.707809999999999606e-01 -2.737499999999999822e+00 9.234810000000000230e+01 1.726974999999999909e+03
1.300000000000000114e-02 6.702950000000000852e-01 -3.562439999999999607e+00 9.001949999999999363e+01 1.726490000000000009e+03
1.400000000000000203e-02 6.698640000000000150e-01 -4.188625000000000043e+00 8.771065000000000111e+01 1.725984999999999900e+03
1.499999999999999944e-02 6.695314999999999461e-01 -4.500200500000000048e+00 8.564994999999998981e+01 1.725510000000000218e+03
1.600000000000000033e-02 6.692919999999999980e-01 -4.483237499999999542e+00 8.393370000000000175e+01 1.725085000000000036e+03
1.700000000000000122e-02 6.691050000000000608e-01 -4.206920000000000215e+00 8.251875000000001137e+01 1.724710000000000036e+03
1.800000000000000211e-02 6.689199999999999591e-01 -3.777744999999999909e+00 8.127094999999999914e+01 1.724369999999999891e+03
1.900000000000000300e-02 6.686974999999999447e-01 -3.292319500000000065e+00 8.003579999999999472e+01 1.724029999999999973e+03
2.000000000000000042e-02 6.684220000000000717e-01 -2.804635649999999814e+00 7.870150000000001000e+01 1.723675000000000182e+03
2.100000000000000130e-02 6.681015000000000148e-01 -2.317054499999999795e+00 7.723339999999998895e+01 1.723300000000000182e+03
2.200000000000000219e-02 6.677615000000000078e-01 -1.796304999999999819e+00 7.566899999999999693e+01 1.722900000000000091e+03
2.299999999999999961e-02 6.674259999999999637e-01 -1.204370000000000163e+00 7.408025000000000659e+01 1.722500000000000000e+03
2.400000000000000050e-02 6.671095000000000219e-01 -5.281000000000002359e-01 7.252580000000000382e+01 1.722099999999999909e+03
2.500000000000000139e-02 6.668039999999999523e-01 2.047449999999999548e-01 7.101465000000000316e+01 1.721704999999999927e+03
2.600000000000000228e-02 6.664845000000000352e-01 9.266650000000002940e-01 6.949290000000000589e+01 1.721315000000000055e+03
2.700000000000000316e-02 6.661189999999999056e-01 1.545714999999999950e+00 6.785464999999999236e+01 1.720894999999999982e+03
2.800000000000000058e-02 6.656744999999999468e-01 1.968979999999999952e+00 6.597200000000000841e+01 1.720434999999999945e+03
2.900000000000000147e-02 6.651294999999999291e-01 2.127170000000000005e+00 6.373385000000000389e+01 1.719910000000000082e+03
3.000000000000000236e-02 6.644820000000000171e-01 1.993415000000000603e+00 6.108285000000000053e+01 1.719305000000000064e+03
3.099999999999999978e-02 6.637494999999999923e-01 1.590455000000000396e+00 5.803849999999999909e+01 1.718615000000000009e+03
3.200000000000000067e-02 6.629685000000000716e-01 9.841750000000004661e-01 5.469960000000000377e+01 1.717869999999999891e+03
3.300000000000000155e-02 6.621820000000000483e-01 2.668999999999996930e-01 5.122605000000000075e+01 1.717085000000000036e+03
3.400000000000000244e-02 6.614370000000000527e-01 -4.631349999999994083e-01 4.780849999999999511e+01 1.716305000000000064e+03
3.500000000000000333e-02 6.607704999999999274e-01 -1.118929999999999758e+00 4.463644999999999641e+01 1.715565000000000055e+03
3.600000000000000422e-02 6.602109999999999923e-01 -1.635154999999999692e+00 4.187205000000000155e+01 1.714900000000000091e+03
3.700000000000000511e-02 6.597739999999999716e-01 -1.971090000000000009e+00 3.963509999999999422e+01 1.714335000000000036e+03
3.799999999999999906e-02 6.594660000000001077e-01 -2.107425000000000104e+00 3.799859999999999616e+01 1.713889999999999873e+03
3.899999999999999994e-02 6.592869999999999564e-01 -2.039682999999999691e+00 3.699380000000000024e+01 1.713590000000000146e+03
4.000000000000000083e-02 6.592335000000000278e-01 -1.770634999999999959e+00 3.662059999999999604e+01 1.713424999999999955e+03
4.100000000000000172e-02 6.592994999999999273e-01 -1.304081999999999963e+00 3.685969999999999658e+01 1.713404999999999973e+03
4.200000000000000261e-02 6.594805000000000250e-01 -6.413650000000000739e-01 3.768340000000000600e+01 1.713514999999999873e+03
4.300000000000000350e-02 6.597735000000000127e-01 2.187350000000001238e-01 3.906159999999999854e+01 1.713759999999999991e+03
4.400000000000000439e-02 6.601725000000000509e-01 1.277549999999999963e+00 4.096375000000000455e+01 1.714130000000000109e+03
4.499999999999999833e-02 6.606739999999999835e-01 2.532685000000000297e+00 4.335654999999999859e+01 1.714615000000000009e+03
4.599999999999999922e-02 6.612685000000000368e-01 3.974420000000000286e+00 4.620000000000000284e+01 1.715204999999999927e+03
4.700000000000000011e-02 6.619444999999999357e-01 5.583490000000000286e+00 4.944384999999999764e+01 1.715894999999999982e+03
4.800000000000000100e-02 6.626879999999999438e-01 7.331095000000000361e+00 5.302595000000000169e+01 1.716674999999999955e+03
4.900000000000000189e-02 6.634815000000000573e-01 9.180511499999999714e+00 5.687315000000000254e+01 1.717519999999999982e+03
5.000000000000000278e-02 6.643069999999999808e-01 1.109015999999999913e+01 6.090494999999999948e+01 1.718424999999999955e+03
5.100000000000000366e-02 6.651465000000000849e-01 1.301734500000000061e+01 6.503830000000000666e+01 1.719360000000000127e+03
5.200000000000000455e-02 6.659840000000000204e-01 1.492205999999999833e+01 6.919395000000000095e+01 1.720320000000000164e+03
5.300000000000000544e-02 6.668060000000000098e-01 1.676948000000000150e+01 7.330160000000000764e+01 1.721275000000000091e+03
5.399999999999999939e-02 6.676035000000000164e-01 1.853235000000000099e+01 7.730445000000000277e+01 1.722224999999999909e+03
5.500000000000000028e-02 6.683695000000000608e-01 2.019140000000000157e+01 8.116165000000000873e+01 1.723144999999999982e+03
5.600000000000000117e-02 6.691019999999999746e-01 2.173535000000000039e+01 8.484919999999999618e+01 1.724039999999999964e+03
5.700000000000000205e-02 6.698009999999999797e-01 2.315995000000000203e+01 8.835890000000000555e+01 1.724900000000000091e+03
5.800000000000000294e-02 6.704689999999999817e-01 2.446690000000000254e+01 9.169640000000001123e+01 1.725724999999999909e+03
5.900000000000000383e-02 6.711110000000000131e-01 2.566215000000000046e+01 9.487825000000000841e+01 1.726519999999999982e+03
6.000000000000000472e-02 6.717319999999999958e-01 2.675459999999999994e+01 9.792789999999999395e+01 1.727279999999999973e+03
6.099999999999999867e-02 6.723375000000000323e-01 2.775484999999999758e+01 1.008729500000000030e+02 1.728019999999999982e+03
6.199999999999999956e-02 6.729330000000000034e-01 2.867374999999999829e+01 1.037426000000000101e+02 1.728740000000000009e+03
6.300000000000000044e-02 6.735229999999999828e-01 2.952130000000000010e+01 1.065625000000000000e+02 1.729444999999999936e+03
6.400000000000000133e-02 6.741114999999999746e-01 3.030564999999999998e+01 1.093524999999999920e+02 1.730144999999999982e+03
6.500000000000000222e-02 6.746989999999999377e-01 3.103260000000000218e+01 1.121260000000000048e+02 1.730835000000000036e+03
6.600000000000000311e-02 6.752854999999999830e-01 3.170475000000000065e+01 1.148884999999999934e+02 1.731525000000000091e+03
6.700000000000000400e-02 6.758695000000000119e-01 3.232155000000000200e+01 1.176340000000000003e+02 1.732210000000000036e+03
6.800000000000000488e-02 6.764470000000000205e-01 3.287969999999999970e+01 1.203509999999999991e+02 1.732884999999999991e+03
6.900000000000000577e-02 6.770130000000000869e-01 3.337355000000000160e+01 1.230174999999999983e+02 1.733549999999999955e+03
7.000000000000000666e-02 6.775609999999999689e-01 3.379585000000000150e+01 1.256094999999999970e+02 1.734199999999999818e+03
7.100000000000000755e-02 6.780865000000000364e-01 3.413864999999999839e+01 1.280960000000000036e+02 1.734825000000000045e+03
7.200000000000000844e-02 6.785809999999999897e-01 3.439419999999999789e+01 1.304480000000000075e+02 1.735420000000000073e+03
7.300000000000000933e-02 6.790410000000000057e-01 3.455554999999999666e+01 1.326370000000000005e+02 1.735980000000000018e+03
7.399999999999999634e-02 6.794605000000000228e-01 3.461715000000000231e+01 1.346374999999999886e+02 1.736500000000000000e+03
7.499999999999999722e-02 6.798359999999999959e-01 3.457509999999999906e+01 1.364275000000000091e+02 1.736974999999999909e+03
7.599999999999999811e-02 6.801645000000000607e-01 3.442770000000000152e+01 1.379920000000000186e+02 1.737394999999999982e+03
7.699999999999999900e-02 6.804440000000000488e-01 3.417524999999999835e+01 1.393215000000000146e+02 1.737759999999999991e+03
7.799999999999999989e-02 6.806754999999999889e-01 3.382035000000000480e+01 1.404120000000000061e+02 1.738069999999999936e+03
7.900000000000000078e-02 6.808589999999999920e-01 3.336789999999999878e+01 1.412660000000000196e+02 1.738324999999999818e+03
8.000000000000000167e-02 6.809959999999999347e-01 3.282469999999999999e+01 1.418915000000000077e+02 1.738519999999999982e+03
8.100000000000000255e-02 6.810905000000000431e-01 3.219984999999999786e+01 1.423034999999999854e+02 1.738664999999999964e+03
8.200000000000000344e-02 6.811454999999999593e-01 3.150400000000000134e+01 1.425190000000000055e+02 1.738759999999999991e+03
8.300000000000000433e-02 6.811659999999999382e-01 3.074960000000000093e+01 1.425610000000000070e+02 1.738809999999999945e+03
8.400000000000000522e-02 6.811585000000000001e-01 2.995004999999999740e+01 1.424560000000000173e+02 1.738825000000000045e+03
8.500000000000000611e-02 6.811270000000000380e-01 2.911950000000000216e+01 1.422305000000000064e+02 1.738809999999999945e+03
8.600000000000000699e-02 6.810784999999999201e-01 2.827210000000000178e+01 1.419130000000000109e+02 1.738755000000000109e+03
8.700000000000000788e-02 6.810175000000000534e-01 2.742154999999999987e+01 1.415319999999999823e+02 1.738695000000000164e+03
8.800000000000000877e-02 6.809499999999999442e-01 2.658040000000000092e+01 1.411140000000000043e+02 1.738610000000000127e+03
8.899999999999999578e-02 6.808795000000000819e-01 2.575945000000000107e+01 1.406825000000000045e+02 1.738519999999999982e+03
8.999999999999999667e-02 6.808110000000000550e-01 2.496734999999999971e+01 1.402565000000000168e+02 1.738429999999999836e+03
9.099999999999999756e-02 6.807460000000000733e-01 2.421014999999999873e+01 1.398525000000000205e+02 1.738335000000000036e+03
9.199999999999999845e-02 6.806864999999999721e-01 2.349134999999999707e+01 1.394784999999999968e+02 1.738244999999999891e+03
9.299999999999999933e-02 6.806319999999999037e-01 2.281165000000000020e+01 1.391404999999999745e+02 1.738160000000000082e+03
9.400000000000000022e-02 6.805829999999999380e-01 2.216935000000000144e+01 1.388374999999999773e+02 1.738079999999999927e+03
9.500000000000000111e-02 6.805379999999999763e-01 2.156040000000000134e+01 1.385635000000000048e+02 1.738009999999999991e+03
9.600000000000000200e-02 6.804945000000000022e-01 2.097905000000000086e+01 1.383100000000000023e+02 1.737945000000000164e+03
9.700000000000000289e-02 6.804494999999999294e-01 2.041829999999999856e+01 1.380649999999999977e+02 1.737875000000000000e+03
9.800000000000000377e-02 6.804004999999999637e-01 1.987014999999999887e+01 1.378140000000000214e+02 1.737809999999999945e+03
9.900000000000000466e-02 6.803455000000000474e-01 1.932649999999999935e+01 1.375434999999999945e+02 1.737740000000000009e+03
1.000000000000000056e-01 6.802805000000000657e-01 1.877929999999999922e+01 1.372384999999999877e+02 1.737664999999999964e+03
1.010000000000000064e-01 6.802034999999999609e-01 1.822124999999999773e+01 1.368855000000000075e+02 1.737579999999999927e+03
1.020000000000000073e-01 6.801129999999999676e-01 1.764600000000000080e+01 1.364735000000000014e+02 1.737480000000000018e+03
1.030000000000000082e-01 6.800070000000000281e-01 1.704874999999999829e+01 1.359954999999999927e+02 1.737375000000000000e+03
1.040000000000000091e-01 6.798854999999999205e-01 1.642629999999999768e+01 1.354460000000000264e+02 1.737244999999999891e+03
1.050000000000000100e-01 6.797485000000000888e-01 1.577720000000000056e+01 1.348240000000000123e+02 1.737099999999999909e+03
1.059999999999999970e-01 6.795975000000000765e-01 1.510219999999999985e+01 1.341320000000000050e+02 1.736944999999999936e+03
1.069999999999999979e-01 6.794340000000000934e-01 1.440390000000000015e+01 1.333770000000000095e+02 1.736769999999999982e+03
1.079999999999999988e-01 6.792599999999999749e-01 1.368655500000000025e+01 1.325695000000000050e+02 1.736585000000000036e+03
1.089999999999999997e-01 6.790800000000000169e-01 1.295626999999999995e+01 1.317224999999999966e+02 1.736390000000000100e+03
1.100000000000000006e-01 6.788965000000000138e-01 1.222045999999999921e+01 1.308524999999999920e+02 1.736184999999999945e+03
1.110000000000000014e-01 6.787130000000000107e-01 1.148743999999999943e+01 1.299770000000000039e+02 1.735980000000000018e+03
1.120000000000000023e-01 6.785345000000000404e-01 1.076615999999999929e+01 1.291144999999999925e+02 1.735775000000000091e+03
1.130000000000000032e-01 6.783645000000000369e-01 1.006570499999999946e+01 1.282844999999999800e+02 1.735574999999999818e+03
1.140000000000000041e-01 6.782060000000000866e-01 9.394829999999998904e+00 1.275044999999999931e+02 1.735389999999999873e+03
1.150000000000000050e-01 6.780630000000000823e-01 8.761680000000000135e+00 1.267909999999999968e+02 1.735210000000000036e+03
1.160000000000000059e-01 6.779384999999999994e-01 8.173114999999999242e+00 1.261579999999999870e+02 1.735049999999999955e+03
1.170000000000000068e-01 6.778325000000000600e-01 7.634809999999999874e+00 1.256159999999999997e+02 1.734909999999999854e+03
1.180000000000000077e-01 6.777480000000000171e-01 7.150629999999999598e+00 1.251724999999999994e+02 1.734789999999999964e+03
1.190000000000000085e-01 6.776849999999999818e-01 6.722794999999999632e+00 1.248299999999999983e+02 1.734690000000000055e+03
1.200000000000000094e-01 6.776429999999999954e-01 6.351700000000000124e+00 1.245900000000000034e+02 1.734619999999999891e+03
1.209999999999999964e-01 6.776200000000000001e-01 6.036004999999999399e+00 1.244470000000000027e+02 1.734569999999999936e+03
1.219999999999999973e-01 6.776145000000000085e-01 5.772825000000000095e+00 1.243940000000000055e+02 1.734539999999999964e+03
1.229999999999999982e-01 6.776249999999999218e-01 5.557945000000000135e+00 1.244209999999999923e+02 1.734525000000000091e+03
1.239999999999999991e-01 6.776484999999999870e-01 5.386084999999999567e+00 1.245165000000000077e+02 1.734530000000000200e+03
1.250000000000000000e-01 6.776820000000000066e-01 5.251240000000000130e+00 1.246664999999999992e+02 1.734549999999999955e+03
1.260000000000000009e-01 6.777225000000000055e-01 5.146959999999999980e+00 1.248559999999999945e+02 1.734585000000000036e+03
1.270000000000000018e-01 6.777674999999999672e-01 5.066689999999999472e+00 1.250720000000000027e+02 1.734630000000000109e+03
1.280000000000000027e-01 6.778134999999999577e-01 5.003985000000000127e+00 1.253009999999999877e+02 1.734670000000000073e+03
1.290000000000000036e-01 6.778595000000000592e-01 4.952765000000000306e+00 1.255300000000000011e+02 1.734715000000000146e+03
1.300000000000000044e-01 6.779020000000000046e-01 4.907494999999999941e+00 1.257485000000000070e+02 1.734764999999999873e+03
1.310000000000000053e-01 6.779405000000000570e-01 4.863274999999999793e+00 1.259480000000000075e+02 1.734809999999999945e+03
1.320000000000000062e-01 6.779730000000000478e-01 4.815990000000000215e+00 1.261200000000000045e+02 1.734849999999999909e+03
1.330000000000000071e-01 6.779984999999999484e-01 4.762280000000000513e+00 1.262605000000000075e+02 1.734880000000000109e+03
1.340000000000000080e-01 6.780169999999999808e-01 4.699605000000000032e+00 1.263659999999999997e+02 1.734909999999999854e+03
1.350000000000000089e-01 6.780285000000000339e-01 4.626204999999999679e+00 1.264339999999999975e+02 1.734929999999999836e+03
1.360000000000000098e-01 6.780314999999998982e-01 4.541080000000000005e+00 1.264650000000000034e+02 1.734934999999999945e+03
1.370000000000000107e-01 6.780284999999999229e-01 4.443920000000000314e+00 1.264604999999999961e+02 1.734940000000000055e+03
1.380000000000000115e-01 6.780189999999999273e-01 4.335039999999999338e+00 1.264224999999999994e+02 1.734934999999999945e+03
1.390000000000000124e-01 6.780034999999999812e-01 4.215304999999999858e+00 1.263534999999999968e+02 1.734924999999999955e+03
1.400000000000000133e-01 6.779830000000000023e-01 4.086025000000000240e+00 1.262584999999999980e+02 1.734909999999999854e+03
1.410000000000000142e-01 6.779585000000000194e-01 3.948834999999999873e+00 1.261409999999999911e+02 1.734884999999999991e+03
1.420000000000000151e-01 6.779310000000000613e-01 3.805614999999999970e+00 1.260054999999999978e+02 1.734860000000000127e+03
1.430000000000000160e-01 6.779009999999999758e-01 3.658345000000000180e+00 1.258559999999999945e+02 1.734825000000000045e+03
1.440000000000000169e-01 6.778694999999999027e-01 3.508995000000000086e+00 1.256970000000000027e+02 1.734789999999999964e+03
1.450000000000000178e-01 6.778370000000000228e-01 3.359455000000000080e+00 1.255320000000000107e+02 1.734755000000000109e+03
1.459999999999999909e-01 6.778039999999999621e-01 3.211384999999999934e+00 1.253629999999999995e+02 1.734714999999999918e+03
1.469999999999999918e-01 6.777710000000000123e-01 3.066209999999999880e+00 1.251930000000000121e+02 1.734674999999999955e+03
1.479999999999999927e-01 6.777385000000000215e-01 2.925030000000000019e+00 1.250225000000000080e+02 1.734639999999999873e+03
1.489999999999999936e-01 6.777055000000000717e-01 2.788625000000000131e+00 1.248524999999999920e+02 1.734599999999999909e+03
1.499999999999999944e-01 6.776729999999999698e-01 2.657459999999999933e+00 1.246825000000000045e+02 1.734555000000000064e+03
1.509999999999999953e-01 6.776400000000000201e-01 2.531705000000000094e+00 1.245130000000000052e+02 1.734519999999999982e+03
1.519999999999999962e-01 6.776065000000000005e-01 2.411340000000000039e+00 1.243414999999999964e+02 1.734474999999999909e+03
1.529999999999999971e-01 6.775720000000000631e-01 2.296145000000000103e+00 1.241675000000000040e+02 1.734430000000000064e+03
1.539999999999999980e-01 6.775364999999999860e-01 2.185859999999999914e+00 1.239890000000000043e+02 1.734389999999999873e+03
1.549999999999999989e-01 6.774999999999999911e-01 2.080224999999999991e+00 1.238034999999999997e+02 1.734344999999999800e+03
1.559999999999999998e-01 6.774609999999999799e-01 1.979044999999999943e+00 1.236115000000000066e+02 1.734299999999999955e+03
1.570000000000000007e-01 6.774210000000000509e-01 1.882270000000000110e+00 1.234124999999999943e+02 1.734255000000000109e+03
1.580000000000000016e-01 6.773784999999999945e-01 1.790038000000000018e+00 1.232055000000000007e+02 1.734204999999999927e+03
1.590000000000000024e-01 6.773350000000000204e-01 1.702665499999999943e+00 1.229915000000000020e+02 1.734155000000000200e+03
