# t [s], A [cm^2], U [cm/s], P [cPa], c [cm/s]
1.000000000000000021e-03 1.785690000000000055e-01 3.252893000000000034e-01 9.463245000000000573e+01 2.175800000000000182e+03
2.000000000000000042e-03 1.785235000000000016e-01 1.790983500000000062e+00 9.125554999999999950e+01 2.175409999999999854e+03
3.000000000000000062e-03 1.784020000000000050e-01 3.593048000000000020e+00 8.662205000000000155e+01 2.174430000000000291e+03
4.000000000000000083e-03 1.782394999999999952e-01 5.622346499999999914e+00 8.169225000000000136e+01 2.173119999999999891e+03
5.000000000000000104e-03 1.780669999999999753e-01 7.798754999999999882e+00 7.738800000000000523e+01 2.171744999999999891e+03
6.000000000000000125e-03 1.779020000000000046e-01 9.920954999999999302e+00 7.391409999999999059e+01 2.170449999999999818e+03
7.000000000000000146e-03 1.777485000000000037e-01 1.177389499999999956e+01 7.092735000000000412e+01 2.169260000000000218e+03
8.000000000000000167e-03 1.776079999999999881e-01 1.330985000000000085e+01 6.823784999999999457e+01 2.168199999999999818e+03
9.000000000000001055e-03 1.774859999999999771e-01 1.457985000000000042e+01 6.595265000000000555e+01 2.167295000000000073e+03
1.000000000000000194e-02 1.773849999999999871e-01 1.561224999999999952e+01 6.413054999999999950e+01 2.166539999999999964e+03
1.099999999999999936e-02 1.773035000000000028e-01 1.641819999999999879e+01 6.271970000000000312e+01 2.165945000000000164e+03
1.200000000000000025e-02 1.772384999999999933e-01 1.700329999999999941e+01 6.162194999999999823e+01 2.165484999999999673e+03
1.300000000000000114e-02 1.771865000000000245e-01 1.736735000000000184e+01 6.069660000000000366e+01 2.165114999999999782e+03
1.400000000000000203e-02 1.771424999999999805e-01 1.754594999999999771e+01 5.985934999999999917e+01 2.164809999999999945e+03
1.499999999999999944e-02 1.771090000000000164e-01 1.765364999999999895e+01 5.925090000000000146e+01 2.164579999999999927e+03
1.600000000000000033e-02 1.770924999999999860e-01 1.785784999999999911e+01 5.924779999999999802e+01 2.164474999999999909e+03
1.700000000000000122e-02 1.771035000000000248e-01 1.829204999999999970e+01 6.023985000000000412e+01 2.164569999999999709e+03
1.800000000000000211e-02 1.771479999999999999e-01 1.897710000000000008e+01 6.234685000000000343e+01 2.164900000000000091e+03
1.900000000000000300e-02 1.772215000000000040e-01 1.980635000000000190e+01 6.528334999999999866e+01 2.165444999999999709e+03
2.000000000000000042e-02 1.773115000000000108e-01 2.059405000000000285e+01 6.844544999999999391e+01 2.166119999999999891e+03
2.100000000000000130e-02 1.774005000000000165e-01 2.115449999999999875e+01 7.114619999999999322e+01 2.166800000000000182e+03
2.200000000000000219e-02 1.774724999999999775e-01 2.137049999999999983e+01 7.286850000000001160e+01 2.167360000000000127e+03
2.299999999999999961e-02 1.775180000000000091e-01 2.122520000000000095e+01 7.342404999999999404e+01 2.167720000000000255e+03
2.400000000000000050e-02 1.775344999999999840e-01 2.079110000000000014e+01 7.296779999999999688e+01 2.167875000000000000e+03
2.500000000000000139e-02 1.775280000000000191e-01 2.018699999999999761e+01 7.188214999999999577e+01 2.167844999999999800e+03
2.600000000000000228e-02 1.775069999999999981e-01 1.952524999999999977e+01 7.059649999999999181e+01 2.167695000000000164e+03
2.700000000000000316e-02 1.774809999999999999e-01 1.887290000000000134e+01 6.942349999999999000e+01 2.167505000000000109e+03
2.800000000000000058e-02 1.774554999999999882e-01 1.823814999999999742e+01 6.847299999999999898e+01 2.167309999999999945e+03
2.900000000000000147e-02 1.774300000000000044e-01 1.758310000000000173e+01 6.766120000000000800e+01 2.167125000000000000e+03
3.000000000000000236e-02 1.774029999999999774e-01 1.685340000000000060e+01 6.679429999999999268e+01 2.166925000000000182e+03
3.099999999999999978e-02 1.773699999999999999e-01 1.601129999999999853e+01 6.568429999999999325e+01 2.166684999999999945e+03
3.200000000000000067e-02 1.773290000000000144e-01 1.506075000000000053e+01 6.425194999999999368e+01 2.166380000000000109e+03
3.300000000000000155e-02 1.772799999999999931e-01 1.405615000000000059e+01 6.258185000000000286e+01 2.166019999999999982e+03
3.400000000000000244e-02 1.772274999999999823e-01 1.309250000000000114e+01 6.091349999999999909e+01 2.165630000000000109e+03
3.500000000000000333e-02 1.771790000000000032e-01 1.227984999999999971e+01 5.957359999999999900e+01 2.165264999999999873e+03
3.600000000000000422e-02 1.771444999999999825e-01 1.171274999999999977e+01 5.887530000000000285e+01 2.164994999999999891e+03
3.700000000000000511e-02 1.771300000000000097e-01 1.144340000000000046e+01 5.902044999999999675e+01 2.164875000000000000e+03
3.799999999999999906e-02 1.771404999999999785e-01 1.146775000000000055e+01 6.003690000000000282e+01 2.164934999999999945e+03
3.899999999999999994e-02 1.771739999999999982e-01 1.172670000000000101e+01 6.176685000000000514e+01 2.165170000000000073e+03
4.000000000000000083e-02 1.772259999999999946e-01 1.212075000000000102e+01 6.390440000000000254e+01 2.165545000000000073e+03
4.100000000000000172e-02 1.772859999999999991e-01 1.253134999999999977e+01 6.606600000000000250e+01 2.165989999999999782e+03
4.200000000000000261e-02 1.773450000000000026e-01 1.284379999999999988e+01 6.786969999999999459e+01 2.166425000000000182e+03
4.300000000000000350e-02 1.773925000000000085e-01 1.296480000000000032e+01 6.900440000000000396e+01 2.166784999999999854e+03
4.400000000000000439e-02 1.774200000000000221e-01 1.283375000000000021e+01 6.927315000000000111e+01 2.167000000000000000e+03
4.499999999999999833e-02 1.774224999999999830e-01 1.242474999999999952e+01 6.860695000000001187e+01 2.167024999999999636e+03
4.599999999999999922e-02 1.773980000000000001e-01 1.174289999999999878e+01 6.705134999999999934e+01 2.166855000000000018e+03
4.700000000000000011e-02 1.773480000000000056e-01 1.081597499999999989e+01 6.473529999999999518e+01 2.166489999999999782e+03
4.800000000000000100e-02 1.772750000000000159e-01 9.685249999999999915e+00 6.183299999999999841e+01 2.165954999999999927e+03
4.900000000000000189e-02 1.771844999999999948e-01 8.397664999999999935e+00 5.852965000000000373e+01 2.165279999999999745e+03
5.000000000000000278e-02 1.770800000000000152e-01 7.000724999999999199e+00 5.499765000000000015e+01 2.164505000000000109e+03
5.100000000000000366e-02 1.769669999999999854e-01 5.540569999999999773e+00 5.138604999999999734e+01 2.163664999999999964e+03
5.200000000000000455e-02 1.768510000000000082e-01 4.062045000000000350e+00 4.782049999999999557e+01 2.162795000000000073e+03
5.300000000000000544e-02 1.767345000000000166e-01 2.610214000000000034e+00 4.441069999999999851e+01 2.161920000000000073e+03
5.399999999999999939e-02 1.766220000000000012e-01 1.231780000000000097e+00 4.125990000000000180e+01 2.161074999999999818e+03
5.500000000000000028e-02 1.765169999999999795e-01 -2.436000000000015930e-02 3.847200000000000131e+01 2.160284999999999854e+03
5.600000000000000117e-02 1.764240000000000252e-01 -1.107899999999999885e+00 3.615474999999999994e+01 2.159579999999999927e+03
5.700000000000000205e-02 1.763465000000000171e-01 -1.969244400000000006e+00 3.441705000000000325e+01 2.158985000000000127e+03
5.800000000000000294e-02 1.762869999999999993e-01 -2.562609999999999832e+00 3.336220000000000141e+01 2.158524999999999636e+03
5.900000000000000383e-02 1.762504999999999766e-01 -2.849520000000000053e+00 3.307860000000000156e+01 2.158234999999999673e+03
6.000000000000000472e-02 1.762390000000000068e-01 -2.802059999999999995e+00 3.362969999999999970e+01 2.158130000000000109e+03
6.099999999999999867e-02 1.762549999999999950e-01 -2.405314999999999870e+00 3.504619999999999891e+01 2.158230000000000018e+03
6.199999999999999956e-02 1.762985000000000246e-01 -1.658674740000000147e+00 3.732155000000000200e+01 2.158534999999999854e+03
6.300000000000000044e-02 1.763704999999999856e-01 -5.759449999999999292e-01 4.041115000000000634e+01 2.159050000000000182e+03
6.400000000000000133e-02 1.764685000000000004e-01 8.157749999999999169e-01 4.423569999999999425e+01 2.159764999999999873e+03
6.500000000000000222e-02 1.765904999999999836e-01 2.478114999999999846e+00 4.868710000000000093e+01 2.160664999999999964e+03
6.600000000000000311e-02 1.767334999999999878e-01 4.364100999999999786e+00 5.363685000000000258e+01 2.161725000000000364e+03
6.700000000000000400e-02 1.768934999999999813e-01 6.421260000000000190e+00 5.894559999999999889e+01 2.162909999999999854e+03
6.800000000000000488e-02 1.770665000000000155e-01 8.594750000000001222e+00 6.447230000000000416e+01 2.164199999999999818e+03
6.900000000000000577e-02 1.772475000000000023e-01 1.083065500000000014e+01 7.008360000000000412e+01 2.165559999999999945e+03
7.000000000000000666e-02 1.774324999999999930e-01 1.307889499999999927e+01 7.566164999999999452e+01 2.166949999999999818e+03
7.100000000000000755e-02 1.776185000000000125e-01 1.529555000000000042e+01 8.111015000000000441e+01 2.168349999999999909e+03
7.200000000000000844e-02 1.778015000000000012e-01 1.744494999999999862e+01 8.635900000000000887e+01 2.169739999999999782e+03
7.300000000000000933e-02 1.779799999999999993e-01 1.950065000000000026e+01 9.136589999999999634e+01 2.171094999999999800e+03
7.399999999999999634e-02 1.781524999999999914e-01 2.144565000000000055e+01 9.611580000000000723e+01 2.172404999999999745e+03
7.499999999999999722e-02 1.783175000000000177e-01 2.327190000000000225e+01 1.006169000000000011e+02 2.173675000000000182e+03
7.599999999999999811e-02 1.784759999999999958e-01 2.497915000000000063e+01 1.048982000000000028e+02 2.174885000000000218e+03
7.699999999999999900e-02 1.786280000000000090e-01 2.657305000000000206e+01 1.089985000000000070e+02 2.176055000000000291e+03
7.799999999999999989e-02 1.787750000000000172e-01 2.806319999999999837e+01 1.129650000000000034e+02 2.177184999999999945e+03
7.900000000000000078e-02 1.789185000000000081e-01 2.946119999999999806e+01 1.168430000000000035e+02 2.178289999999999964e+03
8.000000000000000167e-02 1.790589999999999959e-01 3.077860000000000085e+01 1.206714999999999947e+02 2.179369999999999891e+03
8.100000000000000255e-02 1.791975000000000096e-01 3.202580000000000382e+01 1.244789999999999992e+02 2.180440000000000055e+03
8.200000000000000344e-02 1.793354999999999810e-01 3.321049999999999613e+01 1.282830000000000155e+02 2.181500000000000000e+03
8.300000000000000433e-02 1.794729999999999936e-01 3.433735000000000070e+01 1.320860000000000127e+02 2.182559999999999945e+03
8.400000000000000522e-02 1.796099999999999919e-01 3.540764999999999674e+01 1.358795000000000073e+02 2.183614999999999782e+03
8.500000000000000611e-02 1.797455000000000025e-01 3.641929999999999978e+01 1.396434999999999889e+02 2.184664999999999964e+03
8.600000000000000699e-02 1.798799999999999844e-01 3.736710000000000065e+01 1.433474999999999966e+02 2.185699999999999818e+03
8.700000000000000788e-02 1.800125000000000197e-01 3.824330000000000496e+01 1.469559999999999889e+02 2.186719999999999800e+03
8.800000000000000877e-02 1.801409999999999956e-01 3.903815000000000168e+01 1.504290000000000020e+02 2.187720000000000255e+03
8.899999999999999578e-02 1.802650000000000086e-01 3.974075000000000557e+01 1.537239999999999895e+02 2.188675000000000182e+03
8.999999999999999667e-02 1.803825000000000012e-01 4.033939999999999770e+01 1.568000000000000114e+02 2.189590000000000146e+03
9.099999999999999756e-02 1.804925000000000002e-01 4.082264999999999588e+01 1.596184999999999832e+02 2.190445000000000164e+03
9.199999999999999845e-02 1.805940000000000045e-01 4.117985000000000184e+01 1.621434999999999889e+02 2.191234999999999673e+03
9.299999999999999933e-02 1.806860000000000133e-01 4.140194999999999936e+01 1.643469999999999800e+02 2.191949999999999818e+03
9.400000000000000022e-02 1.807664999999999966e-01 4.148230000000000217e+01 1.662060000000000173e+02 2.192585000000000036e+03
9.500000000000000111e-02 1.808359999999999967e-01 4.141684999999999661e+01 1.677085000000000150e+02 2.193125000000000000e+03
9.600000000000000200e-02 1.808929999999999982e-01 4.120499999999999829e+01 1.688500000000000227e+02 2.193579999999999927e+03
9.700000000000000289e-02 1.809385000000000021e-01 4.084975000000000023e+01 1.696370000000000005e+02 2.193940000000000055e+03
9.800000000000000377e-02 1.809719999999999940e-01 4.035779999999999745e+01 1.700844999999999914e+02 2.194210000000000036e+03
9.900000000000000466e-02 1.809935000000000016e-01 3.973924999999999841e+01 1.702185000000000059e+02 2.194389999999999873e+03
1.000000000000000056e-01 1.810049999999999992e-01 3.900764999999999816e+01 1.700724999999999909e+02 2.194484999999999673e+03
1.010000000000000064e-01 1.810070000000000012e-01 3.817884999999999707e+01 1.696845000000000141e+02 2.194510000000000218e+03
1.020000000000000073e-01 1.809999999999999942e-01 3.727080000000000126e+01 1.690985000000000014e+02 2.194470000000000255e+03
1.030000000000000082e-01 1.809859999999999802e-01 3.630245000000000033e+01 1.683605000000000018e+02 2.194369999999999891e+03
1.040000000000000091e-01 1.809669999999999890e-01 3.529314999999999714e+01 1.675159999999999911e+02 2.194230000000000018e+03
1.050000000000000100e-01 1.809439999999999937e-01 3.426149999999999807e+01 1.666064999999999827e+02 2.194055000000000291e+03
1.059999999999999970e-01 1.809169999999999945e-01 3.322485000000000355e+01 1.656714999999999804e+02 2.193855000000000018e+03
1.069999999999999979e-01 1.808894999999999809e-01 3.219865000000000066e+01 1.647439999999999998e+02 2.193639999999999873e+03
1.079999999999999988e-01 1.808609999999999940e-01 3.119585000000000008e+01 1.638495000000000061e+02 2.193430000000000291e+03
1.089999999999999997e-01 1.808329999999999937e-01 3.022644999999999982e+01 1.630060000000000002e+02 2.193204999999999927e+03
1.100000000000000006e-01 1.808064999999999811e-01 2.929749999999999943e+01 1.622249999999999943e+02 2.193000000000000000e+03
1.110000000000000014e-01 1.807805000000000106e-01 2.841270000000000095e+01 1.615084999999999980e+02 2.192800000000000182e+03
1.120000000000000023e-01 1.807570000000000010e-01 2.757284999999999897e+01 1.608520000000000039e+02 2.192609999999999673e+03
1.130000000000000032e-01 1.807340000000000058e-01 2.677570000000000050e+01 1.602450000000000045e+02 2.192434999999999945e+03
1.140000000000000041e-01 1.807130000000000125e-01 2.601644999999999897e+01 1.596705000000000041e+02 2.192269999999999982e+03
1.150000000000000050e-01 1.806925000000000059e-01 2.528839999999999932e+01 1.591084999999999923e+02 2.192105000000000018e+03
1.160000000000000059e-01 1.806714999999999849e-01 2.458310000000000173e+01 1.585345000000000084e+02 2.191945000000000164e+03
1.170000000000000068e-01 1.806504999999999916e-01 2.389120000000000132e+01 1.579244999999999948e+02 2.191779999999999745e+03
1.180000000000000077e-01 1.806280000000000108e-01 2.320299999999999940e+01 1.572540000000000191e+02 2.191600000000000364e+03
1.190000000000000085e-01 1.806035000000000001e-01 2.250910000000000011e+01 1.565000000000000000e+02 2.191414999999999964e+03
1.200000000000000094e-01 1.805765000000000009e-01 2.180105000000000004e+01 1.556440000000000055e+02 2.191199999999999818e+03
1.209999999999999964e-01 1.805454999999999977e-01 2.107169999999999987e+01 1.546709999999999923e+02 2.190960000000000036e+03
1.219999999999999973e-01 1.805110000000000048e-01 2.031584999999999752e+01 1.535715000000000146e+02 2.190699999999999818e+03
1.229999999999999982e-01 1.804725000000000079e-01 1.953049999999999997e+01 1.523429999999999893e+02 2.190404999999999745e+03
1.239999999999999991e-01 1.804294999999999927e-01 1.871504999999999797e+01 1.509884999999999877e+02 2.190074999999999818e+03
1.250000000000000000e-01 1.803830000000000156e-01 1.787160000000000082e+01 1.495185000000000173e+02 2.189720000000000255e+03
1.260000000000000009e-01 1.803329999999999933e-01 1.700444999999999851e+01 1.479485000000000241e+02 2.189329999999999927e+03
1.270000000000000018e-01 1.802789999999999948e-01 1.612030000000000030e+01 1.463009999999999877e+02 2.188920000000000073e+03
1.280000000000000027e-01 1.802230000000000221e-01 1.522789999999999999e+01 1.446014999999999873e+02 2.188489999999999782e+03
1.290000000000000036e-01 1.801650000000000196e-01 1.433725000000000094e+01 1.428790000000000191e+02 2.188045000000000073e+03
1.300000000000000044e-01 1.801065000000000027e-01 1.345935000000000059e+01 1.411645000000000039e+02 2.187590000000000146e+03
1.310000000000000053e-01 1.800479999999999858e-01 1.260565000000000069e+01 1.394884999999999877e+02 2.187140000000000327e+03
1.320000000000000062e-01 1.799900000000000111e-01 1.178716499999999989e+01 1.378810000000000002e+02 2.186699999999999818e+03
1.330000000000000071e-01 1.799350000000000116e-01 1.101440000000000019e+01 1.363670000000000186e+02 2.186275000000000091e+03
1.340000000000000080e-01 1.798830000000000151e-01 1.029630500000000026e+01 1.349694999999999823e+02 2.185869999999999891e+03
1.350000000000000089e-01 1.798339999999999939e-01 9.640340000000000131e+00 1.337060000000000173e+02 2.185489999999999782e+03
1.360000000000000098e-01 1.797894999999999910e-01 9.051930000000000476e+00 1.325869999999999891e+02 2.185144999999999982e+03
1.370000000000000107e-01 1.797495000000000065e-01 8.534414999999999196e+00 1.316200000000000045e+02 2.184835000000000036e+03
1.380000000000000115e-01 1.797144999999999992e-01 8.089069999999999538e+00 1.308040000000000020e+02 2.184565000000000055e+03
1.390000000000000124e-01 1.796840000000000104e-01 7.714995000000000047e+00 1.301354999999999791e+02 2.184324999999999818e+03
1.400000000000000133e-01 1.796590000000000131e-01 7.409460000000000157e+00 1.296049999999999898e+02 2.184119999999999891e+03
1.410000000000000142e-01 1.796380000000000199e-01 7.168070000000000164e+00 1.291999999999999886e+02 2.183954999999999927e+03
1.420000000000000151e-01 1.796210000000000029e-01 6.985100000000000087e+00 1.289055000000000177e+02 2.183824999999999818e+03
1.430000000000000160e-01 1.796079999999999899e-01 6.853780000000000427e+00 1.287040000000000077e+02 2.183720000000000255e+03
1.440000000000000169e-01 1.795979999999999799e-01 6.766624999999999446e+00 1.285774999999999864e+02 2.183635000000000218e+03
1.450000000000000178e-01 1.795910000000000006e-01 6.715774999999999828e+00 1.285080000000000098e+02 2.183579999999999927e+03
1.459999999999999909e-01 1.795859999999999956e-01 6.693270000000000053e+00 1.284774999999999920e+02 2.183534999999999854e+03
1.469999999999999918e-01 1.795824999999999783e-01 6.691340000000000288e+00 1.284699999999999989e+02 2.183505000000000109e+03
1.479999999999999927e-01 1.795800000000000174e-01 6.702605000000000146e+00 1.284694999999999823e+02 2.183480000000000018e+03
1.489999999999999936e-01 1.795775000000000010e-01 6.720304999999999751e+00 1.284635000000000105e+02 2.183460000000000036e+03
1.499999999999999944e-01 1.795760000000000134e-01 6.738450000000000273e+00 1.284410000000000025e+02 2.183444999999999709e+03
1.509999999999999953e-01 1.795734999999999970e-01 6.751944999999999197e+00 1.283924999999999841e+02 2.183425000000000182e+03
1.519999999999999962e-01 1.795704999999999940e-01 6.756674999999999542e+00 1.283125000000000000e+02 2.183404999999999745e+03
1.529999999999999971e-01 1.795669999999999766e-01 6.749534999999999840e+00 1.281960000000000264e+02 2.183375000000000000e+03
1.539999999999999980e-01 1.795619999999999994e-01 6.728474999999999540e+00 1.280415000000000134e+02 2.183340000000000146e+03
1.549999999999999989e-01 1.795559999999999934e-01 6.692420000000000258e+00 1.278489999999999895e+02 2.183295000000000073e+03
1.559999999999999998e-01 1.795490000000000141e-01 6.641244999999999621e+00 1.276210000000000093e+02 2.183244999999999891e+03
1.570000000000000007e-01 1.795410000000000061e-01 6.575620000000000687e+00 1.273609999999999900e+02 2.183184999999999945e+03
1.580000000000000016e-01 1.795324999999999838e-01 6.496909999999999741e+00 1.270734999999999957e+02 2.183114999999999782e+03
1.590000000000000024e-01 1.795224999999999738e-01 6.406985000000000596e+00 1.267655000000000030e+02 2.183039999999999964e+03
