# t [s], A [cm^2], U [cm/s], P [cPa], c [cm/s]
1.000000000000000021e-03 1.680769999999999764e-01 2.776615499999999792e-01 9.990225000000000932e+01 2.244545000000000073e+03
2.000000000000000042e-03 1.680315000000000003e-01 1.765460500000000099e+00 9.642855000000000132e+01 2.244095000000000255e+03
3.000000000000000062e-03 1.679125000000000201e-01 3.641871999999999776e+00 9.149604999999999677e+01 2.242974999999999909e+03
4.000000000000000083e-03 1.677529999999999855e-01 5.780478999999999701e+00 8.611175000000000068e+01 2.241494999999999891e+03
5.000000000000000104e-03 1.675840000000000107e-01 8.093970000000000553e+00 8.130254999999999654e+01 2.239944999999999709e+03
6.000000000000000125e-03 1.674235000000000029e-01 1.036589000000000027e+01 7.735299999999999443e+01 2.238489999999999782e+03
7.000000000000000146e-03 1.672734999999999916e-01 1.235146500000000103e+01 7.391785000000000139e+01 2.237159999999999854e+03
8.000000000000000167e-03 1.671374999999999944e-01 1.399307999999999907e+01 7.080320000000000391e+01 2.235974999999999909e+03
9.000000000000001055e-03 1.670194999999999874e-01 1.534604999999999997e+01 6.814020000000000721e+01 2.234960000000000036e+03
1.000000000000000194e-02 1.669220000000000148e-01 1.644300000000000139e+01 6.600045000000000073e+01 2.234135000000000218e+03
1.099999999999999936e-02 1.668439999999999923e-01 1.730320000000000036e+01 6.434369999999999834e+01 2.233480000000000018e+03
1.200000000000000025e-02 1.667830000000000146e-01 1.793659999999999854e+01 6.307350000000000279e+01 2.232975000000000364e+03
1.300000000000000114e-02 1.667334999999999789e-01 1.833905000000000030e+01 6.202029999999999887e+01 2.232579999999999927e+03
1.400000000000000203e-02 1.666925000000000212e-01 1.854720000000000013e+01 6.107134999999999536e+01 2.232250000000000000e+03
1.499999999999999944e-02 1.666610000000000036e-01 1.869415000000000049e+01 6.039140000000000441e+01 2.232005000000000109e+03
1.600000000000000033e-02 1.666489999999999916e-01 1.897259999999999991e+01 6.042449999999999477e+01 2.231914999999999964e+03
1.700000000000000122e-02 1.666659999999999808e-01 1.952524999999999977e+01 6.160509999999999309e+01 2.232059999999999945e+03
1.800000000000000211e-02 1.667154999999999887e-01 2.035399999999999920e+01 6.401564999999999372e+01 2.232484999999999673e+03
1.900000000000000300e-02 1.667919999999999958e-01 2.131259999999999977e+01 6.725230000000000530e+01 2.233135000000000218e+03
2.000000000000000042e-02 1.668795000000000139e-01 2.217665000000000219e+01 7.056790000000000873e+01 2.233894999999999982e+03
2.100000000000000130e-02 1.669599999999999973e-01 2.274275000000000091e+01 7.318080000000000496e+01 2.234605000000000018e+03
2.200000000000000219e-02 1.670174999999999854e-01 2.290634999999999977e+01 7.457515000000000782e+01 2.235130000000000109e+03
2.299999999999999961e-02 1.670449999999999990e-01 2.268735000000000213e+01 7.466009999999999991e+01 2.235400000000000091e+03
2.400000000000000050e-02 1.670455000000000134e-01 2.220260000000000034e+01 7.373914999999999509e+01 2.235429999999999836e+03
2.500000000000000139e-02 1.670265000000000222e-01 2.160369999999999990e+01 7.232909999999999684e+01 2.235284999999999854e+03
2.600000000000000228e-02 1.669999999999999818e-01 2.101230000000000331e+01 7.092574999999999363e+01 2.235059999999999945e+03
2.700000000000000316e-02 1.669734999999999969e-01 2.047950000000000159e+01 6.981935000000000002e+01 2.234829999999999927e+03
2.800000000000000058e-02 1.669510000000000161e-01 1.998100000000000165e+01 6.902535000000000309e+01 2.234630000000000109e+03
2.900000000000000147e-02 1.669295000000000084e-01 1.944324999999999903e+01 6.833545000000000869e+01 2.234444999999999709e+03
3.000000000000000236e-02 1.669049999999999978e-01 1.878705000000000069e+01 6.745109999999999673e+01 2.234235000000000127e+03
3.099999999999999978e-02 1.668709999999999916e-01 1.797005000000000052e+01 6.613984999999999559e+01 2.233949999999999818e+03
3.200000000000000067e-02 1.668255000000000154e-01 1.701425000000000054e+01 6.435755000000000337e+01 2.233565000000000055e+03
3.300000000000000155e-02 1.667710000000000026e-01 1.600919999999999987e+01 6.229359999999999786e+01 2.233099999999999909e+03
3.400000000000000244e-02 1.667144999999999877e-01 1.508865000000000123e+01 6.032480000000000331e+01 2.232614999999999782e+03
3.500000000000000333e-02 1.666664999999999952e-01 1.439079999999999870e+01 5.889700000000000557e+01 2.232195000000000164e+03
3.600000000000000422e-02 1.666380000000000083e-01 1.401679999999999993e+01 5.837985000000000468e+01 2.231930000000000291e+03
3.700000000000000511e-02 1.666345000000000187e-01 1.400135000000000041e+01 5.894915000000000305e+01 2.231880000000000109e+03
3.799999999999999906e-02 1.666580000000000006e-01 1.430434999999999945e+01 6.053340000000000032e+01 2.232059999999999945e+03
3.899999999999999994e-02 1.667049999999999921e-01 1.482339999999999947e+01 6.283395000000000152e+01 2.232444999999999709e+03
4.000000000000000083e-02 1.667655000000000109e-01 1.541949999999999932e+01 6.540420000000000300e+01 2.232954999999999927e+03
4.100000000000000172e-02 1.668294999999999917e-01 1.594819999999999993e+01 6.775560000000000116e+01 2.233505000000000109e+03
4.200000000000000261e-02 1.668839999999999768e-01 1.628609999999999758e+01 6.945914999999999395e+01 2.233984999999999673e+03
4.300000000000000350e-02 1.669200000000000128e-01 1.634895000000000209e+01 7.021885000000000332e+01 2.234304999999999836e+03
4.400000000000000439e-02 1.669315000000000104e-01 1.609764999999999802e+01 6.990404999999999802e+01 2.234414999999999964e+03
4.499999999999999833e-02 1.669149999999999801e-01 1.553485000000000049e+01 6.854165000000000418e+01 2.234289999999999964e+03
4.599999999999999922e-02 1.668720000000000203e-01 1.469389999999999930e+01 6.627760000000000673e+01 2.233934999999999945e+03
4.700000000000000011e-02 1.668060000000000098e-01 1.362529999999999930e+01 6.332430000000000092e+01 2.233380000000000109e+03
4.800000000000000100e-02 1.667215000000000225e-01 1.238496500000000111e+01 5.990909999999999513e+01 2.232659999999999854e+03
4.900000000000000189e-02 1.666245000000000087e-01 1.102601499999999923e+01 5.623760000000000048e+01 2.231824999999999818e+03
5.000000000000000278e-02 1.665194999999999870e-01 9.595590000000001396e+00 5.247530000000000427e+01 2.230925000000000182e+03
5.100000000000000366e-02 1.664110000000000034e-01 8.135910000000000863e+00 4.874795000000000300e+01 2.229984999999999673e+03
5.200000000000000455e-02 1.663025000000000198e-01 6.686890000000000001e+00 4.515359999999999729e+01 2.229045000000000073e+03
5.300000000000000544e-02 1.661974999999999980e-01 5.290084999999999482e+00 4.177965000000000373e+01 2.228130000000000109e+03
5.399999999999999939e-02 1.660975000000000090e-01 3.990744499999999917e+00 3.871770000000000067e+01 2.227260000000000218e+03
5.500000000000000028e-02 1.660070000000000157e-01 2.838186099999999712e+00 3.607139999999999702e+01 2.226474999999999909e+03
5.600000000000000117e-02 1.659299999999999942e-01 1.883884999999999810e+00 3.395595000000000141e+01 2.225789999999999964e+03
5.700000000000000205e-02 1.658685000000000020e-01 1.177786999999999917e+00 3.249020000000000152e+01 2.225244999999999891e+03
5.800000000000000294e-02 1.658260000000000012e-01 7.637709999999999777e-01 3.178350000000000009e+01 2.224864999999999782e+03
5.900000000000000383e-02 1.658069999999999822e-01 6.752369999999999761e-01 3.192134999999999678e+01 2.224680000000000291e+03
6.000000000000000472e-02 1.658125000000000016e-01 9.316180000000000572e-01 3.295374999999999943e+01 2.224699999999999818e+03
6.099999999999999867e-02 1.658445000000000058e-01 1.536469499999999933e+00 3.488689999999999714e+01 2.224949999999999818e+03
6.199999999999999956e-02 1.659015000000000073e-01 2.477187999999999946e+00 3.768205000000000382e+01 2.225420000000000073e+03
6.300000000000000044e-02 1.659839999999999927e-01 3.726275000000000226e+00 4.125789999999999935e+01 2.226114999999999782e+03
6.400000000000000133e-02 1.660885000000000000e-01 5.243749999999999467e+00 4.549885000000000446e+01 2.226994999999999891e+03
6.500000000000000222e-02 1.662115000000000120e-01 6.980294999999999916e+00 5.026465000000000316e+01 2.228045000000000073e+03
6.600000000000000311e-02 1.663509999999999989e-01 8.880940000000000722e+00 5.540200000000000102e+01 2.229234999999999673e+03
6.700000000000000400e-02 1.665004999999999957e-01 1.088860999999999990e+01 6.075594999999999857e+01 2.230529999999999745e+03
6.800000000000000488e-02 1.666575000000000140e-01 1.294793999999999912e+01 6.618075000000000330e+01 2.231885000000000218e+03
6.900000000000000577e-02 1.668169999999999931e-01 1.500835000000000008e+01 7.154914999999999736e+01 2.233269999999999982e+03
7.000000000000000666e-02 1.669764999999999999e-01 1.702714999999999890e+01 7.676019999999999754e+01 2.234659999999999854e+03
7.100000000000000755e-02 1.671314999999999884e-01 1.897124999999999773e+01 8.174375000000000568e+01 2.236019999999999982e+03
7.200000000000000844e-02 1.672819999999999863e-01 2.081824999999999903e+01 8.646254999999999313e+01 2.237335000000000036e+03
7.300000000000000933e-02 1.674255000000000049e-01 2.255659999999999954e+01 9.091094999999999970e+01 2.238605000000000018e+03
7.399999999999999634e-02 1.675630000000000175e-01 2.418444999999999823e+01 9.511015000000000441e+01 2.239815000000000055e+03
7.499999999999999722e-02 1.676940000000000097e-01 2.570765000000000100e+01 9.910124999999999318e+01 2.240974999999999909e+03
7.599999999999999811e-02 1.678204999999999836e-01 2.713750000000000284e+01 1.029372500000000059e+02 2.242095000000000255e+03
7.699999999999999900e-02 1.679424999999999946e-01 2.848839999999999861e+01 1.066740000000000066e+02 2.243180000000000291e+03
7.799999999999999989e-02 1.680619999999999892e-01 2.977505000000000024e+01 1.103629999999999995e+02 2.244239999999999782e+03
7.900000000000000078e-02 1.681809999999999972e-01 3.101069999999999993e+01 1.140455000000000041e+02 2.245289999999999964e+03
8.000000000000000167e-02 1.682990000000000042e-01 3.220575000000000188e+01 1.177469999999999999e+02 2.246340000000000146e+03
8.100000000000000255e-02 1.684174999999999978e-01 3.336684999999999945e+01 1.214784999999999968e+02 2.247390000000000327e+03
8.200000000000000344e-02 1.685359999999999914e-01 3.449649999999999750e+01 1.252360000000000042e+02 2.248444999999999709e+03
8.300000000000000433e-02 1.686555000000000137e-01 3.559319999999999595e+01 1.290010000000000048e+02 2.249505000000000109e+03
8.400000000000000522e-02 1.687740000000000073e-01 3.665184999999999604e+01 1.327434999999999832e+02 2.250559999999999945e+03
8.500000000000000611e-02 1.688919999999999866e-01 3.766410000000000480e+01 1.364265000000000043e+02 2.251599999999999909e+03
8.600000000000000699e-02 1.690075000000000049e-01 3.861924999999999386e+01 1.400074999999999932e+02 2.252630000000000109e+03
8.700000000000000788e-02 1.691190000000000193e-01 3.950495000000000090e+01 1.434395000000000095e+02 2.253630000000000109e+03
8.800000000000000877e-02 1.692265000000000019e-01 4.030760000000000076e+01 1.466769999999999925e+02 2.254579999999999927e+03
8.899999999999999578e-02 1.693270000000000053e-01 4.101355000000000217e+01 1.496759999999999877e+02 2.255485000000000127e+03
8.999999999999999667e-02 1.694209999999999883e-01 4.160949999999999704e+01 1.523954999999999984e+02 2.256324999999999818e+03
9.099999999999999756e-02 1.695059999999999900e-01 4.208365000000000578e+01 1.547990000000000066e+02 2.257090000000000146e+03
9.199999999999999845e-02 1.695814999999999961e-01 4.242619999999999436e+01 1.568584999999999923e+02 2.257765000000000327e+03
9.299999999999999933e-02 1.696469999999999922e-01 4.263034999999999997e+01 1.585545000000000186e+02 2.258360000000000127e+03
9.400000000000000022e-02 1.697009999999999907e-01 4.269275000000000375e+01 1.598774999999999977e+02 2.258850000000000364e+03
9.500000000000000111e-02 1.697444999999999926e-01 4.261395000000000266e+01 1.608299999999999841e+02 2.259250000000000000e+03
9.600000000000000200e-02 1.697770000000000112e-01 4.239884999999999593e+01 1.614239999999999782e+02 2.259550000000000182e+03
9.700000000000000289e-02 1.697985000000000189e-01 4.205615000000000236e+01 1.616845000000000141e+02 2.259755000000000109e+03
9.800000000000000377e-02 1.698105000000000031e-01 4.159834999999999638e+01 1.616449999999999818e+02 2.259864999999999782e+03
9.900000000000000466e-02 1.698129999999999917e-01 4.104080000000000439e+01 1.613464999999999918e+02 2.259904999999999745e+03
1.000000000000000056e-01 1.698085000000000011e-01 4.040109999999999957e+01 1.608360000000000127e+02 2.259875000000000000e+03
1.010000000000000064e-01 1.697970000000000035e-01 3.969809999999999661e+01 1.601620000000000061e+02 2.259774999999999636e+03
1.020000000000000073e-01 1.697805000000000009e-01 3.895085000000000264e+01 1.593729999999999905e+02 2.259640000000000327e+03
1.030000000000000082e-01 1.697605000000000086e-01 3.817790000000000106e+01 1.585149999999999864e+02 2.259465000000000146e+03
1.040000000000000091e-01 1.697380000000000000e-01 3.739634999999999820e+01 1.576290000000000191e+02 2.259269999999999982e+03
1.050000000000000100e-01 1.697140000000000037e-01 3.662130000000000507e+01 1.567500000000000000e+02 2.259059999999999945e+03
1.059999999999999970e-01 1.696900000000000075e-01 3.586509999999999820e+01 1.559050000000000011e+02 2.258845000000000255e+03
1.069999999999999979e-01 1.696660000000000112e-01 3.513719999999999999e+01 1.551134999999999877e+02 2.258635000000000218e+03
1.079999999999999988e-01 1.696439999999999892e-01 3.444360000000000355e+01 1.543845000000000027e+02 2.258435000000000400e+03
1.089999999999999997e-01 1.696225000000000094e-01 3.378714999999999691e+01 1.537214999999999918e+02 2.258244999999999891e+03
1.100000000000000006e-01 1.696030000000000038e-01 3.316720000000000113e+01 1.531175000000000068e+02 2.258065000000000055e+03
1.110000000000000014e-01 1.695840000000000125e-01 3.258010000000000161e+01 1.525575000000000045e+02 2.257899999999999636e+03
1.120000000000000023e-01 1.695670000000000233e-01 3.201954999999999529e+01 1.520225000000000080e+02 2.257739999999999782e+03
1.130000000000000032e-01 1.695494999999999919e-01 3.147695000000000221e+01 1.514879999999999995e+02 2.257579999999999927e+03
1.140000000000000041e-01 1.695320000000000160e-01 3.094225000000000136e+01 1.509244999999999948e+02 2.257420000000000073e+03
1.150000000000000050e-01 1.695130000000000248e-01 3.040455000000000041e+01 1.503034999999999854e+02 2.257255000000000109e+03
1.160000000000000059e-01 1.694924999999999904e-01 2.985294999999999987e+01 1.495964999999999918e+02 2.257069999999999709e+03
1.170000000000000068e-01 1.694689999999999808e-01 2.927704999999999913e+01 1.487780000000000200e+02 2.256859999999999673e+03
1.180000000000000077e-01 1.694424999999999959e-01 2.866809999999999903e+01 1.478259999999999934e+02 2.256630000000000109e+03
1.190000000000000085e-01 1.694120000000000070e-01 2.801914999999999978e+01 1.467264999999999873e+02 2.256354999999999563e+03
1.200000000000000094e-01 1.693769999999999998e-01 2.732610000000000028e+01 1.454719999999999800e+02 2.256050000000000182e+03
1.209999999999999964e-01 1.693375000000000019e-01 2.658735000000000070e+01 1.440620000000000118e+02 2.255699999999999818e+03
1.219999999999999973e-01 1.692940000000000000e-01 2.580474999999999852e+01 1.425060000000000002e+02 2.255315000000000055e+03
1.229999999999999982e-01 1.692460000000000075e-01 2.498294999999999888e+01 1.408215000000000146e+02 2.254894999999999982e+03
1.239999999999999991e-01 1.691950000000000121e-01 2.412959999999999994e+01 1.390314999999999941e+02 2.254439999999999600e+03
1.250000000000000000e-01 1.691404999999999992e-01 2.325479999999999947e+01 1.371674999999999898e+02 2.253960000000000036e+03
1.260000000000000009e-01 1.690834999999999977e-01 2.237069999999999936e+01 1.352644999999999982e+02 2.253460000000000036e+03
1.270000000000000018e-01 1.690264999999999962e-01 2.149060000000000059e+01 1.333609999999999900e+02 2.252954999999999927e+03
1.280000000000000027e-01 1.689685000000000215e-01 2.062849999999999895e+01 1.314945000000000164e+02 2.252444999999999709e+03
1.290000000000000036e-01 1.689125000000000210e-01 1.979829999999999757e+01 1.297034999999999911e+02 2.251945000000000164e+03
1.300000000000000044e-01 1.688580000000000081e-01 1.901274999999999693e+01 1.280210000000000150e+02 2.251465000000000146e+03
1.310000000000000053e-01 1.688069999999999848e-01 1.828320000000000078e+01 1.264765000000000157e+02 2.251010000000000218e+03
1.320000000000000062e-01 1.687599999999999933e-01 1.761909999999999954e+01 1.250925000000000011e+02 2.250590000000000146e+03
1.330000000000000071e-01 1.687175000000000202e-01 1.702725000000000222e+01 1.238849999999999909e+02 2.250210000000000036e+03
1.340000000000000080e-01 1.686799999999999966e-01 1.651215000000000188e+01 1.228624999999999972e+02 2.249875000000000000e+03
1.350000000000000089e-01 1.686475000000000057e-01 1.607540000000000191e+01 1.220264999999999986e+02 2.249585000000000036e+03
1.360000000000000098e-01 1.686214999999999797e-01 1.571634999999999849e+01 1.213725000000000023e+02 2.249345000000000255e+03
1.370000000000000107e-01 1.685995000000000132e-01 1.543209999999999837e+01 1.208905000000000030e+02 2.249144999999999982e+03
1.380000000000000115e-01 1.685834999999999972e-01 1.521774999999999878e+01 1.205655000000000001e+02 2.248989999999999782e+03
1.390000000000000124e-01 1.685714999999999852e-01 1.506680000000000064e+01 1.203795000000000073e+02 2.248880000000000109e+03
1.400000000000000133e-01 1.685634999999999772e-01 1.497180000000000177e+01 1.203135000000000048e+02 2.248804999999999836e+03
1.410000000000000142e-01 1.685595000000000010e-01 1.492439999999999856e+01 1.203455000000000013e+02 2.248765000000000327e+03
1.420000000000000151e-01 1.685585000000000000e-01 1.491594999999999871e+01 1.204540000000000077e+02 2.248750000000000000e+03
1.430000000000000160e-01 1.685595000000000010e-01 1.493764999999999965e+01 1.206189999999999998e+02 2.248760000000000218e+03
1.440000000000000169e-01 1.685625000000000040e-01 1.498099999999999987e+01 1.208209999999999980e+02 2.248779999999999745e+03
1.450000000000000178e-01 1.685669999999999946e-01 1.503814999999999991e+01 1.210430000000000064e+02 2.248814999999999600e+03
1.459999999999999909e-01 1.685719999999999996e-01 1.510185000000000066e+01 1.212685000000000031e+02 2.248855000000000018e+03
1.469999999999999918e-01 1.685774999999999912e-01 1.516594999999999871e+01 1.214859999999999900e+02 2.248904999999999745e+03
1.479999999999999927e-01 1.685829999999999829e-01 1.522524999999999906e+01 1.216854999999999905e+02 2.248949999999999818e+03
1.489999999999999936e-01 1.685880000000000156e-01 1.527599999999999980e+01 1.218605000000000018e+02 2.248994999999999891e+03
1.499999999999999944e-01 1.685929999999999929e-01 1.531565000000000154e+01 1.220070000000000050e+02 2.249039999999999964e+03
1.509999999999999953e-01 1.685964999999999825e-01 1.534280000000000044e+01 1.221239999999999952e+02 2.249074999999999818e+03
1.519999999999999962e-01 1.685995000000000132e-01 1.535754999999999981e+01 1.222150000000000034e+02 2.249105000000000018e+03
1.529999999999999971e-01 1.686024999999999885e-01 1.536080000000000112e+01 1.222835000000000036e+02 2.249125000000000000e+03
1.539999999999999980e-01 1.686044999999999905e-01 1.535444999999999993e+01 1.223365000000000009e+02 2.249150000000000091e+03
1.549999999999999989e-01 1.686064999999999925e-01 1.534100000000000108e+01 1.223815000000000026e+02 2.249164999999999964e+03
1.559999999999999998e-01 1.686080000000000079e-01 1.532339999999999947e+01 1.224265000000000043e+02 2.249180000000000291e+03
1.570000000000000007e-01 1.686100000000000099e-01 1.530459999999999887e+01 1.224800000000000040e+02 2.249199999999999818e+03
1.580000000000000016e-01 1.686120000000000119e-01 1.528744999999999976e+01 1.225490000000000066e+02 2.249215000000000146e+03
1.590000000000000024e-01 1.686145000000000005e-01 1.527439999999999998e+01 1.226384999999999934e+02 2.249234999999999673e+03
