# t [s], A [cm^2], U [cm/s], P [cPa], c [cm/s]
1.000000000000000021e-03 6.643594999999999917e-01 5.346749999999997338e-03 1.009579999999999984e+02 1.629630000000000109e+03
2.000000000000000042e-03 6.643479999999999386e-01 -3.026995000000000206e-03 1.009314999999999998e+02 1.629625000000000000e+03
3.000000000000000062e-03 6.643949999999999578e-01 7.368125000000000369e-02 1.010150000000000006e+02 1.629644999999999982e+03
4.000000000000000083e-03 6.644484999999999975e-01 1.695263999999999938e-01 1.011380000000000052e+02 1.629674999999999955e+03
5.000000000000000104e-03 6.644354999999999567e-01 1.665010000000000101e-01 1.011200000000000045e+02 1.629670000000000073e+03
6.000000000000000125e-03 6.643755000000000077e-01 8.273549999999998961e-02 1.009424999999999955e+02 1.629634999999999991e+03
7.000000000000000146e-03 6.643235000000000667e-01 6.179999999999963300e-03 1.007120000000000033e+02 1.629585000000000036e+03
8.000000000000000167e-03 6.642554999999999987e-01 -1.058945000000000580e-01 1.003960000000000008e+02 1.629519999999999982e+03
9.000000000000001055e-03 6.641360000000000596e-01 -3.194649999999999990e-01 9.990510000000000446e+01 1.629420000000000073e+03
1.000000000000000194e-02 6.639585000000000070e-01 -6.467050000000000853e-01 9.919145000000000323e+01 1.629269999999999982e+03
1.099999999999999936e-02 6.637085000000000345e-01 -1.103819999999999801e+00 9.819955000000000211e+01 1.629054999999999836e+03
1.200000000000000025e-02 6.633715000000000028e-01 -1.703705000000000025e+00 9.687295000000000300e+01 1.628769999999999982e+03
1.300000000000000114e-02 6.629639999999999977e-01 -2.399049999999999905e+00 9.522890000000001010e+01 1.628409999999999854e+03
1.400000000000000203e-02 6.625389999999999890e-01 -3.074079999999999924e+00 9.339314999999999145e+01 1.627990000000000009e+03
1.499999999999999944e-02 6.621540000000000203e-01 -3.597355500000000372e+00 9.154604999999999393e+01 1.627559999999999945e+03
1.600000000000000033e-02 6.618420000000000414e-01 -3.880815000000000126e+00 8.984035000000000082e+01 1.627140000000000100e+03
1.700000000000000122e-02 6.616020000000000234e-01 -3.904819499999999888e+00 8.834890000000000043e+01 1.626750000000000000e+03
1.800000000000000211e-02 6.614069999999999672e-01 -3.708532500000000010e+00 8.705684999999999718e+01 1.626394999999999982e+03
1.900000000000000300e-02 6.612190000000000012e-01 -3.362445000000000128e+00 8.588704999999998790e+01 1.626059999999999945e+03
2.000000000000000042e-02 6.610039999999999250e-01 -2.938305999999999862e+00 8.474009999999999820e+01 1.625720000000000027e+03
2.100000000000000130e-02 6.607454999999999856e-01 -2.485915499999999945e+00 8.353249999999999886e+01 1.625380000000000109e+03
2.200000000000000219e-02 6.604419999999999735e-01 -2.022174999999999834e+00 8.222319999999999141e+01 1.625009999999999991e+03
2.299999999999999961e-02 6.601090000000000568e-01 -1.534389999999999921e+00 8.081974999999999909e+01 1.624625000000000000e+03
2.400000000000000050e-02 6.597669999999999924e-01 -9.951849999999999863e-01 7.936539999999999395e+01 1.624230000000000018e+03
2.500000000000000139e-02 6.594349999999999934e-01 -3.819599999999998552e-01 7.791320000000000334e+01 1.623824999999999818e+03
2.600000000000000228e-02 6.591175000000000228e-01 3.072950000000003179e-01 7.650034999999999741e+01 1.623430000000000064e+03
2.700000000000000316e-02 6.588095000000000478e-01 1.046804999999999986e+00 7.512969999999999970e+01 1.623045000000000073e+03
2.800000000000000058e-02 6.584924999999999251e-01 1.785405000000000131e+00 7.376500000000000057e+01 1.622654999999999973e+03
2.900000000000000147e-02 6.581420000000000048e-01 2.456534999999999691e+00 7.233879999999999200e+01 1.622259999999999991e+03
3.000000000000000236e-02 6.577349999999999586e-01 2.992630000000000123e+00 7.076919999999999789e+01 1.621835000000000036e+03
3.099999999999999978e-02 6.572540000000000049e-01 3.340330000000000243e+00 6.898245000000000005e+01 1.621364999999999782e+03
3.200000000000000067e-02 6.566959999999999464e-01 3.472605000000000608e+00 6.693449999999999989e+01 1.620844999999999800e+03
3.300000000000000155e-02 6.560705000000000009e-01 3.394810000000000549e+00 6.462575000000001069e+01 1.620269999999999982e+03
3.400000000000000244e-02 6.554005000000000525e-01 3.142469999999999875e+00 6.210550000000000637e+01 1.619644999999999982e+03
3.500000000000000333e-02 6.547174999999999523e-01 2.772815000000000474e+00 5.946470000000000056e+01 1.618994999999999891e+03
3.600000000000000422e-02 6.540550000000000530e-01 2.352404999999999635e+00 5.682030000000000314e+01 1.618340000000000146e+03
3.700000000000000511e-02 6.534444999999999837e-01 1.945199999999999818e+00 5.429664999999999964e+01 1.617700000000000045e+03
3.799999999999999906e-02 6.529089999999999616e-01 1.604240000000000332e+00 5.200889999999999702e+01 1.617109999999999900e+03
3.899999999999999994e-02 6.524650000000000727e-01 1.367319999999999869e+00 5.005110000000000525e+01 1.616585000000000036e+03
4.000000000000000083e-02 6.521224999999999383e-01 1.257124999999999826e+00 4.849025000000000318e+01 1.616150000000000091e+03
4.100000000000000172e-02 6.518844999999999779e-01 1.284129999999999772e+00 4.736660000000000537e+01 1.615819999999999936e+03
4.200000000000000261e-02 6.517494999999999816e-01 1.451084499999999888e+00 4.669750000000000512e+01 1.615595000000000027e+03
4.300000000000000350e-02 6.517155000000000031e-01 1.757645500000000194e+00 4.648369999999999891e+01 1.615474999999999909e+03
4.400000000000000439e-02 6.517800000000000260e-01 2.204039999999999999e+00 4.671659999999999968e+01 1.615470000000000027e+03
4.499999999999999833e-02 6.519409999999999927e-01 2.792915000000000258e+00 4.738394999999999868e+01 1.615579999999999927e+03
4.599999999999999922e-02 6.521969999999999157e-01 3.529297499999999754e+00 4.847274999999999778e+01 1.615789999999999964e+03
4.700000000000000011e-02 6.525474999999999470e-01 4.418847000000000413e+00 4.997044999999999959e+01 1.616105000000000018e+03
4.800000000000000100e-02 6.529905000000000292e-01 5.465263499999999830e+00 5.186270000000000380e+01 1.616525000000000091e+03
4.900000000000000189e-02 6.535210000000000186e-01 6.667681999999999221e+00 5.413119999999999266e+01 1.617039999999999964e+03
5.000000000000000278e-02 6.541335000000000344e-01 8.018584999999999852e+00 5.675084999999999980e+01 1.617644999999999982e+03
5.100000000000000366e-02 6.548175000000000523e-01 9.503355000000000885e+00 5.968755000000000166e+01 1.618339999999999918e+03
5.200000000000000455e-02 6.555625000000000480e-01 1.110028499999999951e+01 6.289844999999999686e+01 1.619105000000000018e+03
5.300000000000000544e-02 6.563550000000000217e-01 1.278248500000000121e+01 6.633249999999999602e+01 1.619934999999999945e+03
5.399999999999999939e-02 6.571795000000000275e-01 1.451972499999999933e+01 6.993344999999999345e+01 1.620815000000000055e+03
5.500000000000000028e-02 6.580235000000000944e-01 1.628111499999999978e+01 7.364305000000000234e+01 1.621735000000000127e+03
5.600000000000000117e-02 6.588730000000000420e-01 1.803703000000000145e+01 7.740460000000000207e+01 1.622675000000000182e+03
5.700000000000000205e-02 6.597180000000000266e-01 1.976129999999999853e+01 8.116649999999999920e+01 1.623625000000000000e+03
5.800000000000000294e-02 6.605490000000000528e-01 2.143220000000000169e+01 8.488485000000000014e+01 1.624574999999999818e+03
5.900000000000000383e-02 6.613605000000000178e-01 2.303309999999999746e+01 8.852494999999998981e+01 1.625519999999999982e+03
6.000000000000000472e-02 6.621475000000000000e-01 2.455239999999999867e+01 9.206244999999999834e+01 1.626440000000000055e+03
6.099999999999999867e-02 6.629104999999999581e-01 2.598310000000000031e+01 9.548290000000000077e+01 1.627344999999999800e+03
6.199999999999999956e-02 6.636474999999999458e-01 2.732225000000000037e+01 9.878045000000000186e+01 1.628220000000000027e+03
6.300000000000000044e-02 6.643609999999999793e-01 2.856995000000000218e+01 1.019579999999999984e+02 1.629070000000000164e+03
6.400000000000000133e-02 6.650525000000000464e-01 2.972840000000000060e+01 1.050214500000000015e+02 1.629894999999999982e+03
6.500000000000000222e-02 6.657260000000000399e-01 3.080134999999999934e+01 1.079832999999999998e+02 1.630699999999999818e+03
6.600000000000000311e-02 6.663835000000000175e-01 3.179335000000000022e+01 1.108559999999999945e+02 1.631474999999999909e+03
6.700000000000000400e-02 6.670274999999999954e-01 3.270864999999999867e+01 1.136520000000000010e+02 1.632235000000000127e+03
6.800000000000000488e-02 6.676600000000000312e-01 3.355120000000000147e+01 1.163829999999999956e+02 1.632974999999999909e+03
6.900000000000000577e-02 6.682825000000000015e-01 3.432370000000000232e+01 1.190564999999999998e+02 1.633704999999999927e+03
7.000000000000000666e-02 6.688944999999999474e-01 3.502774999999999750e+01 1.216775000000000091e+02 1.634420000000000073e+03
7.100000000000000755e-02 6.694955000000000211e-01 3.566344999999999743e+01 1.242450000000000045e+02 1.635119999999999891e+03
7.200000000000000844e-02 6.700840000000000130e-01 3.622925000000000040e+01 1.267540000000000049e+02 1.635804999999999836e+03
7.300000000000000933e-02 6.706570000000000586e-01 3.672265000000000157e+01 1.291955000000000098e+02 1.636474999999999909e+03
7.399999999999999634e-02 6.712099999999999733e-01 3.714029999999999632e+01 1.315579999999999927e+02 1.637125000000000000e+03
7.499999999999999722e-02 6.717409999999999215e-01 3.747830000000000439e+01 1.338255000000000052e+02 1.637750000000000000e+03
7.599999999999999811e-02 6.722449999999999815e-01 3.773279999999999745e+01 1.359819999999999993e+02 1.638349999999999909e+03
7.699999999999999900e-02 6.727190000000000669e-01 3.790055000000000263e+01 1.380115000000000123e+02 1.638914999999999964e+03
7.799999999999999989e-02 6.731590000000000629e-01 3.797889999999999588e+01 1.398990000000000009e+02 1.639445000000000164e+03
7.900000000000000078e-02 6.735634999999999817e-01 3.796634999999999849e+01 1.416315000000000168e+02 1.639940000000000055e+03
8.000000000000000167e-02 6.739290000000000003e-01 3.786244999999999550e+01 1.431970000000000027e+02 1.640394999999999982e+03
8.100000000000000255e-02 6.742555000000000076e-01 3.766790000000000305e+01 1.445889999999999986e+02 1.640799999999999955e+03
8.200000000000000344e-02 6.745404999999999873e-01 3.738469999999999516e+01 1.458015000000000043e+02 1.641159999999999854e+03
8.300000000000000433e-02 6.747845000000000093e-01 3.701595000000000368e+01 1.468340000000000032e+02 1.641474999999999909e+03
8.400000000000000522e-02 6.749879999999999214e-01 3.656604999999999706e+01 1.476875000000000000e+02 1.641744999999999891e+03
8.500000000000000611e-02 6.751530000000000031e-01 3.604034999999999656e+01 1.483665000000000020e+02 1.641965000000000146e+03
8.600000000000000699e-02 6.752799999999999914e-01 3.544539999999999935e+01 1.488785000000000025e+02 1.642144999999999982e+03
8.700000000000000788e-02 6.753724999999999312e-01 3.478880000000000194e+01 1.492344999999999970e+02 1.642275000000000091e+03
8.800000000000000877e-02 6.754324999999999912e-01 3.407889999999999731e+01 1.494459999999999980e+02 1.642375000000000000e+03
8.899999999999999578e-02 6.754649999999999821e-01 3.332505000000000450e+01 1.495285000000000082e+02 1.642434999999999945e+03
8.999999999999999667e-02 6.754720000000000724e-01 3.253714999999999691e+01 1.494975000000000023e+02 1.642460000000000036e+03
9.099999999999999756e-02 6.754584999999999617e-01 3.172529999999999717e+01 1.493714999999999975e+02 1.642460000000000036e+03
9.199999999999999845e-02 6.754280000000000284e-01 3.089959999999999951e+01 1.491680000000000064e+02 1.642429999999999836e+03
9.299999999999999933e-02 6.753849999999999021e-01 3.006994999999999862e+01 1.489055000000000177e+02 1.642384999999999991e+03
9.400000000000000022e-02 6.753325000000000022e-01 2.924524999999999864e+01 1.486000000000000227e+02 1.642325000000000045e+03
9.500000000000000111e-02 6.752744999999999997e-01 2.843359999999999843e+01 1.482680000000000007e+02 1.642250000000000000e+03
9.600000000000000200e-02 6.752139999999999809e-01 2.764139999999999731e+01 1.479230000000000018e+02 1.642175000000000182e+03
9.700000000000000289e-02 6.751519999999999744e-01 2.687375000000000114e+01 1.475765000000000100e+02 1.642090000000000146e+03
9.800000000000000377e-02 6.750914999999999555e-01 2.613374999999999915e+01 1.472355000000000018e+02 1.642005000000000109e+03
9.900000000000000466e-02 6.750315000000000065e-01 2.542285000000000039e+01 1.469060000000000059e+02 1.641920000000000073e+03
1.000000000000000056e-01 6.749735000000000040e-01 2.474065000000000225e+01 1.465894999999999868e+02 1.641835000000000036e+03
1.010000000000000064e-01 6.749160000000000714e-01 2.408534999999999826e+01 1.462849999999999966e+02 1.641755000000000109e+03
1.020000000000000073e-01 6.748579999999999579e-01 2.345380000000000109e+01 1.459884999999999877e+02 1.641670000000000073e+03
1.030000000000000082e-01 6.747989999999999267e-01 2.284169999999999945e+01 1.456949999999999932e+02 1.641590000000000146e+03
1.040000000000000091e-01 6.747360000000000024e-01 2.224419999999999931e+01 1.453969999999999914e+02 1.641509999999999991e+03
1.050000000000000100e-01 6.746685000000000043e-01 2.165579999999999927e+01 1.450874999999999773e+02 1.641425000000000182e+03
1.059999999999999970e-01 6.745934999999999571e-01 2.107114999999999938e+01 1.447565000000000168e+02 1.641335000000000036e+03
1.069999999999999979e-01 6.745095000000000951e-01 2.048485000000000156e+01 1.443975000000000080e+02 1.641235000000000127e+03
1.079999999999999988e-01 6.744164999999999743e-01 1.989195000000000135e+01 1.440014999999999930e+02 1.641135000000000218e+03
1.089999999999999997e-01 6.743109999999999937e-01 1.928810000000000002e+01 1.435629999999999882e+02 1.641014999999999873e+03
1.100000000000000006e-01 6.741935000000000011e-01 1.866985000000000028e+01 1.430774999999999864e+02 1.640894999999999982e+03
1.110000000000000014e-01 6.740635000000000376e-01 1.803464999999999918e+01 1.425414999999999850e+02 1.640755000000000109e+03
1.120000000000000023e-01 6.739219999999999100e-01 1.738114999999999810e+01 1.419540000000000077e+02 1.640605000000000018e+03
1.130000000000000032e-01 6.737680000000000335e-01 1.670895000000000152e+01 1.413165000000000191e+02 1.640450000000000045e+03
1.140000000000000041e-01 6.736029999999999518e-01 1.601909999999999812e+01 1.406320000000000050e+02 1.640275000000000091e+03
1.150000000000000050e-01 6.734295000000000142e-01 1.531380000000000052e+01 1.399060000000000059e+02 1.640090000000000146e+03
1.160000000000000059e-01 6.732485000000000275e-01 1.459610499999999966e+01 1.391460000000000150e+02 1.639900000000000091e+03
1.170000000000000068e-01 6.730629999999999669e-01 1.387046499999999938e+01 1.383600000000000136e+02 1.639694999999999936e+03
1.180000000000000077e-01 6.728750000000000009e-01 1.314195500000000116e+01 1.375600000000000023e+02 1.639490000000000009e+03
1.190000000000000085e-01 6.726879999999999526e-01 1.241637000000000057e+01 1.367565000000000168e+02 1.639284999999999854e+03
1.200000000000000094e-01 6.725039999999999907e-01 1.170006000000000057e+01 1.359619999999999891e+02 1.639079999999999927e+03
1.209999999999999964e-01 6.723265000000000491e-01 1.099942500000000045e+01 1.351884999999999764e+02 1.638875000000000000e+03
1.219999999999999973e-01 6.721584999999999921e-01 1.032090499999999977e+01 1.344485000000000241e+02 1.638684999999999945e+03
1.229999999999999982e-01 6.720010000000000705e-01 9.670664999999999623e+00 1.337529999999999859e+02 1.638500000000000000e+03
1.239999999999999991e-01 6.718585000000000251e-01 9.054320000000000590e+00 1.331125000000000114e+02 1.638324999999999818e+03
1.250000000000000000e-01 6.717314999999999259e-01 8.476620000000000488e+00 1.325355000000000132e+02 1.638159999999999854e+03
1.260000000000000009e-01 6.716210000000000235e-01 7.941425000000000622e+00 1.320285000000000082e+02 1.638019999999999982e+03
1.270000000000000018e-01 6.715284999999999727e-01 7.451504999999999157e+00 1.315955000000000155e+02 1.637900000000000091e+03
1.280000000000000027e-01 6.714534999999999254e-01 7.008454999999999657e+00 1.312394999999999925e+02 1.637789999999999964e+03
1.290000000000000036e-01 6.713964999999999517e-01 6.612619999999999720e+00 1.309594999999999914e+02 1.637700000000000045e+03
1.300000000000000044e-01 6.713560000000000638e-01 6.263180000000000192e+00 1.307535000000000025e+02 1.637630000000000109e+03
1.310000000000000053e-01 6.713305000000000522e-01 5.958220000000000738e+00 1.306154999999999973e+02 1.637585000000000036e+03
1.320000000000000062e-01 6.713184999999999292e-01 5.694855000000000445e+00 1.305409999999999968e+02 1.637545000000000073e+03
1.330000000000000071e-01 6.713184999999999292e-01 5.469409999999999883e+00 1.305199999999999818e+02 1.637525000000000091e+03
1.340000000000000080e-01 6.713270000000000071e-01 5.277639999999999887e+00 1.305439999999999827e+02 1.637519999999999982e+03
1.350000000000000089e-01 6.713430000000000231e-01 5.114894999999999747e+00 1.306034999999999968e+02 1.637525000000000091e+03
1.360000000000000098e-01 6.713635000000000019e-01 4.976354999999999862e+00 1.306885000000000048e+02 1.637529999999999973e+03
1.370000000000000107e-01 6.713869999999999560e-01 4.857205000000000439e+00 1.307884999999999991e+02 1.637549999999999955e+03
1.380000000000000115e-01 6.714109999999999800e-01 4.752815000000000012e+00 1.308949999999999818e+02 1.637570000000000164e+03
1.390000000000000124e-01 6.714339999999999753e-01 4.658875000000000099e+00 1.310000000000000000e+02 1.637590000000000146e+03
1.400000000000000133e-01 6.714539999999999953e-01 4.571490000000000720e+00 1.310955000000000155e+02 1.637605000000000018e+03
1.410000000000000142e-01 6.714700000000000113e-01 4.487254999999999328e+00 1.311754999999999995e+02 1.637625000000000000e+03
1.420000000000000151e-01 6.714809999999999945e-01 4.403324999999999712e+00 1.312365000000000066e+02 1.637639999999999873e+03
1.430000000000000160e-01 6.714869999999999450e-01 4.317384999999999806e+00 1.312744999999999891e+02 1.637650000000000091e+03
1.440000000000000169e-01 6.714869999999999450e-01 4.227685000000000137e+00 1.312869999999999777e+02 1.637654999999999973e+03
1.450000000000000178e-01 6.714815000000000644e-01 4.132989999999999498e+00 1.312735000000000127e+02 1.637644999999999982e+03
1.459999999999999909e-01 6.714705000000000812e-01 4.032555000000000334e+00 1.312340000000000089e+02 1.637639999999999873e+03
1.469999999999999918e-01 6.714535000000000364e-01 3.926074999999999982e+00 1.311689999999999827e+02 1.637630000000000109e+03
1.479999999999999927e-01 6.714314999999999589e-01 3.813614999999999977e+00 1.310810000000000173e+02 1.637605000000000018e+03
1.489999999999999936e-01 6.714055000000000994e-01 3.695565000000000211e+00 1.309710000000000036e+02 1.637579999999999927e+03
1.499999999999999944e-01 6.713750000000000551e-01 3.572575000000000056e+00 1.308419999999999845e+02 1.637549999999999955e+03
1.509999999999999953e-01 6.713409999999999656e-01 3.445489999999999942e+00 1.306965000000000146e+02 1.637514999999999873e+03
1.519999999999999962e-01 6.713044999999999707e-01 3.315294999999999881e+00 1.305370000000000061e+02 1.637474999999999909e+03
1.529999999999999971e-01 6.712655000000000705e-01 3.183040000000000092e+00 1.303659999999999854e+02 1.637434999999999945e+03
1.539999999999999980e-01 6.712249999999999606e-01 3.049819999999999975e+00 1.301859999999999786e+02 1.637389999999999873e+03
1.549999999999999989e-01 6.711830000000000851e-01 2.916719999999999757e+00 1.299989999999999952e+02 1.637345000000000027e+03
1.559999999999999998e-01 6.711405000000000287e-01 2.784765000000000157e+00 1.298075000000000045e+02 1.637295000000000073e+03
1.570000000000000007e-01 6.710970000000000546e-01 2.654924999999999979e+00 1.296119999999999948e+02 1.637250000000000000e+03
1.580000000000000016e-01 6.710530000000000106e-01 2.528070000000000039e+00 1.294139999999999873e+02 1.637195000000000164e+03
1.590000000000000024e-01 6.710085000000000077e-01 2.404975000000000307e+00 1.292155000000000200e+02 1.637144999999999982e+03
