# t [s], A [cm^2], U [cm/s], P [cPa], c [cm/s]
1.000000000000000021e-03 1.659805000000000030e-01 4.396538500000000127e-01 1.044904999999999973e+02 2.209945000000000164e+03
2.000000000000000042e-03 1.659184999999999965e-01 2.239508999999999972e+00 1.002639499999999941e+02 2.209355000000000018e+03
3.000000000000000062e-03 1.657710000000000017e-01 4.441036999999999679e+00 9.445725000000000193e+01 2.208005000000000109e+03
4.000000000000000083e-03 1.655834999999999946e-01 6.923835000000000406e+00 8.852469999999999573e+01 2.206310000000000400e+03
5.000000000000000104e-03 1.653944999999999999e-01 9.545204999999999274e+00 8.358315000000000339e+01 2.204625000000000000e+03
6.000000000000000125e-03 1.652190000000000047e-01 1.199094000000000015e+01 7.963464999999999350e+01 2.203074999999999818e+03
7.000000000000000146e-03 1.650574999999999959e-01 1.402081499999999892e+01 7.615330000000000155e+01 2.201690000000000055e+03
8.000000000000000167e-03 1.649160000000000070e-01 1.565789999999999971e+01 7.308725000000001160e+01 2.200494999999999891e+03
9.000000000000001055e-03 1.647980000000000000e-01 1.697429999999999950e+01 7.061355000000000359e+01 2.199510000000000218e+03
1.000000000000000194e-02 1.647040000000000171e-01 1.799770000000000181e+01 6.871989999999999554e+01 2.198734999999999673e+03
1.099999999999999936e-02 1.646320000000000006e-01 1.876064999999999827e+01 6.733265000000000100e+01 2.198150000000000091e+03
1.200000000000000025e-02 1.645780000000000021e-01 1.927770000000000294e+01 6.632634999999999081e+01 2.197724999999999909e+03
1.300000000000000114e-02 1.645360000000000156e-01 1.955715000000000003e+01 6.550634999999999764e+01 2.197399999999999636e+03
1.400000000000000203e-02 1.645039999999999836e-01 1.969624999999999915e+01 6.487305000000000632e+01 2.197159999999999854e+03
1.499999999999999944e-02 1.644889999999999963e-01 1.991169999999999973e+01 6.484069999999999823e+01 2.197054999999999836e+03
1.600000000000000033e-02 1.645044999999999980e-01 2.042524999999999835e+01 6.601810000000000400e+01 2.197190000000000055e+03
1.700000000000000122e-02 1.645590000000000108e-01 2.130640000000000001e+01 6.870310000000000628e+01 2.197644999999999982e+03
1.800000000000000211e-02 1.646495000000000042e-01 2.240739999999999910e+01 7.254044999999999277e+01 2.198404999999999745e+03
1.900000000000000300e-02 1.647580000000000156e-01 2.342990000000000350e+01 7.659459999999999980e+01 2.199315000000000055e+03
2.000000000000000042e-02 1.648580000000000045e-01 2.406650000000000134e+01 7.975549999999999784e+01 2.200175000000000182e+03
2.100000000000000130e-02 1.649265000000000037e-01 2.413494999999999990e+01 8.122055000000000291e+01 2.200789999999999964e+03
2.200000000000000219e-02 1.649515000000000009e-01 2.364365000000000094e+01 8.080745000000000289e+01 2.201034999999999854e+03
2.299999999999999961e-02 1.649359999999999993e-01 2.276554999999999751e+01 7.896659999999999968e+01 2.200939999999999600e+03
2.400000000000000050e-02 1.648930000000000118e-01 2.174465000000000003e+01 7.651765000000000327e+01 2.200595000000000255e+03
2.500000000000000139e-02 1.648419999999999885e-01 2.078685000000000116e+01 7.426560000000000628e+01 2.200175000000000182e+03
2.600000000000000228e-02 1.647965000000000124e-01 1.998720000000000141e+01 7.268619999999999948e+01 2.199784999999999854e+03
2.700000000000000316e-02 1.647640000000000216e-01 1.931739999999999924e+01 7.180519999999999925e+01 2.199494999999999891e+03
2.800000000000000058e-02 1.647405000000000119e-01 1.866629999999999967e+01 7.128379999999999939e+01 2.199295000000000073e+03
2.900000000000000147e-02 1.647175000000000167e-01 1.790854999999999819e+01 7.063714999999999122e+01 2.199099999999999909e+03
3.000000000000000236e-02 1.646865000000000134e-01 1.697064999999999912e+01 6.948269999999999413e+01 2.198845000000000255e+03
3.099999999999999978e-02 1.646414999999999962e-01 1.587315000000000076e+01 6.772525000000000261e+01 2.198474999999999909e+03
3.200000000000000067e-02 1.645860000000000101e-01 1.473395000000000010e+01 6.561724999999999852e+01 2.198014999999999873e+03
3.300000000000000155e-02 1.645285000000000220e-01 1.373235000000000028e+01 6.367810000000000059e+01 2.197525000000000091e+03
3.400000000000000244e-02 1.644845000000000057e-01 1.304874999999999829e+01 6.250549999999999784e+01 2.197144999999999982e+03
3.500000000000000333e-02 1.644654999999999867e-01 1.280294999999999916e+01 6.255805000000000149e+01 2.196965000000000146e+03
3.600000000000000422e-02 1.644805000000000017e-01 1.301490000000000080e+01 6.399080000000000723e+01 2.197070000000000164e+03
3.700000000000000511e-02 1.645294999999999952e-01 1.359745000000000026e+01 6.659790000000000987e+01 2.197454999999999927e+03
3.799999999999999906e-02 1.646040000000000003e-01 1.438060000000000116e+01 6.986905000000000143e+01 2.198065000000000055e+03
3.899999999999999994e-02 1.646894999999999887e-01 1.515375000000000050e+01 7.312555000000000405e+01 2.198779999999999745e+03
4.000000000000000083e-02 1.647689999999999988e-01 1.571235000000000070e+01 7.568475000000000819e+01 2.199444999999999709e+03
4.100000000000000172e-02 1.648260000000000003e-01 1.589519999999999911e+01 7.700379999999999825e+01 2.199940000000000055e+03
4.200000000000000261e-02 1.648479999999999945e-01 1.560735000000000028e+01 7.676994999999999436e+01 2.200144999999999982e+03
4.300000000000000350e-02 1.648290000000000033e-01 1.482404999999999973e+01 7.492549999999999955e+01 2.200005000000000109e+03
4.400000000000000439e-02 1.647675000000000112e-01 1.358119999999999905e+01 7.163419999999999277e+01 2.199510000000000218e+03
4.499999999999999833e-02 1.646684999999999954e-01 1.195684999999999931e+01 6.720949999999999136e+01 2.198695000000000164e+03
4.599999999999999922e-02 1.645399999999999918e-01 1.005031500000000122e+01 6.203069999999999595e+01 2.197625000000000000e+03
4.700000000000000011e-02 1.643910000000000093e-01 7.965355000000000629e+00 5.647175000000000011e+01 2.196375000000000000e+03
4.800000000000000100e-02 1.642310000000000159e-01 5.799898999999999916e+00 5.085590000000000543e+01 2.195024999999999636e+03
4.900000000000000189e-02 1.640679999999999916e-01 3.642450000000000188e+00 4.544030000000000058e+01 2.193644999999999982e+03
5.000000000000000278e-02 1.639089999999999991e-01 1.573520000000000030e+00 4.042425000000000068e+01 2.192309999999999945e+03
5.100000000000000366e-02 1.637609999999999899e-01 -3.312049999999997496e-01 3.596885000000000332e+01 2.191050000000000182e+03
5.200000000000000455e-02 1.636285000000000101e-01 -1.998024999999999718e+00 3.221800000000000352e+01 2.189920000000000073e+03
5.300000000000000544e-02 1.635165000000000091e-01 -3.354916999999999927e+00 2.931110000000000326e+01 2.188960000000000036e+03
5.399999999999999939e-02 1.634300000000000197e-01 -4.334060000000000024e+00 2.738485000000000014e+01 2.188204999999999927e+03
5.500000000000000028e-02 1.633729999999999905e-01 -4.876680000000000348e+00 2.656329999999999814e+01 2.187699999999999818e+03
5.600000000000000117e-02 1.633489999999999942e-01 -4.939029999999999809e+00 2.694180000000000064e+01 2.187474999999999909e+03
5.700000000000000205e-02 1.633610000000000062e-01 -4.497765000000000235e+00 2.856964999999999932e+01 2.187545000000000073e+03
5.800000000000000294e-02 1.634094999999999853e-01 -3.553395000000000081e+00 3.143679999999999808e+01 2.187925000000000182e+03
5.900000000000000383e-02 1.634955000000000158e-01 -2.131105999999999945e+00 3.546899999999999409e+01 2.188614999999999782e+03
6.000000000000000472e-02 1.636150000000000104e-01 -2.786850000000000716e-01 4.053170000000000073e+01 2.189594999999999800e+03
6.099999999999999867e-02 1.637645000000000073e-01 1.937634999999999774e+00 4.644209999999999638e+01 2.190824999999999818e+03
6.199999999999999956e-02 1.639384999999999870e-01 4.438552000000000497e+00 5.298559999999999803e+01 2.192279999999999745e+03
6.300000000000000044e-02 1.641320000000000001e-01 7.137445000000000483e+00 5.993330000000000268e+01 2.193899999999999636e+03
6.400000000000000133e-02 1.643374999999999975e-01 9.945579999999999643e+00 6.705859999999999843e+01 2.195635000000000218e+03
6.500000000000000222e-02 1.645490000000000008e-01 1.277696000000000076e+01 7.415035000000000309e+01 2.197425000000000182e+03
6.600000000000000311e-02 1.647615000000000052e-01 1.555235000000000056e+01 8.102334999999999354e+01 2.199229999999999563e+03
6.700000000000000400e-02 1.649685000000000179e-01 1.820299999999999940e+01 8.752674999999999272e+01 2.200989999999999782e+03
6.800000000000000488e-02 1.651655000000000206e-01 2.067379999999999995e+01 9.354999999999999716e+01 2.202684999999999945e+03
6.900000000000000577e-02 1.653494999999999826e-01 2.292585000000000051e+01 9.902864999999999895e+01 2.204274999999999636e+03
7.000000000000000666e-02 1.655200000000000005e-01 2.493809999999999860e+01 1.039442499999999967e+02 2.205744999999999891e+03
7.100000000000000755e-02 1.656745000000000023e-01 2.670739999999999981e+01 1.083259999999999934e+02 2.207090000000000146e+03
7.200000000000000844e-02 1.658155000000000046e-01 2.824735000000000085e+01 1.122425000000000068e+02 2.208319999999999709e+03
7.300000000000000933e-02 1.659434999999999938e-01 2.958565000000000111e+01 1.157955000000000041e+02 2.209434999999999945e+03
7.399999999999999634e-02 1.660625000000000018e-01 3.076000000000000156e+01 1.191069999999999993e+02 2.210474999999999909e+03
7.499999999999999722e-02 1.661745000000000028e-01 3.181364999999999910e+01 1.223045000000000044e+02 2.211454999999999927e+03
7.599999999999999811e-02 1.662839999999999874e-01 3.279044999999999987e+01 1.255095000000000027e+02 2.212409999999999854e+03
7.699999999999999900e-02 1.663934999999999997e-01 3.373064999999999714e+01 1.288229999999999791e+02 2.213364999999999782e+03
7.799999999999999989e-02 1.665059999999999873e-01 3.466710000000000491e+01 1.323179999999999836e+02 2.214345000000000255e+03
7.900000000000000078e-02 1.666230000000000211e-01 3.562255000000000393e+01 1.360345000000000084e+02 2.215360000000000127e+03
8.000000000000000167e-02 1.667454999999999909e-01 3.660875000000000057e+01 1.399770000000000039e+02 2.216420000000000073e+03
8.100000000000000255e-02 1.668735000000000079e-01 3.762559999999999860e+01 1.441154999999999973e+02 2.217529999999999745e+03
8.200000000000000344e-02 1.670065000000000022e-01 3.866219999999999857e+01 1.483910000000000196e+02 2.218684999999999945e+03
8.300000000000000433e-02 1.671424999999999994e-01 3.969854999999999734e+01 1.527230000000000132e+02 2.219855000000000018e+03
8.400000000000000522e-02 1.672790000000000110e-01 4.070745000000000147e+01 1.570134999999999934e+02 2.221039999999999964e+03
8.500000000000000611e-02 1.674130000000000063e-01 4.165715000000000146e+01 1.611594999999999800e+02 2.222210000000000036e+03
8.600000000000000699e-02 1.675424999999999831e-01 4.251370000000000005e+01 1.650570000000000164e+02 2.223335000000000036e+03
8.700000000000000788e-02 1.676634999999999931e-01 4.324389999999999645e+01 1.686095000000000255e+02 2.224390000000000327e+03
8.800000000000000877e-02 1.677744999999999931e-01 4.381719999999999970e+01 1.717330000000000041e+02 2.225360000000000127e+03
8.899999999999999578e-02 1.678724999999999801e-01 4.420794999999999675e+01 1.743620000000000232e+02 2.226224999999999909e+03
8.999999999999999667e-02 1.679555000000000076e-01 4.439695000000000391e+01 1.764499999999999886e+02 2.226960000000000036e+03
9.099999999999999756e-02 1.680225000000000191e-01 4.437255000000000393e+01 1.779735000000000014e+02 2.227550000000000182e+03
9.199999999999999845e-02 1.680725000000000136e-01 4.413154999999999717e+01 1.789314999999999998e+02 2.228005000000000109e+03
9.299999999999999933e-02 1.681060000000000054e-01 4.367889999999999873e+01 1.793455000000000155e+02 2.228309999999999945e+03
9.400000000000000022e-02 1.681234999999999813e-01 4.302774999999999750e+01 1.792560000000000002e+02 2.228474999999999909e+03
9.500000000000000111e-02 1.681259999999999977e-01 4.219819999999999993e+01 1.787214999999999918e+02 2.228515000000000327e+03
9.600000000000000200e-02 1.681150000000000144e-01 4.121614999999999895e+01 1.778125000000000000e+02 2.228434999999999945e+03
9.700000000000000289e-02 1.680920000000000192e-01 4.011199999999999477e+01 1.766069999999999993e+02 2.228250000000000000e+03
9.800000000000000377e-02 1.680610000000000159e-01 3.891870000000000118e+01 1.751895000000000095e+02 2.227989999999999782e+03
9.900000000000000466e-02 1.680229999999999779e-01 3.767005000000000337e+01 1.736415000000000077e+02 2.227670000000000073e+03
1.000000000000000056e-01 1.679804999999999771e-01 3.639934999999999832e+01 1.720419999999999732e+02 2.227305000000000291e+03
1.010000000000000064e-01 1.679364999999999886e-01 3.513739999999999952e+01 1.704624999999999773e+02 2.226920000000000073e+03
1.020000000000000073e-01 1.678914999999999991e-01 3.391174999999999784e+01 1.689619999999999891e+02 2.226534999999999854e+03
1.030000000000000082e-01 1.678490000000000260e-01 3.274524999999999864e+01 1.675889999999999986e+02 2.226164999999999964e+03
1.040000000000000091e-01 1.678089999999999860e-01 3.165544999999999831e+01 1.663774999999999977e+02 2.225815000000000055e+03
1.050000000000000100e-01 1.677734999999999921e-01 3.065370000000000061e+01 1.653464999999999918e+02 2.225500000000000000e+03
1.059999999999999970e-01 1.677430000000000032e-01 2.974524999999999864e+01 1.644995000000000118e+02 2.225230000000000018e+03
1.069999999999999979e-01 1.677170000000000050e-01 2.892905000000000015e+01 1.638254999999999768e+02 2.224994999999999891e+03
1.079999999999999988e-01 1.676954999999999973e-01 2.819825000000000159e+01 1.632989999999999782e+02 2.224800000000000182e+03
1.089999999999999997e-01 1.676770000000000205e-01 2.754060000000000130e+01 1.628845000000000027e+02 2.224640000000000327e+03
1.100000000000000006e-01 1.676624999999999921e-01 2.693979999999999819e+01 1.625360000000000014e+02 2.224505000000000109e+03
1.110000000000000014e-01 1.676489999999999925e-01 2.637640000000000029e+01 1.621999999999999886e+02 2.224385000000000218e+03
1.120000000000000023e-01 1.676360000000000072e-01 2.582904999999999873e+01 1.618240000000000123e+02 2.224264999999999873e+03
1.130000000000000032e-01 1.676215000000000066e-01 2.527629999999999910e+01 1.613534999999999968e+02 2.224135000000000218e+03
1.140000000000000041e-01 1.676035000000000164e-01 2.469769999999999754e+01 1.607389999999999759e+02 2.223980000000000018e+03
1.150000000000000050e-01 1.675814999999999944e-01 2.407529999999999859e+01 1.599395000000000095e+02 2.223784999999999854e+03
1.160000000000000059e-01 1.675539999999999807e-01 2.339480000000000004e+01 1.589250000000000114e+02 2.223550000000000182e+03
1.170000000000000068e-01 1.675205000000000166e-01 2.264649999999999963e+01 1.576779999999999973e+02 2.223260000000000218e+03
1.180000000000000077e-01 1.674804999999999766e-01 2.182605000000000217e+01 1.561949999999999932e+02 2.222914999999999964e+03
1.190000000000000085e-01 1.674335000000000129e-01 2.093449999999999989e+01 1.544875000000000114e+02 2.222510000000000218e+03
1.200000000000000094e-01 1.673800000000000010e-01 1.997865000000000180e+01 1.525819999999999936e+02 2.222050000000000182e+03
1.209999999999999964e-01 1.673204999999999831e-01 1.897025000000000006e+01 1.505144999999999982e+02 2.221545000000000073e+03
1.219999999999999973e-01 1.672575000000000034e-01 1.792559999999999931e+01 1.483360000000000127e+02 2.221000000000000000e+03
1.229999999999999982e-01 1.671910000000000063e-01 1.686424999999999841e+01 1.461005000000000109e+02 2.220425000000000182e+03
1.239999999999999991e-01 1.671229999999999938e-01 1.580809999999999960e+01 1.438689999999999998e+02 2.219835000000000036e+03
1.250000000000000000e-01 1.670550000000000090e-01 1.477984999999999971e+01 1.417015000000000100e+02 2.219250000000000000e+03
1.260000000000000009e-01 1.669885000000000119e-01 1.380175000000000018e+01 1.396550000000000011e+02 2.218675000000000182e+03
1.270000000000000018e-01 1.669265000000000054e-01 1.289440000000000097e+01 1.377830000000000155e+02 2.218135000000000218e+03
1.280000000000000027e-01 1.668689999999999896e-01 1.207577999999999996e+01 1.361264999999999930e+02 2.217630000000000109e+03
1.290000000000000036e-01 1.668179999999999941e-01 1.136000500000000102e+01 1.347189999999999941e+02 2.217184999999999945e+03
1.300000000000000044e-01 1.667740000000000056e-01 1.075709499999999963e+01 1.335800000000000125e+02 2.216800000000000182e+03
1.310000000000000053e-01 1.667379999999999973e-01 1.027243999999999957e+01 1.327189999999999941e+02 2.216480000000000018e+03
1.320000000000000062e-01 1.667099999999999971e-01 9.906895000000000451e+00 1.321324999999999932e+02 2.216235000000000127e+03
1.330000000000000071e-01 1.666900000000000048e-01 9.656780000000001252e+00 1.318064999999999998e+02 2.216050000000000182e+03
1.340000000000000080e-01 1.666779999999999928e-01 9.514519999999999200e+00 1.317169999999999845e+02 2.215940000000000055e+03
1.350000000000000089e-01 1.666730000000000156e-01 9.469094999999999374e+00 1.318340000000000032e+02 2.215880000000000109e+03
1.360000000000000098e-01 1.666735000000000022e-01 9.506814999999999571e+00 1.321210000000000093e+02 2.215880000000000109e+03
1.370000000000000107e-01 1.666795000000000082e-01 9.612110000000001264e+00 1.325375000000000227e+02 2.215925000000000182e+03
1.380000000000000115e-01 1.666890000000000038e-01 9.768295000000000172e+00 1.330434999999999945e+02 2.216005000000000109e+03
1.390000000000000124e-01 1.667020000000000168e-01 9.958344999999999558e+00 1.335989999999999895e+02 2.216109999999999673e+03
1.400000000000000133e-01 1.667164999999999897e-01 1.016569999999999929e+01 1.341659999999999968e+02 2.216230000000000018e+03
1.410000000000000142e-01 1.667315000000000047e-01 1.037484999999999857e+01 1.347090000000000032e+02 2.216355000000000018e+03
1.420000000000000151e-01 1.667460000000000053e-01 1.057179999999999964e+01 1.351999999999999886e+02 2.216480000000000018e+03
1.430000000000000160e-01 1.667589999999999906e-01 1.074490000000000123e+01 1.356150000000000091e+02 2.216595000000000255e+03
1.440000000000000169e-01 1.667704999999999882e-01 1.088479999999999848e+01 1.359360000000000070e+02 2.216690000000000055e+03
1.450000000000000178e-01 1.667795000000000250e-01 1.098479999999999990e+01 1.361524999999999750e+02 2.216769999999999982e+03
1.459999999999999909e-01 1.667850000000000166e-01 1.104100000000000037e+01 1.362604999999999791e+02 2.216819999999999709e+03
1.469999999999999918e-01 1.667885000000000062e-01 1.105230000000000068e+01 1.362624999999999886e+02 2.216849999999999909e+03
1.479999999999999927e-01 1.667885000000000062e-01 1.102015000000000100e+01 1.361659999999999968e+02 2.216849999999999909e+03
1.489999999999999936e-01 1.667859999999999898e-01 1.094819999999999993e+01 1.359839999999999804e+02 2.216835000000000036e+03
1.499999999999999944e-01 1.667810000000000126e-01 1.084209999999999852e+01 1.357330000000000041e+02 2.216795000000000073e+03
1.509999999999999953e-01 1.667735000000000190e-01 1.070880999999999972e+01 1.354314999999999998e+02 2.216734999999999673e+03
1.519999999999999962e-01 1.667655000000000109e-01 1.055621499999999990e+01 1.351014999999999873e+02 2.216664999999999964e+03
1.529999999999999971e-01 1.667565000000000019e-01 1.039240500000000011e+01 1.347624999999999886e+02 2.216590000000000146e+03
1.539999999999999980e-01 1.667469999999999786e-01 1.022543500000000094e+01 1.344325000000000045e+02 2.216510000000000218e+03
1.549999999999999989e-01 1.667375000000000107e-01 1.006248499999999879e+01 1.341274999999999977e+02 2.216430000000000291e+03
1.559999999999999998e-01 1.667290000000000161e-01 9.909819999999999851e+00 1.338609999999999900e+02 2.216355000000000018e+03
1.570000000000000007e-01 1.667214999999999947e-01 9.772300000000001319e+00 1.336419999999999959e+02 2.216295000000000073e+03
1.580000000000000016e-01 1.667154999999999887e-01 9.653304999999999580e+00 1.334745000000000061e+02 2.216234999999999673e+03
1.590000000000000024e-01 1.667105000000000115e-01 9.554594999999999061e+00 1.333600000000000136e+02 2.216195000000000164e+03
