# t [s], A [cm^2], U [cm/s], P [cPa], c [cm/s]
1.000000000000000021e-03 6.189899999999999292e-01 1.790699999999999237e-03 9.719845000000000823e+01 1.426664999999999964e+03
2.000000000000000042e-03 6.189835000000000198e-01 2.765034999999999889e-03 9.718289999999998940e+01 1.426664999999999964e+03
3.000000000000000062e-03 6.190374999999999073e-01 8.892840000000001854e-02 9.726030000000000086e+01 1.426679999999999836e+03
4.000000000000000083e-03 6.190894999999999593e-01 1.727998999999999785e-01 9.735835000000000150e+01 1.426710000000000036e+03
5.000000000000000104e-03 6.190780000000000172e-01 1.583597999999999950e-01 9.733715000000000828e+01 1.426710000000000036e+03
6.000000000000000125e-03 6.190275000000000638e-01 7.824999999999998623e-02 9.719004999999999939e+01 1.426684999999999945e+03
7.000000000000000146e-03 6.189735000000000653e-01 -1.237199999999999411e-02 9.696899999999999409e+01 1.426634999999999991e+03
8.000000000000000167e-03 6.188955000000000428e-01 -1.478479999999999239e-01 9.664555000000000007e+01 1.426565000000000055e+03
9.000000000000001055e-03 6.187594999999999068e-01 -3.835049999999999848e-01 9.614544999999999675e+01 1.426454999999999927e+03
1.000000000000000194e-02 6.185579999999999412e-01 -7.294950000000000045e-01 9.542470000000000141e+01 1.426295000000000073e+03
1.099999999999999936e-02 6.182834999999999859e-01 -1.186440000000000161e+00 9.445085000000000264e+01 1.426069999999999936e+03
1.200000000000000025e-02 6.179240000000000288e-01 -1.759689999999999976e+00 9.318779999999999575e+01 1.425764999999999873e+03
1.300000000000000114e-02 6.174815000000000165e-01 -2.427059999999999995e+00 9.163004999999999711e+01 1.425384999999999991e+03
1.400000000000000203e-02 6.169875000000000220e-01 -3.115579999999999572e+00 8.983899999999999864e+01 1.424940000000000055e+03
1.499999999999999944e-02 6.164910000000000112e-01 -3.717614999999999892e+00 8.793985000000000696e+01 1.424450000000000045e+03
1.600000000000000033e-02 6.160414999999999086e-01 -4.131039000000000350e+00 8.607999999999999829e+01 1.423950000000000045e+03
1.700000000000000122e-02 6.156644999999999479e-01 -4.293482500000000535e+00 8.438085000000000946e+01 1.423469999999999800e+03
1.800000000000000211e-02 6.153615000000000057e-01 -4.195367150000000045e+00 8.290610000000000923e+01 1.423025000000000091e+03
1.900000000000000300e-02 6.151124999999999510e-01 -3.873197499999999849e+00 8.165444999999999709e+01 1.422625000000000000e+03
2.000000000000000042e-02 6.148875000000000313e-01 -3.391351999999999922e+00 8.057235000000000014e+01 1.422255000000000109e+03
2.100000000000000130e-02 6.146555000000000213e-01 -2.820225999999999900e+00 7.957800000000000296e+01 1.421905000000000200e+03
2.200000000000000219e-02 6.143935000000000368e-01 -2.217089999999999783e+00 7.858889999999999532e+01 1.421565000000000055e+03
2.299999999999999961e-02 6.140925000000000411e-01 -1.614580000000000126e+00 7.754455000000000098e+01 1.421210000000000036e+03
2.400000000000000050e-02 6.137559999999999683e-01 -1.019589999999999996e+00 7.641769999999999641e+01 1.420845000000000027e+03
2.500000000000000139e-02 6.133949999999999125e-01 -4.216599999999999238e-01 7.521209999999999241e+01 1.420460000000000036e+03
2.600000000000000228e-02 6.130219999999999558e-01 1.935899999999999288e-01 7.394989999999999952e+01 1.420059999999999945e+03
2.700000000000000316e-02 6.126454999999999540e-01 8.316699999999999093e-01 7.265434999999999377e+01 1.419654999999999973e+03
2.800000000000000058e-02 6.122650000000000592e-01 1.481160000000000032e+00 7.133570000000000277e+01 1.419240000000000009e+03
2.900000000000000147e-02 6.118710000000000537e-01 2.112119999999999997e+00 6.998290000000000077e+01 1.418815000000000055e+03
3.000000000000000236e-02 6.114484999999999504e-01 2.680210000000000647e+00 6.856310000000000571e+01 1.418369999999999891e+03
3.099999999999999978e-02 6.109795000000000087e-01 3.134904999999999831e+00 6.702800000000000580e+01 1.417900000000000091e+03
3.200000000000000067e-02 6.104465000000000030e-01 3.429445000000000299e+00 6.532489999999999952e+01 1.417389999999999873e+03
3.300000000000000155e-02 6.098405000000000076e-01 3.530275000000000052e+00 6.341034999999999400e+01 1.416840000000000146e+03
3.400000000000000244e-02 6.091594999999999649e-01 3.424429999999999641e+00 6.126214999999999833e+01 1.416224999999999909e+03
3.500000000000000333e-02 6.084134999999999405e-01 3.122514999999999930e+00 5.888830000000000098e+01 1.415559999999999945e+03
3.600000000000000422e-02 6.076205000000000078e-01 2.657779999999999809e+00 5.633015000000000327e+01 1.414844999999999800e+03
3.700000000000000511e-02 6.068085000000000839e-01 2.081195000000000128e+00 5.365959999999999752e+01 1.414105000000000018e+03
3.799999999999999906e-02 6.060079999999999911e-01 1.454015000000000057e+00 5.097155000000000058e+01 1.413349999999999909e+03
3.899999999999999994e-02 6.052500000000000657e-01 8.399000000000000909e-01 4.837279999999999802e+01 1.412610000000000127e+03
4.000000000000000083e-02 6.045639999999999903e-01 2.981299999999995620e-01 4.597149999999999892e+01 1.411909999999999854e+03
4.100000000000000172e-02 6.039750000000000396e-01 -1.213200000000003165e-01 4.386645000000000039e+01 1.411279999999999973e+03
4.200000000000000261e-02 6.035000000000000364e-01 -3.802650000000000752e-01 4.214019999999999300e+01 1.410735000000000127e+03
4.300000000000000350e-02 6.031530000000000502e-01 -4.526349999999998985e-01 4.085459999999999781e+01 1.410300000000000182e+03
4.400000000000000439e-02 6.029400000000000315e-01 -3.231450000000000156e-01 4.004975000000000307e+01 1.409990000000000009e+03
4.499999999999999833e-02 6.028634999999999966e-01 1.495000000000001883e-02 3.974524999999999864e+01 1.409809999999999945e+03
4.599999999999999922e-02 6.029219999999999580e-01 5.622875000000000512e-01 3.994344999999999857e+01 1.409765000000000100e+03
4.700000000000000011e-02 6.031120000000000925e-01 1.315537500000000026e+00 4.063299999999999557e+01 1.409855000000000018e+03
4.800000000000000100e-02 6.034280000000000754e-01 2.268765000000000143e+00 4.179269999999999641e+01 1.410074999999999818e+03
4.900000000000000189e-02 6.038615000000000510e-01 3.413974999999999760e+00 4.339440000000000452e+01 1.410430000000000064e+03
5.000000000000000278e-02 6.044065000000000687e-01 4.740915000000000212e+00 4.540489999999999782e+01 1.410900000000000091e+03
5.100000000000000366e-02 6.050514999999999644e-01 6.236429999999999474e+00 4.778695000000000448e+01 1.411484999999999900e+03
5.200000000000000455e-02 6.057874999999999233e-01 7.883843499999999338e+00 5.049940000000000140e+01 1.412170000000000073e+03
5.300000000000000544e-02 6.066000000000000281e-01 9.662525000000000475e+00 5.349770000000000181e+01 1.412944999999999936e+03
5.399999999999999939e-02 6.074775000000000036e-01 1.154783999999999899e+01 5.673345000000000482e+01 1.413795000000000073e+03
5.500000000000000028e-02 6.084045000000000147e-01 1.351201000000000008e+01 6.015574999999999761e+01 1.414710000000000036e+03
5.600000000000000117e-02 6.093665000000000331e-01 1.552489999999999881e+01 6.371179999999999666e+01 1.415675000000000182e+03
5.700000000000000205e-02 6.103490000000000304e-01 1.755555499999999824e+01 6.734884999999999877e+01 1.416679999999999836e+03
5.800000000000000294e-02 6.113375000000000892e-01 1.957372000000000156e+01 7.101590000000000202e+01 1.417710000000000036e+03
5.900000000000000383e-02 6.123195000000000165e-01 2.155134999999999934e+01 7.466594999999999516e+01 1.418740000000000009e+03
6.000000000000000472e-02 6.132850000000000801e-01 2.346374999999999744e+01 7.825764999999999816e+01 1.419775000000000091e+03
6.099999999999999867e-02 6.142250000000000210e-01 2.529044999999999987e+01 8.175700000000000500e+01 1.420795000000000073e+03
6.199999999999999956e-02 6.151344999999999175e-01 2.701599999999999824e+01 8.513830000000000098e+01 1.421795000000000073e+03
6.300000000000000044e-02 6.160094999999999876e-01 2.862980000000000302e+01 8.838454999999999018e+01 1.422764999999999873e+03
6.400000000000000133e-02 6.168489999999999807e-01 3.012619999999999720e+01 9.148799999999999955e+01 1.423710000000000036e+03
6.500000000000000222e-02 6.176539999999999253e-01 3.150399999999999778e+01 9.444845000000000823e+01 1.424615000000000009e+03
6.600000000000000311e-02 6.184264999999999901e-01 3.276585000000000036e+01 9.727264999999999873e+01 1.425485000000000127e+03
6.700000000000000400e-02 6.191710000000000269e-01 3.391745000000000232e+01 9.997419999999999618e+01 1.426329999999999927e+03
6.800000000000000488e-02 6.198919999999999986e-01 3.496730000000000160e+01 1.025699999999999932e+02 1.427144999999999982e+03
6.900000000000000577e-02 6.205955000000000776e-01 3.592524999999999835e+01 1.050810000000000031e+02 1.427934999999999945e+03
7.000000000000000666e-02 6.212860000000000049e-01 3.680240000000000578e+01 1.075280000000000058e+02 1.428704999999999927e+03
7.100000000000000755e-02 6.219704999999999817e-01 3.760999999999999943e+01 1.099329999999999927e+02 1.429460000000000036e+03
7.200000000000000844e-02 6.226525000000000531e-01 3.835895000000000010e+01 1.123155000000000001e+02 1.430214999999999918e+03
7.300000000000000933e-02 6.233360000000000012e-01 3.905924999999999869e+01 1.146929999999999978e+02 1.430960000000000036e+03
7.399999999999999634e-02 6.240250000000000519e-01 3.971935000000000571e+01 1.170780000000000030e+02 1.431704999999999927e+03
7.499999999999999722e-02 6.247210000000000818e-01 4.034550000000000125e+01 1.194795000000000016e+02 1.432450000000000045e+03
7.599999999999999811e-02 6.254230000000000622e-01 4.094190000000000396e+01 1.219010000000000105e+02 1.433200000000000045e+03
7.699999999999999900e-02 6.261315000000000630e-01 4.150999999999999801e+01 1.243400000000000034e+02 1.433954999999999927e+03
7.799999999999999989e-02 6.268415000000000514e-01 4.204885000000000161e+01 1.267890000000000015e+02 1.434704999999999927e+03
7.900000000000000078e-02 6.275509999999999700e-01 4.255509999999999593e+01 1.292350000000000136e+02 1.435465000000000146e+03
8.000000000000000167e-02 6.282535000000000203e-01 4.302315000000000111e+01 1.316610000000000014e+02 1.436210000000000036e+03
8.100000000000000255e-02 6.289430000000000298e-01 4.344589999999999463e+01 1.340459999999999923e+02 1.436954999999999927e+03
8.200000000000000344e-02 6.296135000000000481e-01 4.381504999999999939e+01 1.363679999999999950e+02 1.437675000000000182e+03
8.300000000000000433e-02 6.302585000000000548e-01 4.412160000000000082e+01 1.386014999999999873e+02 1.438369999999999891e+03
8.400000000000000522e-02 6.308700000000000419e-01 4.435670000000000357e+01 1.407220000000000084e+02 1.439045000000000073e+03
8.500000000000000611e-02 6.314435000000000464e-01 4.451194999999999879e+01 1.427079999999999984e+02 1.439679999999999836e+03
8.600000000000000699e-02 6.319725000000000481e-01 4.457999999999999829e+01 1.445374999999999943e+02 1.440269999999999982e+03
8.700000000000000788e-02 6.324524999999999730e-01 4.455495000000000516e+01 1.461929999999999836e+02 1.440820000000000164e+03
8.800000000000000877e-02 6.328795000000000393e-01 4.443265000000000242e+01 1.476605000000000132e+02 1.441309999999999945e+03
8.899999999999999578e-02 6.332524999999999959e-01 4.421105000000000018e+01 1.489320000000000164e+02 1.441755000000000109e+03
8.999999999999999667e-02 6.335694999999998966e-01 4.389000000000000057e+01 1.500024999999999977e+02 1.442130000000000109e+03
9.099999999999999756e-02 6.338319999999999510e-01 4.347169999999999845e+01 1.508715000000000259e+02 1.442454999999999927e+03
9.199999999999999845e-02 6.340395000000000891e-01 4.296034999999999826e+01 1.515434999999999945e+02 1.442724999999999909e+03
9.299999999999999933e-02 6.341959999999999820e-01 4.236204999999999643e+01 1.520285000000000082e+02 1.442930000000000064e+03
9.400000000000000022e-02 6.343050000000000077e-01 4.168479999999999563e+01 1.523385000000000105e+02 1.443089999999999918e+03
9.500000000000000111e-02 6.343710000000000182e-01 4.093795000000000073e+01 1.524889999999999759e+02 1.443199999999999818e+03
9.600000000000000200e-02 6.343984999999999763e-01 4.013200000000000500e+01 1.524995000000000118e+02 1.443255000000000109e+03
9.700000000000000289e-02 6.343924999999999148e-01 3.927844999999999942e+01 1.523899999999999864e+02 1.443275000000000091e+03
9.800000000000000377e-02 6.343600000000000350e-01 3.838904999999999745e+01 1.521804999999999950e+02 1.443264999999999873e+03
9.900000000000000466e-02 6.343060000000000365e-01 3.747585000000000122e+01 1.518944999999999936e+02 1.443224999999999909e+03
1.000000000000000056e-01 6.342369999999999397e-01 3.655060000000000286e+01 1.515525000000000091e+02 1.443159999999999854e+03
1.010000000000000064e-01 6.341574999999999296e-01 3.562425000000000352e+01 1.511750000000000114e+02 1.443079999999999927e+03
1.020000000000000073e-01 6.340719999999999690e-01 3.470694999999999908e+01 1.507794999999999845e+02 1.442990000000000009e+03
1.030000000000000082e-01 6.339859999999999385e-01 3.380754999999999910e+01 1.503840000000000146e+02 1.442889999999999873e+03
1.040000000000000091e-01 6.339015000000000066e-01 3.293345000000000056e+01 1.500004999999999882e+02 1.442789999999999964e+03
1.050000000000000100e-01 6.338230000000000253e-01 3.209029999999999916e+01 1.496409999999999911e+02 1.442695000000000164e+03
1.059999999999999970e-01 6.337509999999999533e-01 3.128200000000000358e+01 1.493120000000000118e+02 1.442599999999999909e+03
1.069999999999999979e-01 6.336874999999999591e-01 3.051064999999999827e+01 1.490185000000000173e+02 1.442509999999999991e+03
1.079999999999999988e-01 6.336315000000000142e-01 2.977649999999999864e+01 1.487615000000000123e+02 1.442434999999999945e+03
1.089999999999999997e-01 6.335830000000000073e-01 2.907799999999999940e+01 1.485384999999999991e+02 1.442360000000000127e+03
1.100000000000000006e-01 6.335404999999999509e-01 2.841235000000000355e+01 1.483455000000000155e+02 1.442295000000000073e+03
1.110000000000000014e-01 6.335025000000000794e-01 2.777530000000000143e+01 1.481750000000000114e+02 1.442240000000000009e+03
1.120000000000000023e-01 6.334655000000000147e-01 2.716140000000000043e+01 1.480190000000000055e+02 1.442179999999999836e+03
1.130000000000000032e-01 6.334275000000000322e-01 2.656475000000000009e+01 1.478665000000000020e+02 1.442125000000000000e+03
1.140000000000000041e-01 6.333854999999999347e-01 2.597885000000000133e+01 1.477079999999999984e+02 1.442074999999999818e+03
1.150000000000000050e-01 6.333364999999999689e-01 2.539699999999999847e+01 1.475310000000000059e+02 1.442009999999999991e+03
1.160000000000000059e-01 6.332785000000000775e-01 2.481280000000000285e+01 1.473254999999999768e+02 1.441944999999999936e+03
1.170000000000000068e-01 6.332079999999999931e-01 2.422030000000000172e+01 1.470824999999999818e+02 1.441875000000000000e+03
1.180000000000000077e-01 6.331234999999999502e-01 2.361420000000000030e+01 1.467925000000000182e+02 1.441795000000000073e+03
1.190000000000000085e-01 6.330234999999999612e-01 2.299014999999999986e+01 1.464490000000000123e+02 1.441690000000000055e+03
1.200000000000000094e-01 6.329065000000000385e-01 2.234475000000000122e+01 1.460469999999999970e+02 1.441574999999999818e+03
1.209999999999999964e-01 6.327724999999999600e-01 2.167609999999999815e+01 1.455835000000000150e+02 1.441449999999999818e+03
1.219999999999999973e-01 6.326209999999999889e-01 2.098335000000000150e+01 1.450595000000000141e+02 1.441300000000000182e+03
1.229999999999999982e-01 6.324535000000000018e-01 2.026715000000000089e+01 1.444749999999999943e+02 1.441139999999999873e+03
1.239999999999999991e-01 6.322704999999999576e-01 1.952929999999999922e+01 1.438349999999999795e+02 1.440960000000000036e+03
1.250000000000000000e-01 6.320749999999999424e-01 1.877299999999999969e+01 1.431460000000000150e+02 1.440764999999999873e+03
1.260000000000000009e-01 6.318684999999999441e-01 1.800244999999999962e+01 1.424159999999999968e+02 1.440559999999999945e+03
1.270000000000000018e-01 6.316545000000000076e-01 1.722289999999999921e+01 1.416539999999999964e+02 1.440340000000000146e+03
1.280000000000000027e-01 6.314355000000000384e-01 1.644040000000000035e+01 1.408714999999999975e+02 1.440119999999999891e+03
1.290000000000000036e-01 6.312150000000000816e-01 1.566159999999999997e+01 1.400805000000000007e+02 1.439889999999999873e+03
1.300000000000000044e-01 6.309970000000000301e-01 1.489354499999999959e+01 1.392925000000000182e+02 1.439664999999999964e+03
1.310000000000000053e-01 6.307840000000000114e-01 1.414324500000000029e+01 1.385210000000000150e+02 1.439434999999999945e+03
1.320000000000000062e-01 6.305800000000000294e-01 1.341767000000000110e+01 1.377769999999999868e+02 1.439210000000000036e+03
1.330000000000000071e-01 6.303870000000000307e-01 1.272353500000000004e+01 1.370715000000000146e+02 1.439000000000000000e+03
1.340000000000000080e-01 6.302084999999999493e-01 1.206672000000000011e+01 1.364150000000000205e+02 1.438795000000000073e+03
1.350000000000000089e-01 6.300464999999999538e-01 1.145243499999999948e+01 1.358165000000000191e+02 1.438610000000000127e+03
1.360000000000000098e-01 6.299025000000000318e-01 1.088496499999999934e+01 1.352819999999999823e+02 1.438434999999999945e+03
1.370000000000000107e-01 6.297774999999999901e-01 1.036736499999999950e+01 1.348160000000000025e+02 1.438279999999999973e+03
1.380000000000000115e-01 6.296730000000000382e-01 9.901640000000000441e+00 1.344219999999999970e+02 1.438150000000000091e+03
1.390000000000000124e-01 6.295880000000000365e-01 9.488519999999999399e+00 1.340999999999999943e+02 1.438034999999999854e+03
1.400000000000000133e-01 6.295220000000000260e-01 9.127475000000000449e+00 1.338489999999999895e+02 1.437940000000000055e+03
1.410000000000000142e-01 6.294740000000000890e-01 8.817000000000000171e+00 1.336645000000000039e+02 1.437865000000000009e+03
1.420000000000000151e-01 6.294424999999999049e-01 8.554415000000000546e+00 1.335430000000000064e+02 1.437809999999999945e+03
1.430000000000000160e-01 6.294260000000000410e-01 8.336185000000000400e+00 1.334770000000000039e+02 1.437759999999999991e+03
1.440000000000000169e-01 6.294210000000000083e-01 8.158104999999999052e+00 1.334590000000000032e+02 1.437740000000000009e+03
1.450000000000000178e-01 6.294269999999999587e-01 8.015360000000001151e+00 1.334799999999999898e+02 1.437724999999999909e+03
1.459999999999999909e-01 6.294394999999999296e-01 7.902775000000000105e+00 1.335319999999999823e+02 1.437724999999999909e+03
1.469999999999999918e-01 6.294579999999999620e-01 7.815030000000000143e+00 1.336055000000000064e+02 1.437724999999999909e+03
1.479999999999999927e-01 6.294790000000000108e-01 7.746785000000000032e+00 1.336910000000000025e+02 1.437735000000000127e+03
1.489999999999999936e-01 6.295010000000000883e-01 7.692880000000000607e+00 1.337810000000000059e+02 1.437750000000000000e+03
1.499999999999999944e-01 6.295209999999999972e-01 7.648470000000000546e+00 1.338675000000000068e+02 1.437769999999999982e+03
1.509999999999999953e-01 6.295385000000000009e-01 7.609115000000000073e+00 1.339449999999999932e+02 1.437779999999999973e+03
1.519999999999999962e-01 6.295509999999999717e-01 7.570890000000000342e+00 1.340065000000000168e+02 1.437795000000000073e+03
1.529999999999999971e-01 6.295585000000000209e-01 7.530454999999999899e+00 1.340484999999999900e+02 1.437799999999999955e+03
1.539999999999999980e-01 6.295589999999999797e-01 7.485075000000000145e+00 1.340679999999999836e+02 1.437804999999999836e+03
1.549999999999999989e-01 6.295534999999999881e-01 7.432629999999999626e+00 1.340625000000000000e+02 1.437799999999999955e+03
1.559999999999999998e-01 6.295410000000000172e-01 7.371615000000000251e+00 1.340314999999999941e+02 1.437795000000000073e+03
1.570000000000000007e-01 6.295219999999999150e-01 7.301104999999999734e+00 1.339755000000000109e+02 1.437779999999999973e+03
1.580000000000000016e-01 6.294960000000000555e-01 7.220689999999999387e+00 1.338944999999999936e+02 1.437759999999999991e+03
1.590000000000000024e-01 6.294650000000000523e-01 7.130464999999999165e+00 1.337914999999999850e+02 1.437730000000000018e+03
