# t [s], A [cm^2], U [cm/s], P [cPa], c [cm/s]
1.000000000000000021e-03 1.644284999999999775e-01 4.334135000000000071e-01 9.184319999999999595e+01 1.796179999999999836e+03
2.000000000000000042e-03 1.643924999999999970e-01 2.058701000000000114e+00 8.862319999999999709e+01 1.795894999999999982e+03
3.000000000000000062e-03 1.642754999999999910e-01 3.981282999999999905e+00 8.453315000000000623e+01 1.795009999999999991e+03
4.000000000000000083e-03 1.641064999999999885e-01 6.088423500000000210e+00 8.024334999999999241e+01 1.793755000000000109e+03
5.000000000000000104e-03 1.639165000000000205e-01 8.322089999999999321e+00 7.646134999999999593e+01 1.792349999999999909e+03
6.000000000000000125e-03 1.637274999999999980e-01 1.054495499999999986e+01 7.340579999999999927e+01 1.790964999999999918e+03
7.000000000000000146e-03 1.635464999999999836e-01 1.258995999999999960e+01 7.088245000000000573e+01 1.789654999999999973e+03
8.000000000000000167e-03 1.633764999999999801e-01 1.437243000000000137e+01 6.865680000000000405e+01 1.788444999999999936e+03
9.000000000000001055e-03 1.632210000000000050e-01 1.590654999999999930e+01 6.669194999999999141e+01 1.787355000000000018e+03
1.000000000000000194e-02 1.630845000000000211e-01 1.722475000000000023e+01 6.503494999999999493e+01 1.786400000000000091e+03
1.099999999999999936e-02 1.629665000000000141e-01 1.833755000000000024e+01 6.367114999999999725e+01 1.785585000000000036e+03
1.200000000000000025e-02 1.628654999999999964e-01 1.925150000000000006e+01 6.254385000000000616e+01 1.784894999999999982e+03
1.300000000000000114e-02 1.627810000000000090e-01 1.997769999999999868e+01 6.160094999999999743e+01 1.784324999999999818e+03
1.400000000000000203e-02 1.627089999999999925e-01 2.052795000000000059e+01 6.079269999999999641e+01 1.783849999999999909e+03
1.499999999999999944e-02 1.626485000000000014e-01 2.092385000000000161e+01 6.008310000000000173e+01 1.783449999999999818e+03
1.600000000000000033e-02 1.625975000000000059e-01 2.121730000000000160e+01 5.950400000000000489e+01 1.783119999999999891e+03
1.700000000000000122e-02 1.625594999999999957e-01 2.149394999999999811e+01 5.919025000000000603e+01 1.782880000000000109e+03
1.800000000000000211e-02 1.625379999999999880e-01 2.184874999999999901e+01 5.934024999999999750e+01 1.782750000000000000e+03
1.900000000000000300e-02 1.625400000000000178e-01 2.234580000000000055e+01 6.011374999999999602e+01 1.782780000000000200e+03
2.000000000000000042e-02 1.625679999999999903e-01 2.298870000000000147e+01 6.153189999999999316e+01 1.782980000000000018e+03
2.100000000000000130e-02 1.626205000000000012e-01 2.371625000000000227e+01 6.343644999999999357e+01 1.783345000000000027e+03
2.200000000000000219e-02 1.626900000000000013e-01 2.442334999999999923e+01 6.552504999999999313e+01 1.783835000000000036e+03
2.299999999999999961e-02 1.627664999999999806e-01 2.499494999999999933e+01 6.743954999999999700e+01 1.784369999999999891e+03
2.400000000000000050e-02 1.628379999999999828e-01 2.533975000000000222e+01 6.886860000000000070e+01 1.784880000000000109e+03
2.500000000000000139e-02 1.628955000000000264e-01 2.541280000000000072e+01 6.962680000000000291e+01 1.785289999999999964e+03
2.600000000000000228e-02 1.629319999999999935e-01 2.522155000000000058e+01 6.968909999999999627e+01 1.785559999999999945e+03
2.700000000000000316e-02 1.629464999999999941e-01 2.481595000000000084e+01 6.917449999999999477e+01 1.785680000000000064e+03
2.800000000000000058e-02 1.629420000000000035e-01 2.426834999999999809e+01 6.829165000000000418e+01 1.785670000000000073e+03
2.900000000000000147e-02 1.629244999999999999e-01 2.365084999999999837e+01 6.726800000000000068e+01 1.785559999999999945e+03
3.000000000000000236e-02 1.628999999999999893e-01 2.301735000000000042e+01 6.628704999999999359e+01 1.785400000000000091e+03
3.099999999999999978e-02 1.628725000000000034e-01 2.239504999999999768e+01 6.545085000000000264e+01 1.785214999999999918e+03
3.200000000000000067e-02 1.628465000000000051e-01 2.178559999999999874e+01 6.477384999999999593e+01 1.785034999999999854e+03
3.300000000000000155e-02 1.628219999999999945e-01 2.117389999999999972e+01 6.420369999999999777e+01 1.784869999999999891e+03
3.400000000000000244e-02 1.627985000000000126e-01 2.054009999999999891e+01 6.365760000000000218e+01 1.784710000000000036e+03
3.500000000000000333e-02 1.627735000000000154e-01 1.987199999999999989e+01 6.306190000000000140e+01 1.784534999999999854e+03
3.600000000000000422e-02 1.627460000000000018e-01 1.917300000000000182e+01 6.238285000000000480e+01 1.784355000000000018e+03
3.700000000000000511e-02 1.627164999999999861e-01 1.846549999999999869e+01 6.164300000000000068e+01 1.784154999999999973e+03
3.799999999999999906e-02 1.626849999999999963e-01 1.778800000000000026e+01 6.091899999999999693e+01 1.783940000000000055e+03
3.899999999999999994e-02 1.626555000000000084e-01 1.718775000000000119e+01 6.032394999999999641e+01 1.783740000000000009e+03
4.000000000000000083e-02 1.626319999999999988e-01 1.671045000000000158e+01 5.997874999999999801e+01 1.783569999999999936e+03
4.100000000000000172e-02 1.626179999999999848e-01 1.638984999999999914e+01 5.998109999999999786e+01 1.783470000000000027e+03
4.200000000000000261e-02 1.626164999999999972e-01 1.623969999999999914e+01 6.037939999999999685e+01 1.783454999999999927e+03
4.300000000000000350e-02 1.626299999999999968e-01 1.624980000000000047e+01 6.115789999999999793e+01 1.783534999999999854e+03
4.400000000000000439e-02 1.626565000000000094e-01 1.638665000000000305e+01 6.223530000000000229e+01 1.783715000000000146e+03
4.499999999999999833e-02 1.626949999999999785e-01 1.659815000000000040e+01 6.347690000000000055e+01 1.783970000000000027e+03
4.599999999999999922e-02 1.627394999999999814e-01 1.682155000000000200e+01 6.471564999999999657e+01 1.784275000000000091e+03
4.700000000000000011e-02 1.627844999999999986e-01 1.699145000000000039e+01 6.577694999999999936e+01 1.784579999999999927e+03
4.800000000000000100e-02 1.628249999999999975e-01 1.704830000000000112e+01 6.650329999999999586e+01 1.784855000000000018e+03
4.900000000000000189e-02 1.628539999999999988e-01 1.694425000000000026e+01 6.677285000000000537e+01 1.785054999999999836e+03
5.000000000000000278e-02 1.628665000000000251e-01 1.664720000000000155e+01 6.651089999999999236e+01 1.785144999999999982e+03
5.100000000000000366e-02 1.628604999999999914e-01 1.614195000000000135e+01 6.569315000000000282e+01 1.785110000000000127e+03
5.200000000000000455e-02 1.628330000000000055e-01 1.542950000000000088e+01 6.434174999999999045e+01 1.784925000000000182e+03
5.300000000000000544e-02 1.627844999999999986e-01 1.452430000000000021e+01 6.251660000000000394e+01 1.784599999999999909e+03
5.399999999999999939e-02 1.627164999999999861e-01 1.345170000000000066e+01 6.030355000000000132e+01 1.784134999999999991e+03
5.500000000000000028e-02 1.626325000000000132e-01 1.224446999999999974e+01 5.780344999999999800e+01 1.783555000000000064e+03
5.600000000000000117e-02 1.625334999999999974e-01 1.093976499999999952e+01 5.512234999999999729e+01 1.782880000000000109e+03
5.700000000000000205e-02 1.624249999999999861e-01 9.577549999999998676e+00 5.236454999999999416e+01 1.782130000000000109e+03
5.800000000000000294e-02 1.623104999999999964e-01 8.198560000000000514e+00 4.962855000000000416e+01 1.781344999999999800e+03
5.900000000000000383e-02 1.621940000000000048e-01 6.843894999999999840e+00 4.700554999999999950e+01 1.780539999999999964e+03
6.000000000000000472e-02 1.620794999999999875e-01 5.554249999999999687e+00 4.457980000000000587e+01 1.779744999999999891e+03
6.099999999999999867e-02 1.619705000000000172e-01 4.369480000000000253e+00 4.242905000000000371e+01 1.778994999999999891e+03
6.199999999999999956e-02 1.618705000000000005e-01 3.328171000000000213e+00 4.062555000000000405e+01 1.778299999999999955e+03
6.300000000000000044e-02 1.617834999999999968e-01 2.466859799999999936e+00 3.923590000000000089e+01 1.777690000000000055e+03
6.400000000000000133e-02 1.617115000000000080e-01 1.819074450000000009e+00 3.832005000000000194e+01 1.777194999999999936e+03
6.500000000000000222e-02 1.616589999999999971e-01 1.414127000000000134e+00 3.792985000000000184e+01 1.776824999999999818e+03
6.600000000000000311e-02 1.616279999999999939e-01 1.275867000000000084e+00 3.810614999999999952e+01 1.776595000000000027e+03
6.700000000000000400e-02 1.616194999999999993e-01 1.421475000000000044e+00 3.887654999999999461e+01 1.776525000000000091e+03
6.800000000000000488e-02 1.616369999999999751e-01 1.860445000000000126e+00 4.025284999999999513e+01 1.776625000000000000e+03
6.900000000000000577e-02 1.616795000000000038e-01 2.593960000000000043e+00 4.222975000000000279e+01 1.776905000000000200e+03
7.000000000000000666e-02 1.617480000000000029e-01 3.614675000000000082e+00 4.478399999999999892e+01 1.777365000000000009e+03
7.100000000000000755e-02 1.618425000000000002e-01 4.907024999999999970e+00 4.787529999999999575e+01 1.778005000000000109e+03
7.200000000000000844e-02 1.619615000000000082e-01 6.447930000000000383e+00 5.144799999999999329e+01 1.778809999999999945e+03
7.300000000000000933e-02 1.621024999999999827e-01 8.207920000000001437e+00 5.543404999999999916e+01 1.779764999999999873e+03
7.399999999999999634e-02 1.622640000000000193e-01 1.015263999999999989e+01 5.975625000000000142e+01 1.780869999999999891e+03
7.499999999999999722e-02 1.624424999999999897e-01 1.224423999999999957e+01 6.433249999999999602e+01 1.782095000000000027e+03
7.599999999999999811e-02 1.626345000000000152e-01 1.444315499999999908e+01 6.907945000000000846e+01 1.783414999999999964e+03
7.699999999999999900e-02 1.628370000000000095e-01 1.670974999999999966e+01 7.391630000000000678e+01 1.784815000000000055e+03
7.799999999999999989e-02 1.630469999999999975e-01 1.900564999999999927e+01 7.876834999999999809e+01 1.786269999999999982e+03
7.900000000000000078e-02 1.632609999999999895e-01 2.129520000000000124e+01 8.356919999999999504e+01 1.787759999999999991e+03
8.000000000000000167e-02 1.634760000000000102e-01 2.354654999999999987e+01 8.826349999999999341e+01 1.789259999999999991e+03
8.100000000000000255e-02 1.636890000000000012e-01 2.573254999999999981e+01 9.280774999999999864e+01 1.790750000000000000e+03
8.200000000000000344e-02 1.638990000000000169e-01 2.783155000000000001e+01 9.717199999999999704e+01 1.792220000000000027e+03
8.300000000000000433e-02 1.641029999999999989e-01 2.982764999999999844e+01 1.013388999999999953e+02 1.793655000000000200e+03
8.400000000000000522e-02 1.643014999999999892e-01 3.171055000000000135e+01 1.053041499999999928e+02 1.795055000000000064e+03
8.500000000000000611e-02 1.644919999999999993e-01 3.347569999999999624e+01 1.090739999999999981e+02 1.796400000000000091e+03
8.600000000000000699e-02 1.646759999999999891e-01 3.512385000000000446e+01 1.126655000000000086e+02 1.797704999999999927e+03
8.700000000000000788e-02 1.648525000000000129e-01 3.665999999999999659e+01 1.161024999999999920e+02 1.798960000000000036e+03
8.800000000000000877e-02 1.650230000000000030e-01 3.809255000000000280e+01 1.194150000000000063e+02 1.800175000000000182e+03
8.899999999999999578e-02 1.651885000000000159e-01 3.943269999999999698e+01 1.226345000000000027e+02 1.801355000000000018e+03
8.999999999999999667e-02 1.653489999999999960e-01 4.069270000000000209e+01 1.257924999999999898e+02 1.802500000000000000e+03
9.099999999999999756e-02 1.655070000000000152e-01 4.188519999999999754e+01 1.289184999999999945e+02 1.803630000000000109e+03
9.199999999999999845e-02 1.656630000000000047e-01 4.302224999999999966e+01 1.320374999999999943e+02 1.804744999999999891e+03
9.299999999999999933e-02 1.658175000000000066e-01 4.411404999999999887e+01 1.351664999999999850e+02 1.805845000000000027e+03
9.400000000000000022e-02 1.659714999999999940e-01 4.516864999999999952e+01 1.383185000000000002e+02 1.806954999999999927e+03
9.500000000000000111e-02 1.661259999999999959e-01 4.619134999999999991e+01 1.414954999999999927e+02 1.808059999999999945e+03
9.600000000000000200e-02 1.662810000000000121e-01 4.718410000000000082e+01 1.446920000000000073e+02 1.809164999999999964e+03
9.700000000000000289e-02 1.664360000000000006e-01 4.814609999999999701e+01 1.478960000000000150e+02 1.810279999999999973e+03
9.800000000000000377e-02 1.665909999999999891e-01 4.907330000000000325e+01 1.510875000000000057e+02 1.811389999999999873e+03
9.900000000000000466e-02 1.667454999999999909e-01 4.995909999999999940e+01 1.542415000000000020e+02 1.812500000000000000e+03
1.000000000000000056e-01 1.668979999999999908e-01 5.079470000000000596e+01 1.573294999999999959e+02 1.813595000000000027e+03
1.010000000000000064e-01 1.670480000000000020e-01 5.156974999999999909e+01 1.603189999999999884e+02 1.814670000000000073e+03
1.020000000000000073e-01 1.671940000000000093e-01 5.227270000000000039e+01 1.631779999999999973e+02 1.815715000000000146e+03
1.030000000000000082e-01 1.673340000000000105e-01 5.289189999999999969e+01 1.658739999999999952e+02 1.816730000000000018e+03
1.040000000000000091e-01 1.674680000000000057e-01 5.341584999999999894e+01 1.683779999999999859e+02 1.817690000000000055e+03
1.050000000000000100e-01 1.675929999999999920e-01 5.383395000000000152e+01 1.706630000000000109e+02 1.818599999999999909e+03
1.059999999999999970e-01 1.677099999999999980e-01 5.413705000000000211e+01 1.727069999999999936e+02 1.819440000000000055e+03
1.069999999999999979e-01 1.678160000000000207e-01 5.431770000000000209e+01 1.744934999999999832e+02 1.820215000000000146e+03
1.079999999999999988e-01 1.679114999999999913e-01 5.437075000000000102e+01 1.760099999999999909e+02 1.820909999999999854e+03
1.089999999999999997e-01 1.679955000000000198e-01 5.429330000000000211e+01 1.772509999999999764e+02 1.821519999999999982e+03
1.100000000000000006e-01 1.680665000000000076e-01 5.408530000000000371e+01 1.782169999999999845e+02 1.822045000000000073e+03
1.110000000000000014e-01 1.681265000000000120e-01 5.374895000000000067e+01 1.789134999999999991e+02 1.822485000000000127e+03
1.120000000000000023e-01 1.681735000000000035e-01 5.328924999999999557e+01 1.793520000000000039e+02 1.822829999999999927e+03
1.130000000000000032e-01 1.682089999999999974e-01 5.271354999999999791e+01 1.795475000000000136e+02 1.823095000000000027e+03
1.140000000000000041e-01 1.682335000000000080e-01 5.203125000000000000e+01 1.795209999999999866e+02 1.823279999999999973e+03
1.150000000000000050e-01 1.682470000000000077e-01 5.125374999999999659e+01 1.792959999999999923e+02 1.823384999999999991e+03
1.160000000000000059e-01 1.682509999999999839e-01 5.039379999999999882e+01 1.788990000000000009e+02 1.823425000000000182e+03
1.170000000000000068e-01 1.682465000000000210e-01 4.946529999999999916e+01 1.783575000000000159e+02 1.823400000000000091e+03
1.180000000000000077e-01 1.682345000000000090e-01 4.848270000000000124e+01 1.776999999999999886e+02 1.823324999999999818e+03
1.190000000000000085e-01 1.682155000000000178e-01 4.746070000000000277e+01 1.769544999999999959e+02 1.823195000000000164e+03
1.200000000000000094e-01 1.681914999999999938e-01 4.641369999999999862e+01 1.761485000000000127e+02 1.823025000000000091e+03
1.209999999999999964e-01 1.681635000000000213e-01 4.535524999999999807e+01 1.753079999999999927e+02 1.822829999999999927e+03
1.219999999999999973e-01 1.681325000000000180e-01 4.429789999999999850e+01 1.744540000000000077e+02 1.822615000000000009e+03
1.229999999999999982e-01 1.680999999999999994e-01 4.325284999999999513e+01 1.736064999999999827e+02 1.822375000000000000e+03
1.239999999999999991e-01 1.680659999999999932e-01 4.222955000000000325e+01 1.727810000000000059e+02 1.822135000000000218e+03
1.250000000000000000e-01 1.680320000000000147e-01 4.123550000000000182e+01 1.719900000000000091e+02 1.821894999999999982e+03
1.260000000000000009e-01 1.679979999999999807e-01 4.027620000000000289e+01 1.712395000000000209e+02 1.821644999999999982e+03
1.270000000000000018e-01 1.679654999999999898e-01 3.935514999999999475e+01 1.705335000000000036e+02 1.821410000000000082e+03
1.280000000000000027e-01 1.679335000000000133e-01 3.847379999999999711e+01 1.698720000000000141e+02 1.821180000000000064e+03
1.290000000000000036e-01 1.679030000000000244e-01 3.763174999999999670e+01 1.692504999999999882e+02 1.820954999999999927e+03
1.300000000000000044e-01 1.678729999999999944e-01 3.682680000000000575e+01 1.686614999999999895e+02 1.820739999999999782e+03
1.310000000000000053e-01 1.678450000000000220e-01 3.605509999999999593e+01 1.680939999999999941e+02 1.820534999999999854e+03
1.320000000000000062e-01 1.678175000000000083e-01 3.531165000000000020e+01 1.675384999999999991e+02 1.820329999999999927e+03
1.330000000000000071e-01 1.677899999999999947e-01 3.459055000000000035e+01 1.669789999999999850e+02 1.820130000000000109e+03
1.340000000000000080e-01 1.677629999999999955e-01 3.388510000000000133e+01 1.664035000000000082e+02 1.819934999999999945e+03
1.350000000000000089e-01 1.677345000000000086e-01 3.318840000000000146e+01 1.657959999999999923e+02 1.819724999999999909e+03
1.360000000000000098e-01 1.677055000000000073e-01 3.249354999999999905e+01 1.651440000000000055e+02 1.819510000000000218e+03
1.370000000000000107e-01 1.676739999999999897e-01 3.179380000000000095e+01 1.644354999999999905e+02 1.819289999999999964e+03
1.380000000000000115e-01 1.676409999999999845e-01 3.108324999999999960e+01 1.636585000000000036e+02 1.819045000000000073e+03
1.390000000000000124e-01 1.676044999999999896e-01 3.035660000000000025e+01 1.628059999999999832e+02 1.818784999999999854e+03
1.400000000000000133e-01 1.675655000000000061e-01 2.960979999999999990e+01 1.618710000000000093e+02 1.818505000000000109e+03
1.410000000000000142e-01 1.675230000000000052e-01 2.884004999999999797e+01 1.608509999999999991e+02 1.818195000000000164e+03
1.420000000000000151e-01 1.674775000000000014e-01 2.804589999999999961e+01 1.597459999999999809e+02 1.817869999999999891e+03
1.430000000000000160e-01 1.674275000000000069e-01 2.722735000000000127e+01 1.585595000000000141e+02 1.817514999999999873e+03
1.440000000000000169e-01 1.673744999999999816e-01 2.638585000000000136e+01 1.572975000000000136e+02 1.817130000000000109e+03
1.450000000000000178e-01 1.673180000000000223e-01 2.552434999999999832e+01 1.559685000000000059e+02 1.816724999999999909e+03
1.459999999999999909e-01 1.672580000000000178e-01 2.464710000000000178e+01 1.545850000000000080e+02 1.816299999999999955e+03
1.469999999999999918e-01 1.671960000000000113e-01 2.375959999999999894e+01 1.531605000000000132e+02 1.815860000000000127e+03
1.479999999999999927e-01 1.671320000000000028e-01 2.286814999999999998e+01 1.517104999999999961e+02 1.815394999999999982e+03
1.489999999999999936e-01 1.670659999999999923e-01 2.198010000000000019e+01 1.502524999999999977e+02 1.814924999999999955e+03
1.499999999999999944e-01 1.669990000000000085e-01 2.110310000000000130e+01 1.488025000000000091e+02 1.814450000000000045e+03
1.509999999999999953e-01 1.669324999999999837e-01 2.024490000000000123e+01 1.473795000000000073e+02 1.813974999999999909e+03
1.519999999999999962e-01 1.668665000000000009e-01 1.941349999999999909e+01 1.459995000000000118e+02 1.813500000000000000e+03
1.529999999999999971e-01 1.668014999999999914e-01 1.861629999999999896e+01 1.446779999999999973e+02 1.813039999999999964e+03
1.539999999999999980e-01 1.667389999999999983e-01 1.785999999999999943e+01 1.434295000000000186e+02 1.812585000000000036e+03
1.549999999999999989e-01 1.666789999999999938e-01 1.715074999999999861e+01 1.422659999999999911e+02 1.812155000000000200e+03
1.559999999999999998e-01 1.666225000000000067e-01 1.649330000000000140e+01 1.411965000000000146e+02 1.811750000000000000e+03
1.570000000000000007e-01 1.665694999999999815e-01 1.589150000000000063e+01 1.402264999999999873e+02 1.811365000000000009e+03
1.580000000000000016e-01 1.665200000000000014e-01 1.534774999999999956e+01 1.393615000000000066e+02 1.811009999999999991e+03
1.590000000000000024e-01 1.664749999999999841e-01 1.486315000000000097e+01 1.386014999999999873e+02 1.810690000000000055e+03
