# t [s], A [cm^2], U [cm/s], P [cPa], c [cm/s]
1.000000000000000021e-03 8.176124999999999643e-01 5.133550000000000613e-03 9.644929999999999382e+01 1.612505000000000109e+03
2.000000000000000042e-03 8.175980000000000469e-01 -2.947700000000000146e-03 9.642040000000000077e+01 1.612494999999999891e+03
3.000000000000000062e-03 8.176674999999999915e-01 9.271245000000000180e-02 9.652115000000000578e+01 1.612519999999999982e+03
4.000000000000000083e-03 8.177315000000000556e-01 1.919571999999999945e-01 9.664194999999999425e+01 1.612549999999999955e+03
5.000000000000000104e-03 8.176969999999998961e-01 1.685743499999999839e-01 9.658424999999999727e+01 1.612534999999999854e+03
6.000000000000000125e-03 8.176065000000000138e-01 6.684600000000001652e-02 9.635855000000000814e+01 1.612490000000000009e+03
7.000000000000000146e-03 8.175295000000000201e-01 -2.661249999999998339e-02 9.607654999999999745e+01 1.612430000000000064e+03
8.000000000000000167e-03 8.174120000000000275e-01 -1.878900000000000015e-01 9.566689999999999827e+01 1.612345000000000027e+03
9.000000000000001055e-03 8.172135000000000371e-01 -4.774700000000000610e-01 9.503395000000000437e+01 1.612204999999999927e+03
1.000000000000000194e-02 8.169334999999999791e-01 -8.947600000000001108e-01 9.413970000000000482e+01 1.612015000000000100e+03
1.099999999999999936e-02 8.165495000000000392e-01 -1.458459999999999868e+00 9.292275000000000773e+01 1.611750000000000000e+03
1.200000000000000025e-02 8.160439999999999916e-01 -2.176989999999999981e+00 9.132714999999998895e+01 1.611400000000000091e+03
1.300000000000000114e-02 8.154520000000000657e-01 -2.976665000000000116e+00 8.940194999999999936e+01 1.610965000000000146e+03
1.400000000000000203e-02 8.148625000000000451e-01 -3.705669999999999575e+00 8.732569999999999766e+01 1.610485000000000127e+03
1.499999999999999944e-02 8.143584999999999852e-01 -4.209016000000000091e+00 8.532564999999999600e+01 1.609994999999999891e+03
1.600000000000000033e-02 8.139809999999999546e-01 -4.398749500000000090e+00 8.357359999999999900e+01 1.609550000000000182e+03
1.700000000000000122e-02 8.137149999999999661e-01 -4.276161000000000101e+00 8.212850000000000250e+01 1.609150000000000091e+03
1.800000000000000211e-02 8.135069999999999801e-01 -3.912520000000000220e+00 8.093739999999999668e+01 1.608804999999999836e+03
1.900000000000000300e-02 8.132945000000000313e-01 -3.410625000000000018e+00 7.987524999999999409e+01 1.608480000000000018e+03
2.000000000000000042e-02 8.130254999999999566e-01 -2.864883999999999986e+00 7.880119999999999436e+01 1.608159999999999854e+03
2.100000000000000130e-02 8.126774999999999416e-01 -2.331863000000000241e+00 7.761015000000000441e+01 1.607815000000000055e+03
2.200000000000000219e-02 8.122599999999999820e-01 -1.819555000000000033e+00 7.626404999999999745e+01 1.607440000000000055e+03
2.299999999999999961e-02 8.118030000000000523e-01 -1.298110000000000097e+00 7.479259999999999309e+01 1.607034999999999854e+03
2.400000000000000050e-02 8.113434999999999953e-01 -7.254099999999998882e-01 7.326550000000000296e+01 1.606619999999999891e+03
2.500000000000000139e-02 8.109064999999999745e-01 -7.468000000000030170e-02 7.175345000000000084e+01 1.606204999999999927e+03
2.600000000000000228e-02 8.104945000000000066e-01 6.470050000000000523e-01 7.029325000000000045e+01 1.605795000000000073e+03
2.700000000000000316e-02 8.100890000000000590e-01 1.394050000000000011e+00 6.886939999999999884e+01 1.605389999999999873e+03
2.800000000000000058e-02 8.096529999999999561e-01 2.090304999999999858e+00 6.741389999999999816e+01 1.604980000000000018e+03
2.900000000000000147e-02 8.091455000000000730e-01 2.645834999999999937e+00 6.582280000000000086e+01 1.604549999999999955e+03
3.000000000000000236e-02 8.085284999999999833e-01 2.977804999999999591e+00 6.398354999999999393e+01 1.604065000000000055e+03
3.099999999999999978e-02 8.077820000000000000e-01 3.030460000000000154e+00 6.180704999999999671e+01 1.603505000000000109e+03
3.200000000000000067e-02 8.069074999999999998e-01 2.788924999999999876e+00 5.925469999999999970e+01 1.602875000000000000e+03
3.300000000000000155e-02 8.059309999999999530e-01 2.282904999999999962e+00 5.635375000000000512e+01 1.602159999999999854e+03
3.400000000000000244e-02 8.048975000000000435e-01 1.579064999999999941e+00 5.319610000000000127e+01 1.601389999999999873e+03
3.500000000000000333e-02 8.038625000000000353e-01 7.658449999999996649e-01 4.992199999999999704e+01 1.600590000000000146e+03
3.600000000000000422e-02 8.028794999999999682e-01 -6.411999999999995481e-02 4.669539999999999935e+01 1.599779999999999973e+03
3.700000000000000511e-02 8.019935000000000258e-01 -8.285799999999996501e-01 4.367844999999999800e+01 1.599014999999999873e+03
3.799999999999999906e-02 8.012394999999999934e-01 -1.464819999999999567e+00 4.101075000000000159e+01 1.598320000000000164e+03
3.899999999999999994e-02 8.006364999999999732e-01 -1.932654999999999568e+00 3.879690000000000083e+01 1.597715000000000146e+03
4.000000000000000083e-02 8.001920000000000144e-01 -2.212565000000000115e+00 3.710129999999999484e+01 1.597235000000000127e+03
4.100000000000000172e-02 7.999049999999999772e-01 -2.300581499999999835e+00 3.595145000000000124e+01 1.596880000000000109e+03
4.200000000000000261e-02 7.997680000000000344e-01 -2.201840500000000311e+00 3.534505000000000052e+01 1.596650000000000091e+03
4.300000000000000350e-02 7.997729999999999562e-01 -1.924520000000000008e+00 3.525985000000000014e+01 1.596554999999999836e+03
4.400000000000000439e-02 7.999095000000000510e-01 -1.475526499999999963e+00 3.566405000000000314e+01 1.596585000000000036e+03
4.499999999999999833e-02 8.001705000000000068e-01 -8.587150000000001171e-01 3.652275000000000205e+01 1.596730000000000018e+03
4.599999999999999922e-02 8.005489999999999551e-01 -7.564999999999999503e-02 3.780255000000000365e+01 1.596990000000000009e+03
4.700000000000000011e-02 8.010384999999999867e-01 8.718150000000002287e-01 3.947119999999999607e+01 1.597349999999999909e+03
4.800000000000000100e-02 8.016305000000000236e-01 1.978295000000000137e+00 4.149540000000000362e+01 1.597800000000000182e+03
4.900000000000000189e-02 8.023145000000000415e-01 3.232139999999999791e+00 4.383780000000000143e+01 1.598335000000000036e+03
5.000000000000000278e-02 8.030764999999999709e-01 4.613979999999999748e+00 4.645394999999999897e+01 1.598954999999999927e+03
5.100000000000000366e-02 8.038985000000000714e-01 6.096819999999999240e+00 4.929155000000000086e+01 1.599630000000000109e+03
5.200000000000000455e-02 8.047615000000000185e-01 7.647870000000000168e+00 5.229115000000000180e+01 1.600355000000000018e+03
5.300000000000000544e-02 8.056444999999999856e-01 9.230819999999999581e+00 5.538885000000000502e+01 1.601119999999999891e+03
5.399999999999999939e-02 8.065295000000000103e-01 1.080933999999999884e+01 5.852009999999999934e+01 1.601894999999999982e+03
5.500000000000000028e-02 8.073984999999999079e-01 1.234961500000000001e+01 6.162420000000000186e+01 1.602680000000000064e+03
5.600000000000000117e-02 8.082380000000000120e-01 1.382284999999999897e+01 6.464799999999999613e+01 1.603454999999999927e+03
5.700000000000000205e-02 8.090374999999999650e-01 1.520692999999999984e+01 6.754949999999999477e+01 1.604204999999999927e+03
5.800000000000000294e-02 8.097920000000000673e-01 1.648685000000000045e+01 7.029949999999999477e+01 1.604934999999999945e+03
5.900000000000000383e-02 8.104994999999999283e-01 1.765474999999999994e+01 7.288214999999999577e+01 1.605619999999999891e+03
6.000000000000000472e-02 8.111610000000000209e-01 1.870909999999999940e+01 7.529460000000000264e+01 1.606275000000000091e+03
6.099999999999999867e-02 8.117814999999999337e-01 1.965359999999999729e+01 7.754489999999999839e+01 1.606885000000000218e+03
6.199999999999999956e-02 8.123670000000000613e-01 2.049604999999999677e+01 7.965035000000000309e+01 1.607470000000000027e+03
6.300000000000000044e-02 8.129254999999999676e-01 2.124694999999999823e+01 8.163470000000000937e+01 1.608019999999999982e+03
6.400000000000000133e-02 8.134639999999999649e-01 2.191884999999999906e+01 8.352575000000000216e+01 1.608550000000000182e+03
6.500000000000000222e-02 8.139920000000000488e-01 2.252494999999999692e+01 8.535285000000000366e+01 1.609054999999999836e+03
6.600000000000000311e-02 8.145164999999999766e-01 2.307825000000000060e+01 8.714470000000000027e+01 1.609549999999999955e+03
6.700000000000000400e-02 8.150439999999999907e-01 2.359090000000000131e+01 8.892685000000000173e+01 1.610039999999999964e+03
6.800000000000000488e-02 8.155790000000000539e-01 2.407290000000000063e+01 9.072044999999999959e+01 1.610529999999999973e+03
6.900000000000000577e-02 8.161255000000000592e-01 2.453190000000000026e+01 9.253989999999998872e+01 1.611025000000000091e+03
7.000000000000000666e-02 8.166830000000000478e-01 2.497240000000000038e+01 9.439240000000000919e+01 1.611529999999999973e+03
7.100000000000000755e-02 8.172500000000000320e-01 2.539555000000000007e+01 9.627715000000000600e+01 1.612034999999999854e+03
7.200000000000000844e-02 8.178239999999999954e-01 2.579935000000000045e+01 9.818545000000000300e+01 1.612539999999999964e+03
7.300000000000000933e-02 8.183975000000000000e-01 2.617875000000000085e+01 1.001017500000000098e+02 1.613059999999999945e+03
7.399999999999999634e-02 8.189649999999999430e-01 2.652644999999999698e+01 1.020037499999999966e+02 1.613565000000000055e+03
7.499999999999999722e-02 8.195175000000000098e-01 2.683360000000000056e+01 1.038670000000000044e+02 1.614075000000000045e+03
7.599999999999999811e-02 8.200469999999999704e-01 2.709069999999999823e+01 1.056624999999999943e+02 1.614559999999999945e+03
7.699999999999999900e-02 8.205454999999999277e-01 2.728820000000000334e+01 1.073629999999999995e+02 1.615025000000000091e+03
7.799999999999999989e-02 8.210055000000000547e-01 2.741729999999999734e+01 1.089405000000000001e+02 1.615460000000000036e+03
7.900000000000000078e-02 8.214215000000000266e-01 2.747064999999999912e+01 1.103725000000000023e+02 1.615860000000000127e+03
8.000000000000000167e-02 8.217875000000000041e-01 2.744250000000000256e+01 1.116384999999999934e+02 1.616224999999999909e+03
8.100000000000000255e-02 8.221009999999999707e-01 2.732925000000000182e+01 1.127235000000000014e+02 1.616539999999999964e+03
8.200000000000000344e-02 8.223584999999999923e-01 2.712955000000000183e+01 1.136195000000000022e+02 1.616809999999999945e+03
8.300000000000000433e-02 8.225614999999999455e-01 2.684430000000000049e+01 1.143215000000000003e+02 1.617029999999999973e+03
8.400000000000000522e-02 8.227094999999999825e-01 2.647664999999999935e+01 1.148329999999999984e+02 1.617204999999999927e+03
8.500000000000000611e-02 8.228064999999999962e-01 2.603190000000000026e+01 1.151599999999999966e+02 1.617329999999999927e+03
8.600000000000000699e-02 8.228550000000000031e-01 2.551729999999999876e+01 1.153149999999999977e+02 1.617410000000000082e+03
8.700000000000000788e-02 8.228610000000000646e-01 2.494205000000000183e+01 1.153139999999999930e+02 1.617440000000000055e+03
8.800000000000000877e-02 8.228299999999999503e-01 2.431649999999999778e+01 1.151760000000000019e+02 1.617440000000000055e+03
8.899999999999999578e-02 8.227679999999999438e-01 2.365220000000000056e+01 1.149244999999999948e+02 1.617404999999999973e+03
8.999999999999999667e-02 8.226820000000000244e-01 2.296134999999999948e+01 1.145815000000000055e+02 1.617344999999999800e+03
9.099999999999999756e-02 8.225795000000000190e-01 2.225629999999999953e+01 1.141719999999999970e+02 1.617259999999999991e+03
9.199999999999999845e-02 8.224660000000000304e-01 2.154899999999999949e+01 1.137199999999999989e+02 1.617164999999999964e+03
9.299999999999999933e-02 8.223485000000000378e-01 2.085060000000000002e+01 1.132469999999999999e+02 1.617054999999999836e+03
9.400000000000000022e-02 8.222320000000000739e-01 2.017099999999999937e+01 1.127750000000000057e+02 1.616940000000000055e+03
9.500000000000000111e-02 8.221209999999999907e-01 1.951839999999999975e+01 1.123199999999999932e+02 1.616825000000000045e+03
9.600000000000000200e-02 8.220190000000000552e-01 1.889884999999999948e+01 1.118960000000000008e+02 1.616715000000000146e+03
9.700000000000000289e-02 8.219279999999999919e-01 1.831640000000000157e+01 1.115120000000000005e+02 1.616619999999999891e+03
9.800000000000000377e-02 8.218490000000000517e-01 1.777270000000000039e+01 1.111734999999999900e+02 1.616525000000000091e+03
9.900000000000000466e-02 8.217805000000000248e-01 1.726725000000000065e+01 1.108820000000000050e+02 1.616440000000000055e+03
1.000000000000000056e-01 8.217229999999999812e-01 1.679735000000000156e+01 1.106334999999999980e+02 1.616369999999999891e+03
1.010000000000000064e-01 8.216734999999999456e-01 1.635865000000000080e+01 1.104209999999999923e+02 1.616299999999999955e+03
1.020000000000000073e-01 8.216284999999999838e-01 1.594524999999999970e+01 1.102355000000000018e+02 1.616250000000000000e+03
1.030000000000000082e-01 8.215839999999999810e-01 1.555020000000000024e+01 1.100649999999999977e+02 1.616194999999999936e+03
1.040000000000000091e-01 8.215369999999999617e-01 1.516574999999999918e+01 1.098949999999999960e+02 1.616144999999999982e+03
1.050000000000000100e-01 8.214835000000000331e-01 1.478399999999999892e+01 1.097129999999999939e+02 1.616085000000000036e+03
1.059999999999999970e-01 8.214194999999999691e-01 1.439714999999999989e+01 1.095040000000000049e+02 1.616029999999999973e+03
1.069999999999999979e-01 8.213409999999999878e-01 1.399804999999999922e+01 1.092560000000000002e+02 1.615965000000000146e+03
1.079999999999999988e-01 8.212460000000000315e-01 1.358040000000000092e+01 1.089565000000000055e+02 1.615889999999999873e+03
1.089999999999999997e-01 8.211319999999999730e-01 1.313898999999999972e+01 1.085980000000000132e+02 1.615795000000000073e+03
1.100000000000000006e-01 8.209980000000000055e-01 1.267051499999999997e+01 1.081735000000000042e+02 1.615690000000000055e+03
1.110000000000000014e-01 8.208440000000000181e-01 1.217304000000000030e+01 1.076804999999999950e+02 1.615565000000000055e+03
1.120000000000000023e-01 8.206705000000000805e-01 1.164669500000000113e+01 1.071204999999999927e+02 1.615429999999999836e+03
1.130000000000000032e-01 8.204795000000000282e-01 1.109340500000000063e+01 1.064959999999999951e+02 1.615275000000000091e+03
1.140000000000000041e-01 8.202730000000000299e-01 1.051692500000000052e+01 1.058170000000000073e+02 1.615109999999999900e+03
1.150000000000000050e-01 8.200555000000000483e-01 9.922724999999999795e+00 1.050925000000000011e+02 1.614924999999999955e+03
1.160000000000000059e-01 8.198309999999999764e-01 9.317674999999999486e+00 1.043362500000000068e+02 1.614734999999999900e+03
1.170000000000000068e-01 8.196039999999999992e-01 8.709810000000000940e+00 1.035646999999999878e+02 1.614539999999999964e+03
1.180000000000000077e-01 8.193799999999999972e-01 8.107924999999999827e+00 1.027939499999999953e+02 1.614340000000000146e+03
1.190000000000000085e-01 8.191644999999999621e-01 7.521275000000000155e+00 1.020429500000000047e+02 1.614144999999999982e+03
1.200000000000000094e-01 8.189619999999999678e-01 6.958924999999999805e+00 1.013282000000000096e+02 1.613960000000000036e+03
1.209999999999999964e-01 8.187770000000000881e-01 6.429714999999999847e+00 1.006673499999999990e+02 1.613784999999999854e+03
1.219999999999999973e-01 8.186139999999999528e-01 5.941469999999999807e+00 1.000752500000000111e+02 1.613625000000000000e+03
1.229999999999999982e-01 8.184759999999999813e-01 5.500960000000000072e+00 9.956425000000000125e+01 1.613480000000000018e+03
1.239999999999999991e-01 8.183664999999999967e-01 5.113464999999999705e+00 9.914555000000000007e+01 1.613359999999999900e+03
1.250000000000000000e-01 8.182849999999999291e-01 4.782644999999999591e+00 9.882450000000000045e+01 1.613259999999999991e+03
1.260000000000000009e-01 8.182335000000000580e-01 4.510394999999999932e+00 9.860479999999999734e+01 1.613184999999999945e+03
1.270000000000000018e-01 8.182110000000000216e-01 4.296834999999999738e+00 9.848659999999999570e+01 1.613139999999999873e+03
1.280000000000000027e-01 8.182149999999999146e-01 4.140369999999999884e+00 9.846630000000000393e+01 1.613115000000000009e+03
1.290000000000000036e-01 8.182450000000000001e-01 4.037849999999999717e+00 9.853700000000000614e+01 1.613115000000000009e+03
1.300000000000000044e-01 8.182970000000000521e-01 3.984759999999999636e+00 9.868944999999999368e+01 1.613134999999999991e+03
1.310000000000000053e-01 8.183670000000000666e-01 3.975480000000000125e+00 9.891254999999999598e+01 1.613180000000000064e+03
1.320000000000000062e-01 8.184529999999999861e-01 4.003594999999999793e+00 9.919335000000000946e+01 1.613235000000000127e+03
1.330000000000000071e-01 8.185489999999999711e-01 4.062165000000000248e+00 9.951850000000000307e+01 1.613305000000000064e+03
1.340000000000000080e-01 8.186515000000000875e-01 4.144029999999999880e+00 9.987340000000000373e+01 1.613384999999999991e+03
1.350000000000000089e-01 8.187575000000000269e-01 4.242090000000000138e+00 1.002454999999999927e+02 1.613470000000000027e+03
1.360000000000000098e-01 8.188630000000000075e-01 4.349544999999999995e+00 1.006218999999999966e+02 1.613559999999999945e+03
1.370000000000000107e-01 8.189655000000000129e-01 4.460084999999999411e+00 1.009907500000000056e+02 1.613650000000000091e+03
1.380000000000000115e-01 8.190619999999999568e-01 4.568075000000000330e+00 1.013425000000000011e+02 1.613735000000000127e+03
1.390000000000000124e-01 8.191509999999999625e-01 4.668670000000000542e+00 1.016690000000000111e+02 1.613819999999999936e+03
1.400000000000000133e-01 8.192300000000000137e-01 4.757900000000000240e+00 1.019639999999999986e+02 1.613894999999999982e+03
1.410000000000000142e-01 8.192984999999999296e-01 4.832699999999999996e+00 1.022239999999999895e+02 1.613964999999999918e+03
1.420000000000000151e-01 8.193565000000000431e-01 4.890945000000000320e+00 1.024455000000000098e+02 1.614025000000000091e+03
1.430000000000000160e-01 8.194034999999999513e-01 4.931395000000000195e+00 1.026280000000000001e+02 1.614079999999999927e+03
1.440000000000000169e-01 8.194405000000000161e-01 4.953694999999999737e+00 1.027729999999999961e+02 1.614119999999999891e+03
1.450000000000000178e-01 8.194675000000000153e-01 4.958235000000000170e+00 1.028824999999999932e+02 1.614154999999999973e+03
1.459999999999999909e-01 8.194869999999999655e-01 4.946139999999999759e+00 1.029590000000000032e+02 1.614184999999999945e+03
1.469999999999999918e-01 8.194985000000000186e-01 4.919084999999999930e+00 1.030084999999999980e+02 1.614204999999999927e+03
1.479999999999999927e-01 8.195045000000000801e-01 4.879210000000000491e+00 1.030349999999999966e+02 1.614215000000000146e+03
1.489999999999999936e-01 8.195069999999999855e-01 4.828995000000000815e+00 1.030434999999999945e+02 1.614224999999999909e+03
1.499999999999999944e-01 8.195064999999999156e-01 4.771090000000000053e+00 1.030390000000000015e+02 1.614230000000000018e+03
1.509999999999999953e-01 8.195045000000000801e-01 4.708209999999999340e+00 1.030275000000000034e+02 1.614230000000000018e+03
1.519999999999999962e-01 8.195025000000000226e-01 4.642970000000000041e+00 1.030134999999999934e+02 1.614230000000000018e+03
1.529999999999999971e-01 8.195025000000000226e-01 4.577790000000000248e+00 1.030004999999999882e+02 1.614230000000000018e+03
1.539999999999999980e-01 8.195034999999999403e-01 4.514784999999999826e+00 1.029925000000000068e+02 1.614230000000000018e+03
1.549999999999999989e-01 8.195075000000000554e-01 4.455659999999999954e+00 1.029915000000000020e+02 1.614235000000000127e+03
1.559999999999999998e-01 8.195140000000000757e-01 4.401690000000000325e+00 1.029985000000000070e+02 1.614235000000000127e+03
1.570000000000000007e-01 8.195230000000000015e-01 4.353674999999999962e+00 1.030150000000000006e+02 1.614240000000000009e+03
1.580000000000000016e-01 8.195345000000000546e-01 4.311939999999999884e+00 1.030395000000000039e+02 1.614250000000000000e+03
1.590000000000000024e-01 8.195479999999999432e-01 4.276374999999999815e+00 1.030720000000000027e+02 1.614255000000000109e+03
