# t [s], A [cm^2], U [cm/s], P [cPa], c [cm/s]
1.000000000000000021e-03 2.130704999999999960e-01 4.185024999999999995e-01 9.691835000000000377e+01 2.283100000000000364e+03
2.000000000000000042e-03 2.129874999999999963e-01 2.109355499999999939e+00 9.273024999999999807e+01 2.282534999999999854e+03
3.000000000000000062e-03 2.128039999999999932e-01 4.190760000000000041e+00 8.694364999999999100e+01 2.281309999999999945e+03
4.000000000000000083e-03 2.125779999999999892e-01 6.561644999999999506e+00 8.115415000000000134e+01 2.279829999999999927e+03
5.000000000000000104e-03 2.123565000000000036e-01 9.058135000000000048e+00 7.646475000000000932e+01 2.278394999999999982e+03
6.000000000000000125e-03 2.121540000000000092e-01 1.132304500000000047e+01 7.270125000000000171e+01 2.277095000000000255e+03
7.000000000000000146e-03 2.119689999999999908e-01 1.314554499999999848e+01 6.930805000000000859e+01 2.275949999999999818e+03
8.000000000000000167e-03 2.118099999999999983e-01 1.459454999999999814e+01 6.637154999999999916e+01 2.274975000000000364e+03
9.000000000000001055e-03 2.116804999999999937e-01 1.573404999999999987e+01 6.406020000000000891e+01 2.274194999999999709e+03
1.000000000000000194e-02 2.115799999999999903e-01 1.659134999999999849e+01 6.232099999999999795e+01 2.273595000000000255e+03
1.099999999999999936e-02 2.115049999999999986e-01 1.720224999999999937e+01 6.107375000000000398e+01 2.273149999999999636e+03
1.200000000000000025e-02 2.114485000000000114e-01 1.756925000000000026e+01 6.013710000000000377e+01 2.272829999999999927e+03
1.300000000000000114e-02 2.114034999999999942e-01 1.772370000000000090e+01 5.932505000000000450e+01 2.272579999999999927e+03
1.400000000000000203e-02 2.113724999999999909e-01 1.784255000000000280e+01 5.885360000000000014e+01 2.272409999999999854e+03
1.499999999999999944e-02 2.113734999999999919e-01 1.820629999999999882e+01 5.941030000000000655e+01 2.272425000000000182e+03
1.600000000000000033e-02 2.114254999999999884e-01 1.900220000000000198e+01 6.162740000000000151e+01 2.272739999999999782e+03
1.700000000000000122e-02 2.115309999999999968e-01 2.016454999999999842e+01 6.545449999999999591e+01 2.273380000000000109e+03
1.800000000000000211e-02 2.116719999999999990e-01 2.138520000000000110e+01 6.998930000000000007e+01 2.274239999999999782e+03
1.900000000000000300e-02 2.118114999999999859e-01 2.226899999999999835e+01 7.386289999999999623e+01 2.275104999999999563e+03
2.000000000000000042e-02 2.119105000000000016e-01 2.252560000000000073e+01 7.588929999999999154e+01 2.275744999999999891e+03
2.100000000000000130e-02 2.119465000000000099e-01 2.209495000000000076e+01 7.559774999999999068e+01 2.276005000000000109e+03
2.200000000000000219e-02 2.119194999999999829e-01 2.115030000000000143e+01 7.338519999999999754e+01 2.275875000000000000e+03
2.299999999999999961e-02 2.118479999999999808e-01 1.999150000000000205e+01 7.024535000000000196e+01 2.275460000000000036e+03
2.400000000000000050e-02 2.117629999999999790e-01 1.889620000000000033e+01 6.725560000000000116e+01 2.274934999999999945e+03
2.500000000000000139e-02 2.116870000000000140e-01 1.800704999999999956e+01 6.510705000000000098e+01 2.274465000000000146e+03
2.600000000000000228e-02 2.116319999999999868e-01 1.730255000000000010e+01 6.389195000000000846e+01 2.274114999999999782e+03
2.700000000000000316e-02 2.115934999999999899e-01 1.664495000000000147e+01 6.319240000000000634e+01 2.273869999999999891e+03
2.800000000000000058e-02 2.115575000000000094e-01 1.587165000000000070e+01 6.237530000000000285e+01 2.273644999999999982e+03
2.900000000000000147e-02 2.115084999999999882e-01 1.488700000000000045e+01 6.093824999999999648e+01 2.273345000000000255e+03
3.000000000000000236e-02 2.114395000000000024e-01 1.371884999999999977e+01 5.876860000000000639e+01 2.272934999999999945e+03
3.099999999999999978e-02 2.113559999999999883e-01 1.252134999999999998e+01 5.622039999999999793e+01 2.272425000000000182e+03
3.200000000000000067e-02 2.112740000000000173e-01 1.152227500000000049e+01 5.398574999999999591e+01 2.271920000000000073e+03
3.300000000000000155e-02 2.112155000000000005e-01 1.093797999999999959e+01 5.282059999999999889e+01 2.271545000000000073e+03
3.400000000000000244e-02 2.111999999999999988e-01 1.089300000000000068e+01 5.324469999999999459e+01 2.271425000000000182e+03
3.500000000000000333e-02 2.112364999999999937e-01 1.137460000000000093e+01 5.533870000000000289e+01 2.271625000000000000e+03
3.600000000000000422e-02 2.113204999999999945e-01 1.223579999999999934e+01 5.870595000000000141e+01 2.272114999999999782e+03
3.700000000000000511e-02 2.114344999999999974e-01 1.323754999999999882e+01 6.259080000000000155e+01 2.272800000000000182e+03
3.799999999999999906e-02 2.115535000000000054e-01 1.411079999999999934e+01 6.609074999999999989e+01 2.273524999999999636e+03
3.899999999999999994e-02 2.116494999999999904e-01 1.461720000000000041e+01 6.838174999999999670e+01 2.274125000000000000e+03
4.000000000000000083e-02 2.117005000000000137e-01 1.459185000000000088e+01 6.889225000000000421e+01 2.274460000000000036e+03
4.100000000000000172e-02 2.116914999999999769e-01 1.396255000000000024e+01 6.738779999999999859e+01 2.274425000000000182e+03
4.200000000000000261e-02 2.116184999999999872e-01 1.274553000000000047e+01 6.396305000000000263e+01 2.274000000000000000e+03
4.300000000000000350e-02 2.114854999999999929e-01 1.102377999999999858e+01 5.896165000000000589e+01 2.273204999999999927e+03
4.400000000000000439e-02 2.113045000000000062e-01 8.918680000000000163e+00 5.286110000000000042e+01 2.272105000000000018e+03
4.499999999999999833e-02 2.110889999999999989e-01 6.563925000000000232e+00 4.616164999999999452e+01 2.270789999999999964e+03
4.599999999999999922e-02 2.108545000000000003e-01 4.087060000000000137e+00 3.930764999999999532e+01 2.269355000000000018e+03
4.700000000000000011e-02 2.106140000000000234e-01 1.602089999999999792e+00 3.265214999999999890e+01 2.267869999999999891e+03
4.800000000000000100e-02 2.103800000000000114e-01 -7.905549999999998967e-01 2.646009999999999707e+01 2.266425000000000182e+03
4.900000000000000189e-02 2.101605000000000001e-01 -2.999469999999999636e+00 2.093464999999999776e+01 2.265064999999999600e+03
5.000000000000000278e-02 2.099644999999999984e-01 -4.937815000000000509e+00 1.624739999999999895e+01 2.263845000000000255e+03
5.100000000000000366e-02 2.097974999999999979e-01 -6.521739999999999426e+00 1.256080500000000022e+01 2.262804999999999836e+03
5.200000000000000455e-02 2.096684999999999799e-01 -7.672875000000000334e+00 1.003314999999999912e+01 2.261984999999999673e+03
5.300000000000000544e-02 2.095810000000000173e-01 -8.324289999999999523e+00 8.807850000000000179e+00 2.261420000000000073e+03
5.399999999999999939e-02 2.095414999999999917e-01 -8.428094999999999004e+00 8.991720000000000823e+00 2.261150000000000091e+03
5.500000000000000028e-02 2.095529999999999893e-01 -7.962445000000000661e+00 1.063149999999999906e+01 2.261190000000000055e+03
5.600000000000000117e-02 2.096160000000000245e-01 -6.935694999999999943e+00 1.369679999999999964e+01 2.261545000000000073e+03
5.700000000000000205e-02 2.097295000000000131e-01 -5.386759999999999771e+00 1.807424999999999926e+01 2.262215000000000146e+03
5.800000000000000294e-02 2.098885000000000056e-01 -3.381629000000000218e+00 2.357574999999999932e+01 2.263159999999999854e+03
5.900000000000000383e-02 2.100865000000000093e-01 -1.007105000000000139e+00 2.995655000000000001e+01 2.264355000000000018e+03
6.000000000000000472e-02 2.103145000000000153e-01 1.636709999999999887e+00 3.693909999999999627e+01 2.265744999999999891e+03
6.099999999999999867e-02 2.105635000000000145e-01 4.443808999999999898e+00 4.423700000000000188e+01 2.267269999999999982e+03
6.199999999999999956e-02 2.108240000000000114e-01 7.308835000000000193e+00 5.157484999999999786e+01 2.268869999999999891e+03
6.300000000000000044e-02 2.110865000000000102e-01 1.013241000000000014e+01 5.870435000000000514e+01 2.270489999999999782e+03
6.400000000000000133e-02 2.113420000000000021e-01 1.282596999999999987e+01 6.541495000000000459e+01 2.272079999999999927e+03
6.500000000000000222e-02 2.115835000000000077e-01 1.531589999999999918e+01 7.154335000000000377e+01 2.273585000000000036e+03
6.600000000000000311e-02 2.118055000000000077e-01 1.754704999999999870e+01 7.698015000000000896e+01 2.274980000000000018e+03
6.700000000000000400e-02 2.120044999999999846e-01 1.948600000000000065e+01 8.167535000000000878e+01 2.276234999999999673e+03
6.800000000000000488e-02 2.121795000000000209e-01 2.112229999999999919e+01 8.564039999999999964e+01 2.277340000000000146e+03
6.900000000000000577e-02 2.123299999999999910e-01 2.246839999999999904e+01 8.894544999999999391e+01 2.278300000000000182e+03
7.000000000000000666e-02 2.124590000000000090e-01 2.355685000000000073e+01 9.171110000000000184e+01 2.279125000000000000e+03
7.100000000000000755e-02 2.125715000000000243e-01 2.443630000000000280e+01 9.409465000000000146e+01 2.279840000000000146e+03
7.200000000000000844e-02 2.126715000000000133e-01 2.516550000000000153e+01 9.627259999999999707e+01 2.280484999999999673e+03
7.300000000000000933e-02 2.127654999999999963e-01 2.580680000000000263e+01 9.842175000000000296e+01 2.281090000000000146e+03
7.399999999999999634e-02 2.128594999999999793e-01 2.641995000000000005e+01 1.007001500000000078e+02 2.281679999999999836e+03
7.499999999999999722e-02 2.129575000000000218e-01 2.705630000000000024e+01 1.032344999999999970e+02 2.282304999999999836e+03
7.599999999999999811e-02 2.130644999999999900e-01 2.775484999999999758e+01 1.061075000000000017e+02 2.282980000000000018e+03
7.699999999999999900e-02 2.131824999999999970e-01 2.853974999999999795e+01 1.093545000000000016e+02 2.283720000000000255e+03
7.799999999999999989e-02 2.133125000000000160e-01 2.941870000000000118e+01 1.129615000000000009e+02 2.284529999999999745e+03
7.900000000000000078e-02 2.134535000000000182e-01 3.038414999999999822e+01 1.168739999999999952e+02 2.285409999999999854e+03
8.000000000000000167e-02 2.136039999999999883e-01 3.141474999999999795e+01 1.210000000000000000e+02 2.286355000000000018e+03
8.100000000000000255e-02 2.137600000000000056e-01 3.247780000000000200e+01 1.252210000000000036e+02 2.287329999999999927e+03
8.200000000000000344e-02 2.139185000000000114e-01 3.353294999999999959e+01 1.294050000000000011e+02 2.288319999999999709e+03
8.300000000000000433e-02 2.140734999999999999e-01 3.453555000000000064e+01 1.334155000000000086e+02 2.289295000000000073e+03
8.400000000000000522e-02 2.142209999999999948e-01 3.544035000000000224e+01 1.371195000000000164e+02 2.290224999999999909e+03
8.500000000000000611e-02 2.143574999999999786e-01 3.620465000000000089e+01 1.404019999999999868e+02 2.291090000000000146e+03
8.600000000000000699e-02 2.144780000000000020e-01 3.679174999999999329e+01 1.431674999999999898e+02 2.291849999999999909e+03
8.700000000000000788e-02 2.145794999999999786e-01 3.717305000000000348e+01 1.453464999999999918e+02 2.292500000000000000e+03
8.800000000000000877e-02 2.146600000000000175e-01 3.732979999999999876e+01 1.469019999999999868e+02 2.293015000000000327e+03
8.899999999999999578e-02 2.147179999999999922e-01 3.725424999999999898e+01 1.478259999999999934e+02 2.293395000000000437e+03
8.999999999999999667e-02 2.147540000000000004e-01 3.694975000000000165e+01 1.481405000000000030e+02 2.293635000000000218e+03
9.099999999999999756e-02 2.147685000000000011e-01 3.642999999999999972e+01 1.478960000000000150e+02 2.293739999999999782e+03
9.199999999999999845e-02 2.147630000000000094e-01 3.571800000000000352e+01 1.471624999999999943e+02 2.293720000000000255e+03
9.299999999999999933e-02 2.147405000000000008e-01 3.484414999999999907e+01 1.460289999999999964e+02 2.293595000000000255e+03
9.400000000000000022e-02 2.147034999999999916e-01 3.384425000000000239e+01 1.445919999999999845e+02 2.293369999999999891e+03
9.500000000000000111e-02 2.146560000000000135e-01 3.275710000000000122e+01 1.429560000000000173e+02 2.293085000000000036e+03
9.600000000000000200e-02 2.146015000000000006e-01 3.162280000000000157e+01 1.412210000000000036e+02 2.292744999999999891e+03
9.700000000000000289e-02 2.145429999999999837e-01 3.048004999999999853e+01 1.394830000000000041e+02 2.292380000000000109e+03
9.800000000000000377e-02 2.144834999999999936e-01 2.936475000000000080e+01 1.378260000000000218e+02 2.292015000000000327e+03
9.900000000000000466e-02 2.144269999999999787e-01 2.830809999999999960e+01 1.363215000000000146e+02 2.291654999999999745e+03
1.000000000000000056e-01 2.143749999999999822e-01 2.733514999999999873e+01 1.350244999999999891e+02 2.291329999999999927e+03
1.010000000000000064e-01 2.143305000000000071e-01 2.646415000000000006e+01 1.339695000000000107e+02 2.291045000000000073e+03
1.020000000000000073e-01 2.142939999999999845e-01 2.570524999999999949e+01 1.331734999999999900e+02 2.290805000000000291e+03
1.030000000000000082e-01 2.142649999999999832e-01 2.506040000000000134e+01 1.326315000000000168e+02 2.290625000000000000e+03
1.040000000000000091e-01 2.142450000000000188e-01 2.452369999999999806e+01 1.323179999999999836e+02 2.290489999999999782e+03
1.050000000000000100e-01 2.142324999999999924e-01 2.408169999999999789e+01 1.321904999999999859e+02 2.290400000000000091e+03
1.059999999999999970e-01 2.142255000000000131e-01 2.371459999999999724e+01 1.321920000000000073e+02 2.290350000000000364e+03
1.069999999999999979e-01 2.142229999999999968e-01 2.339784999999999826e+01 1.322529999999999859e+02 2.290324999999999818e+03
1.079999999999999988e-01 2.142209999999999948e-01 2.310379999999999967e+01 1.322995000000000232e+02 2.290309999999999945e+03
1.089999999999999997e-01 2.142185000000000061e-01 2.280375000000000085e+01 1.322565000000000168e+02 2.290289999999999964e+03
1.100000000000000006e-01 2.142125000000000001e-01 2.247005000000000052e+01 1.320525000000000091e+02 2.290250000000000000e+03
1.110000000000000014e-01 2.142000000000000015e-01 2.207779999999999987e+01 1.316274999999999977e+02 2.290175000000000182e+03
1.120000000000000023e-01 2.141799999999999815e-01 2.160705000000000098e+01 1.309354999999999905e+02 2.290045000000000073e+03
1.130000000000000032e-01 2.141500000000000070e-01 2.104370000000000118e+01 1.299470000000000027e+02 2.289864999999999782e+03
1.140000000000000041e-01 2.141105000000000091e-01 2.038094999999999857e+01 1.286529999999999916e+02 2.289614999999999782e+03
1.150000000000000050e-01 2.140589999999999993e-01 1.961930000000000263e+01 1.270654999999999859e+02 2.289310000000000400e+03
1.160000000000000059e-01 2.139989999999999948e-01 1.876684999999999803e+01 1.252160000000000082e+02 2.288930000000000291e+03
1.170000000000000068e-01 2.139290000000000080e-01 1.783854999999999791e+01 1.231520000000000010e+02 2.288500000000000000e+03
1.180000000000000077e-01 2.138530000000000153e-01 1.685519999999999996e+01 1.209369999999999976e+02 2.288019999999999982e+03
1.190000000000000085e-01 2.137715000000000032e-01 1.584189999999999898e+01 1.186440000000000055e+02 2.287514999999999873e+03
1.200000000000000094e-01 2.136875000000000024e-01 1.482639999999999958e+01 1.163505000000000109e+02 2.286989999999999782e+03
1.209999999999999964e-01 2.136040000000000161e-01 1.383739999999999881e+01 1.141340000000000003e+02 2.286470000000000255e+03
1.219999999999999973e-01 2.135234999999999772e-01 1.290279999999999916e+01 1.120664999999999907e+02 2.285965000000000146e+03
1.229999999999999982e-01 2.134489999999999998e-01 1.204775000000000063e+01 1.102129999999999939e+02 2.285494999999999891e+03
1.239999999999999991e-01 2.133815000000000017e-01 1.129359000000000002e+01 1.086244999999999976e+02 2.285070000000000164e+03
1.250000000000000000e-01 2.133240000000000136e-01 1.065680499999999853e+01 1.073385000000000105e+02 2.284699999999999818e+03
1.260000000000000009e-01 2.132765000000000077e-01 1.014806000000000097e+01 1.063764999999999930e+02 2.284399999999999636e+03
1.270000000000000018e-01 2.132415000000000005e-01 9.772149999999999892e+00 1.057444999999999879e+02 2.284164999999999964e+03
1.280000000000000027e-01 2.132169999999999899e-01 9.528029999999999333e+00 1.054325000000000045e+02 2.284010000000000218e+03
1.290000000000000036e-01 2.132045000000000190e-01 9.409150000000000347e+00 1.054180000000000064e+02 2.283920000000000073e+03
1.300000000000000044e-01 2.132020000000000026e-01 9.404129999999998546e+00 1.056659999999999968e+02 2.283894999999999982e+03
1.310000000000000053e-01 2.132089999999999819e-01 9.497545000000000570e+00 1.061340000000000003e+02 2.283934999999999945e+03
1.320000000000000062e-01 2.132235000000000102e-01 9.671049999999999258e+00 1.067715000000000032e+02 2.284019999999999982e+03
1.330000000000000071e-01 2.132445000000000035e-01 9.904350000000000875e+00 1.075264999999999986e+02 2.284140000000000327e+03
1.340000000000000080e-01 2.132695000000000007e-01 1.017624999999999957e+01 1.083470000000000084e+02 2.284289999999999964e+03
1.350000000000000089e-01 2.132959999999999856e-01 1.046584999999999965e+01 1.091804999999999950e+02 2.284460000000000036e+03
1.360000000000000098e-01 2.133240000000000136e-01 1.075319999999999965e+01 1.099809999999999945e+02 2.284630000000000109e+03
1.370000000000000107e-01 2.133510000000000129e-01 1.102045000000000030e+01 1.107074999999999960e+02 2.284800000000000182e+03
1.380000000000000115e-01 2.133754999999999957e-01 1.125240000000000151e+01 1.113259999999999934e+02 2.284949999999999818e+03
1.390000000000000124e-01 2.133964999999999890e-01 1.143725000000000058e+01 1.118139999999999930e+02 2.285085000000000036e+03
1.400000000000000133e-01 2.134130000000000194e-01 1.156654999999999944e+01 1.121550000000000011e+02 2.285190000000000055e+03
1.410000000000000142e-01 2.134244999999999892e-01 1.163615000000000066e+01 1.123449999999999989e+02 2.285264999999999873e+03
1.420000000000000151e-01 2.134309999999999818e-01 1.164529999999999887e+01 1.123870000000000005e+02 2.285309999999999945e+03
1.430000000000000160e-01 2.134325000000000250e-01 1.159724999999999895e+01 1.122949999999999875e+02 2.285324999999999818e+03
1.440000000000000169e-01 2.134294999999999942e-01 1.149810000000000088e+01 1.120879999999999939e+02 2.285310000000000400e+03
1.450000000000000178e-01 2.134230000000000016e-01 1.135689999999999955e+01 1.117930000000000064e+02 2.285265000000000327e+03
1.459999999999999909e-01 2.134129999999999916e-01 1.118414999999999893e+01 1.114389999999999930e+02 2.285210000000000036e+03
1.469999999999999918e-01 2.134015000000000217e-01 1.099174999999999969e+01 1.110570000000000022e+02 2.285140000000000327e+03
1.479999999999999927e-01 2.133889999999999953e-01 1.079156000000000049e+01 1.106765000000000043e+02 2.285064999999999600e+03
1.489999999999999936e-01 2.133764999999999967e-01 1.059493499999999955e+01 1.103264999999999958e+02 2.284985000000000127e+03
1.499999999999999944e-01 2.133649999999999991e-01 1.041191000000000066e+01 1.100279999999999916e+02 2.284914999999999964e+03
1.509999999999999953e-01 2.133555000000000035e-01 1.025073000000000079e+01 1.097999999999999972e+02 2.284854999999999563e+03
1.519999999999999962e-01 2.133479999999999821e-01 1.011733999999999867e+01 1.096534999999999940e+02 2.284809999999999945e+03
1.529999999999999971e-01 2.133434999999999915e-01 1.001526000000000138e+01 1.095919999999999987e+02 2.284775000000000091e+03
1.539999999999999980e-01 2.133420000000000039e-01 9.945679999999999410e+00 1.096144999999999925e+02 2.284764999999999873e+03
1.549999999999999989e-01 2.133430000000000049e-01 9.907415000000000305e+00 1.097129999999999939e+02 2.284769999999999982e+03
1.559999999999999998e-01 2.133464999999999945e-01 9.897310000000000940e+00 1.098760000000000048e+02 2.284795000000000073e+03
1.570000000000000007e-01 2.133525000000000005e-01 9.910595000000000709e+00 1.100875000000000057e+02 2.284829999999999927e+03
1.580000000000000016e-01 2.133595000000000075e-01 9.941175000000001205e+00 1.103294999999999959e+02 2.284869999999999891e+03
1.590000000000000024e-01 2.133680000000000021e-01 9.982320000000001414e+00 1.105829999999999984e+02 2.284920000000000073e+03
