# t [s], A [cm^2], U [cm/s], P [cPa], c [cm/s]
1.000000000000000021e-03 1.508450000000000069e-01 1.624153999999999876e-01 8.869919999999999050e+01 1.853699999999999818e+03
2.000000000000000042e-03 1.508240000000000136e-01 1.397415999999999991e+00 8.631940000000000168e+01 1.853480000000000018e+03
3.000000000000000062e-03 1.507404999999999995e-01 2.966025000000000134e+00 8.310229999999999961e+01 1.852670000000000073e+03
4.000000000000000083e-03 1.506119999999999959e-01 4.727314999999999934e+00 7.933955000000000268e+01 1.851449999999999818e+03
5.000000000000000104e-03 1.504610000000000114e-01 6.637889999999999624e+00 7.562704999999999700e+01 1.850029999999999973e+03
6.000000000000000125e-03 1.503059999999999952e-01 8.623099999999999099e+00 7.236039999999999850e+01 1.848575000000000045e+03
7.000000000000000146e-03 1.501554999999999973e-01 1.055190999999999946e+01 6.960649999999999693e+01 1.847190000000000055e+03
8.000000000000000167e-03 1.500130000000000075e-01 1.229405000000000037e+01 6.720779999999999177e+01 1.845900000000000091e+03
9.000000000000001055e-03 1.498809999999999865e-01 1.379904999999999937e+01 6.503985000000000127e+01 1.844715000000000146e+03
1.000000000000000194e-02 1.497620000000000062e-01 1.508510000000000062e+01 6.311865000000000236e+01 1.843670000000000073e+03
1.099999999999999936e-02 1.496580000000000132e-01 1.617745000000000033e+01 6.149414999999999765e+01 1.842755000000000109e+03
1.200000000000000025e-02 1.495700000000000085e-01 1.708964999999999890e+01 6.017059999999999320e+01 1.841994999999999891e+03
1.300000000000000114e-02 1.494969999999999910e-01 1.783164999999999978e+01 5.911995000000000289e+01 1.841375000000000000e+03
1.400000000000000203e-02 1.494380000000000153e-01 1.841000000000000014e+01 5.829574999999999818e+01 1.840869999999999891e+03
1.499999999999999944e-02 1.493895000000000084e-01 1.882620000000000005e+01 5.762964999999999804e+01 1.840474999999999909e+03
1.600000000000000033e-02 1.493495000000000239e-01 1.909134999999999849e+01 5.705780000000000030e+01 1.840150000000000091e+03
1.700000000000000122e-02 1.493169999999999775e-01 1.924749999999999872e+01 5.658055000000000234e+01 1.839890000000000100e+03
1.800000000000000211e-02 1.492930000000000090e-01 1.937174999999999869e+01 5.630004999999999882e+01 1.839704999999999927e+03
1.900000000000000300e-02 1.492824999999999847e-01 1.955434999999999945e+01 5.639130000000000109e+01 1.839634999999999991e+03
2.000000000000000042e-02 1.492899999999999783e-01 1.986359999999999815e+01 5.701765000000000327e+01 1.839710000000000036e+03
2.100000000000000130e-02 1.493184999999999929e-01 2.031770000000000209e+01 5.824094999999999800e+01 1.839965000000000146e+03
2.200000000000000219e-02 1.493665000000000131e-01 2.087760000000000105e+01 5.997469999999999857e+01 1.840384999999999991e+03
2.299999999999999961e-02 1.494294999999999929e-01 2.146144999999999925e+01 6.199715000000000487e+01 1.840934999999999945e+03
2.400000000000000050e-02 1.494989999999999930e-01 2.197160000000000224e+01 6.401350000000000762e+01 1.841550000000000182e+03
2.500000000000000139e-02 1.495664999999999911e-01 2.232365000000000066e+01 6.573810000000000286e+01 1.842159999999999854e+03
2.600000000000000228e-02 1.496244999999999936e-01 2.246780000000000044e+01 6.696680000000000632e+01 1.842684999999999945e+03
2.700000000000000316e-02 1.496675000000000089e-01 2.239775000000000205e+01 6.761879999999999313e+01 1.843085000000000036e+03
2.800000000000000058e-02 1.496939999999999937e-01 2.214564999999999984e+01 6.774025000000000318e+01 1.843345000000000027e+03
2.900000000000000147e-02 1.497060000000000057e-01 2.176769999999999783e+01 6.747180000000000177e+01 1.843470000000000027e+03
3.000000000000000236e-02 1.497069999999999790e-01 2.132509999999999906e+01 6.699649999999999750e+01 1.843494999999999891e+03
3.099999999999999978e-02 1.497020000000000017e-01 2.086690000000000111e+01 6.648349999999999227e+01 1.843449999999999818e+03
3.200000000000000067e-02 1.496945000000000081e-01 2.041900000000000048e+01 6.604550000000000409e+01 1.843389999999999873e+03
3.300000000000000155e-02 1.496865000000000001e-01 1.998215000000000074e+01 6.571930000000000405e+01 1.843324999999999818e+03
3.400000000000000244e-02 1.496794999999999931e-01 1.953685000000000116e+01 6.547065000000000623e+01 1.843264999999999873e+03
3.500000000000000333e-02 1.496715000000000129e-01 1.905395000000000039e+01 6.521840000000000259e+01 1.843200000000000045e+03
3.600000000000000422e-02 1.496609999999999885e-01 1.850704999999999956e+01 6.486930000000000973e+01 1.843110000000000127e+03
3.700000000000000511e-02 1.496460000000000012e-01 1.788289999999999935e+01 6.435320000000000107e+01 1.842985000000000127e+03
3.799999999999999906e-02 1.496250000000000080e-01 1.718885000000000218e+01 6.364974999999999739e+01 1.842804999999999836e+03
3.899999999999999994e-02 1.495984999999999954e-01 1.645404999999999873e+01 6.280079999999999529e+01 1.842579999999999927e+03
4.000000000000000083e-02 1.495684999999999931e-01 1.572510000000000119e+01 6.190565000000000850e+01 1.842319999999999936e+03
4.100000000000000172e-02 1.495385000000000186e-01 1.505760000000000076e+01 6.110070000000000334e+01 1.842059999999999945e+03
4.200000000000000261e-02 1.495130000000000070e-01 1.450434999999999874e+01 6.052989999999999782e+01 1.841829999999999927e+03
4.300000000000000350e-02 1.494959999999999900e-01 1.410535000000000139e+01 6.031239999999999668e+01 1.841680000000000064e+03
4.400000000000000439e-02 1.494914999999999994e-01 1.387959999999999994e+01 6.051704999999999757e+01 1.841625000000000000e+03
4.499999999999999833e-02 1.495009999999999950e-01 1.382225000000000037e+01 6.114744999999999919e+01 1.841699999999999818e+03
4.599999999999999922e-02 1.495239999999999903e-01 1.390585000000000093e+01 6.214124999999999943e+01 1.841880000000000109e+03
4.700000000000000011e-02 1.495575000000000099e-01 1.408549999999999969e+01 6.338200000000000500e+01 1.842170000000000073e+03
4.800000000000000100e-02 1.495989999999999820e-01 1.430634999999999835e+01 6.471920000000000073e+01 1.842519999999999982e+03
4.900000000000000189e-02 1.496429999999999982e-01 1.451174999999999926e+01 6.599215000000000941e+01 1.842905000000000200e+03
5.000000000000000278e-02 1.496850000000000125e-01 1.465040000000000120e+01 6.705305000000001314e+01 1.843269999999999982e+03
5.100000000000000366e-02 1.497199999999999920e-01 1.468159999999999954e+01 6.778469999999998663e+01 1.843579999999999927e+03
5.200000000000000455e-02 1.497439999999999882e-01 1.457819999999999894e+01 6.811124999999999829e+01 1.843795000000000073e+03
5.300000000000000544e-02 1.497554999999999858e-01 1.432734999999999914e+01 6.800145000000000550e+01 1.843904999999999973e+03
5.399999999999999939e-02 1.497525000000000106e-01 1.392859999999999943e+01 6.746455000000000268e+01 1.843884999999999991e+03
5.500000000000000028e-02 1.497350000000000070e-01 1.339170000000000016e+01 6.654204999999998904e+01 1.843740000000000009e+03
5.600000000000000117e-02 1.497034999999999894e-01 1.273320000000000007e+01 6.529644999999999300e+01 1.843474999999999909e+03
5.700000000000000205e-02 1.496609999999999885e-01 1.197321499999999972e+01 6.380039999999999623e+01 1.843110000000000127e+03
5.800000000000000294e-02 1.496089999999999920e-01 1.113377000000000017e+01 6.212749999999999773e+01 1.842655000000000200e+03
5.900000000000000383e-02 1.495489999999999875e-01 1.023698500000000067e+01 6.034694999999999965e+01 1.842134999999999991e+03
6.000000000000000472e-02 1.494845000000000201e-01 9.304719999999999658e+00 5.852055000000000007e+01 1.841569999999999936e+03
6.099999999999999867e-02 1.494170000000000220e-01 8.358889999999998821e+00 5.670309999999999917e+01 1.840980000000000018e+03
6.199999999999999956e-02 1.493490000000000095e-01 7.422024999999999650e+00 5.494445000000000334e+01 1.840380000000000109e+03
6.300000000000000044e-02 1.492819999999999980e-01 6.517730000000000246e+00 5.329250000000000398e+01 1.839789999999999964e+03
6.400000000000000133e-02 1.492180000000000173e-01 5.671389999999999709e+00 5.179590000000000316e+01 1.839230000000000018e+03
6.500000000000000222e-02 1.491595000000000004e-01 4.909909999999999997e+00 5.050560000000000116e+01 1.838710000000000036e+03
6.600000000000000311e-02 1.491085000000000049e-01 4.261314999999999742e+00 4.947525000000000261e+01 1.838259999999999991e+03
6.700000000000000400e-02 1.490674999999999917e-01 3.753839999999999844e+00 4.875999999999999801e+01 1.837884999999999991e+03
6.800000000000000488e-02 1.490374999999999894e-01 3.414625000000000021e+00 4.841400000000000148e+01 1.837615000000000009e+03
6.900000000000000577e-02 1.490215000000000012e-01 3.268270000000000231e+00 4.848709999999999809e+01 1.837460000000000036e+03
7.000000000000000666e-02 1.490210000000000146e-01 3.335409999999999986e+00 4.902164999999999395e+01 1.837444999999999936e+03
7.100000000000000755e-02 1.490380000000000038e-01 3.631410000000000249e+00 5.004864999999999498e+01 1.837575000000000045e+03
7.200000000000000844e-02 1.490734999999999977e-01 4.165409999999999613e+00 5.158554999999999779e+01 1.837869999999999891e+03
7.300000000000000933e-02 1.491279999999999828e-01 4.939759999999999707e+00 5.363439999999999941e+01 1.838329999999999927e+03
7.399999999999999634e-02 1.492025000000000157e-01 5.949850000000000527e+00 5.618155000000000143e+01 1.838965000000000146e+03
7.499999999999999722e-02 1.492959999999999843e-01 7.184379999999999988e+00 5.919814999999999827e+01 1.839769999999999982e+03
7.599999999999999811e-02 1.494070000000000120e-01 8.626004999999999256e+00 6.264184999999999803e+01 1.840730000000000018e+03
7.699999999999999900e-02 1.495350000000000013e-01 1.025215500000000013e+01 6.645910000000000650e+01 1.841840000000000146e+03
7.799999999999999989e-02 1.496780000000000055e-01 1.203617500000000007e+01 7.058830000000000382e+01 1.843090000000000146e+03
7.900000000000000078e-02 1.498335000000000083e-01 1.394852500000000006e+01 7.496264999999999645e+01 1.844454999999999927e+03
8.000000000000000167e-02 1.499995000000000078e-01 1.595819999999999972e+01 7.951394999999999413e+01 1.845914999999999964e+03
8.100000000000000255e-02 1.501735000000000153e-01 1.803369999999999962e+01 8.417525000000000546e+01 1.847450000000000045e+03
8.200000000000000344e-02 1.503530000000000144e-01 2.014460000000000051e+01 8.888384999999999536e+01 1.849039999999999964e+03
8.300000000000000433e-02 1.505354999999999888e-01 2.226235000000000142e+01 9.358419999999999561e+01 1.850664999999999964e+03
8.400000000000000522e-02 1.507195000000000062e-01 2.436129999999999995e+01 9.822849999999999682e+01 1.852300000000000182e+03
8.500000000000000611e-02 1.509030000000000094e-01 2.641920000000000002e+01 1.027794000000000096e+02 1.853940000000000055e+03
8.600000000000000699e-02 1.510839999999999961e-01 2.841794999999999760e+01 1.072106500000000011e+02 1.855565000000000055e+03
8.700000000000000788e-02 1.512614999999999932e-01 3.034339999999999904e+01 1.115054999999999978e+02 1.857164999999999964e+03
8.800000000000000877e-02 1.514355000000000007e-01 3.218534999999999968e+01 1.156560000000000059e+02 1.858735000000000127e+03
8.899999999999999578e-02 1.516045000000000031e-01 3.393735000000000213e+01 1.196624999999999943e+02 1.860259999999999991e+03
8.999999999999999667e-02 1.517689999999999872e-01 3.559595000000000198e+01 1.235324999999999989e+02 1.861755000000000109e+03
9.099999999999999756e-02 1.519289999999999807e-01 3.716024999999999778e+01 1.272759999999999962e+02 1.863204999999999927e+03
9.199999999999999845e-02 1.520845000000000113e-01 3.863119999999999976e+01 1.309060000000000059e+02 1.864625000000000000e+03
9.299999999999999933e-02 1.522359999999999824e-01 4.001084999999999781e+01 1.344359999999999786e+02 1.866005000000000109e+03
9.400000000000000022e-02 1.523835000000000051e-01 4.130174999999999841e+01 1.378765000000000214e+02 1.867360000000000127e+03
9.500000000000000111e-02 1.525274999999999825e-01 4.250645000000000095e+01 1.412359999999999900e+02 1.868679999999999836e+03
9.600000000000000200e-02 1.526684999999999848e-01 4.362729999999999819e+01 1.445205000000000268e+02 1.869970000000000027e+03
9.700000000000000289e-02 1.528065000000000118e-01 4.466580000000000439e+01 1.477305000000000064e+02 1.871240000000000009e+03
9.800000000000000377e-02 1.529409999999999936e-01 4.562279999999999802e+01 1.508629999999999995e+02 1.872480000000000018e+03
9.900000000000000466e-02 1.530730000000000146e-01 4.649840000000000373e+01 1.539124999999999943e+02 1.873690000000000055e+03
1.000000000000000056e-01 1.532010000000000038e-01 4.729155000000000086e+01 1.568700000000000045e+02 1.874869999999999891e+03
1.010000000000000064e-01 1.533255000000000035e-01 4.800069999999999482e+01 1.597230000000000132e+02 1.876019999999999982e+03
1.020000000000000073e-01 1.534455000000000124e-01 4.862384999999999735e+01 1.624590000000000032e+02 1.877130000000000109e+03
1.030000000000000082e-01 1.535610000000000031e-01 4.915815000000000623e+01 1.650635000000000048e+02 1.878195000000000164e+03
1.040000000000000091e-01 1.536715000000000164e-01 4.960085000000000122e+01 1.675215000000000032e+02 1.879220000000000027e+03
1.050000000000000100e-01 1.537755000000000094e-01 4.994889999999999475e+01 1.698190000000000168e+02 1.880190000000000055e+03
1.059999999999999970e-01 1.538740000000000108e-01 5.019930000000000092e+01 1.719424999999999955e+02 1.881105000000000018e+03
1.069999999999999979e-01 1.539655000000000051e-01 5.034959999999999525e+01 1.738795000000000073e+02 1.881954999999999927e+03
1.079999999999999988e-01 1.540495000000000059e-01 5.039750000000000085e+01 1.756189999999999998e+02 1.882735000000000127e+03
1.089999999999999997e-01 1.541254999999999986e-01 5.034150000000000347e+01 1.771530000000000200e+02 1.883449999999999818e+03
1.100000000000000006e-01 1.541939999999999977e-01 5.018094999999999573e+01 1.784739999999999895e+02 1.884090000000000146e+03
1.110000000000000014e-01 1.542534999999999878e-01 4.991629999999999967e+01 1.795794999999999959e+02 1.884655000000000200e+03
1.120000000000000023e-01 1.543049999999999977e-01 4.954904999999999404e+01 1.804685000000000059e+02 1.885144999999999982e+03
1.130000000000000032e-01 1.543479999999999852e-01 4.908214999999999861e+01 1.811440000000000055e+02 1.885549999999999955e+03
1.140000000000000041e-01 1.543825000000000058e-01 4.851994999999999436e+01 1.816119999999999948e+02 1.885875000000000000e+03
1.150000000000000050e-01 1.544089999999999907e-01 4.786814999999999998e+01 1.818824999999999932e+02 1.886130000000000109e+03
1.160000000000000059e-01 1.544269999999999810e-01 4.713384999999999536e+01 1.819680000000000177e+02 1.886315000000000055e+03
1.170000000000000068e-01 1.544375000000000053e-01 4.632545000000000357e+01 1.818845000000000027e+02 1.886420000000000073e+03
1.180000000000000077e-01 1.544420000000000237e-01 4.545234999999999559e+01 1.816504999999999939e+02 1.886465000000000146e+03
1.190000000000000085e-01 1.544389999999999930e-01 4.452485000000000070e+01 1.812860000000000014e+02 1.886454999999999927e+03
1.200000000000000094e-01 1.544309999999999850e-01 4.355355000000000132e+01 1.808115000000000236e+02 1.886389999999999873e+03
1.209999999999999964e-01 1.544185000000000141e-01 4.254945000000000022e+01 1.802495000000000118e+02 1.886279999999999973e+03
1.219999999999999973e-01 1.544024999999999981e-01 4.152335000000000065e+01 1.796200000000000045e+02 1.886130000000000109e+03
1.229999999999999982e-01 1.543820000000000192e-01 4.048550000000000182e+01 1.789445000000000050e+02 1.885954999999999927e+03
1.239999999999999991e-01 1.543599999999999972e-01 3.944545000000000101e+01 1.782384999999999877e+02 1.885750000000000000e+03
1.250000000000000000e-01 1.543364999999999876e-01 3.841190000000000282e+01 1.775200000000000102e+02 1.885529999999999973e+03
1.260000000000000009e-01 1.543110000000000037e-01 3.739204999999999757e+01 1.768004999999999995e+02 1.885299999999999955e+03
1.270000000000000018e-01 1.542855000000000198e-01 3.639199999999999591e+01 1.760899999999999750e+02 1.885065000000000055e+03
1.280000000000000027e-01 1.542590000000000072e-01 3.541620000000000346e+01 1.753950000000000102e+02 1.884825000000000045e+03
1.290000000000000036e-01 1.542330000000000090e-01 3.446779999999999688e+01 1.747189999999999941e+02 1.884579999999999927e+03
1.300000000000000044e-01 1.542074999999999974e-01 3.354840000000000089e+01 1.740635000000000048e+02 1.884340000000000146e+03
1.310000000000000053e-01 1.541819999999999857e-01 3.265824999999999534e+01 1.734250000000000114e+02 1.884105000000000018e+03
1.320000000000000062e-01 1.541569999999999885e-01 3.179619999999999891e+01 1.727990000000000066e+02 1.883869999999999891e+03
1.330000000000000071e-01 1.541319999999999912e-01 3.096005000000000251e+01 1.721784999999999854e+02 1.883635000000000218e+03
1.340000000000000080e-01 1.541069999999999940e-01 3.014665000000000106e+01 1.715560000000000116e+02 1.883400000000000091e+03
1.350000000000000089e-01 1.540814999999999824e-01 2.935210000000000008e+01 1.709209999999999923e+02 1.883164999999999964e+03
1.360000000000000098e-01 1.540555000000000119e-01 2.857175000000000153e+01 1.702635000000000218e+02 1.882924999999999955e+03
1.370000000000000107e-01 1.540289999999999992e-01 2.780080000000000240e+01 1.695729999999999791e+02 1.882674999999999955e+03
1.380000000000000115e-01 1.540009999999999990e-01 2.703425000000000011e+01 1.688389999999999986e+02 1.882414999999999964e+03
1.390000000000000124e-01 1.539709999999999968e-01 2.626729999999999876e+01 1.680519999999999925e+02 1.882135000000000218e+03
1.400000000000000133e-01 1.539389999999999925e-01 2.549524999999999864e+01 1.672035000000000196e+02 1.881839999999999918e+03
1.410000000000000142e-01 1.539050000000000140e-01 2.471395000000000053e+01 1.662850000000000250e+02 1.881519999999999982e+03
1.420000000000000151e-01 1.538674999999999904e-01 2.392000000000000171e+01 1.652925000000000182e+02 1.881184999999999945e+03
1.430000000000000160e-01 1.538280000000000203e-01 2.311064999999999969e+01 1.642220000000000084e+02 1.880820000000000164e+03
1.440000000000000169e-01 1.537854999999999916e-01 2.228419999999999845e+01 1.630709999999999980e+02 1.880424999999999955e+03
1.450000000000000178e-01 1.537399999999999878e-01 2.143990000000000151e+01 1.618414999999999964e+02 1.880009999999999991e+03
1.459999999999999909e-01 1.536910000000000220e-01 2.057804999999999751e+01 1.605360000000000014e+02 1.879559999999999945e+03
1.469999999999999918e-01 1.536394999999999844e-01 1.970015000000000072e+01 1.591589999999999918e+02 1.879090000000000146e+03
1.479999999999999927e-01 1.535849999999999993e-01 1.880855000000000032e+01 1.577194999999999823e+02 1.878590000000000146e+03
1.489999999999999936e-01 1.535285000000000122e-01 1.790695000000000192e+01 1.562270000000000039e+02 1.878074999999999818e+03
1.499999999999999944e-01 1.534695000000000087e-01 1.699974999999999881e+01 1.546924999999999955e+02 1.877529999999999973e+03
1.509999999999999953e-01 1.534085000000000032e-01 1.609215000000000018e+01 1.531304999999999836e+02 1.876980000000000018e+03
1.519999999999999962e-01 1.533464999999999967e-01 1.519010000000000105e+01 1.515529999999999973e+02 1.876410000000000082e+03
1.529999999999999971e-01 1.532844999999999902e-01 1.429974999999999952e+01 1.499764999999999873e+02 1.875840000000000146e+03
1.539999999999999980e-01 1.532215000000000105e-01 1.342760000000000176e+01 1.484159999999999968e+02 1.875264999999999873e+03
1.549999999999999989e-01 1.531589999999999896e-01 1.258004000000000033e+01 1.468845000000000027e+02 1.874694999999999936e+03
1.559999999999999998e-01 1.530974999999999975e-01 1.176323499999999989e+01 1.453969999999999914e+02 1.874130000000000109e+03
1.570000000000000007e-01 1.530374999999999930e-01 1.098267999999999844e+01 1.439650000000000034e+02 1.873579999999999927e+03
1.580000000000000016e-01 1.529794999999999905e-01 1.024334500000000148e+01 1.425989999999999895e+02 1.873045000000000073e+03
1.590000000000000024e-01 1.529234999999999900e-01 9.549310000000000187e+00 1.413075000000000045e+02 1.872534999999999854e+03
