# t [s], A [cm^2], U [cm/s], P [cPa], c [cm/s]
1.000000000000000021e-03 5.678749999999999076e-01 3.702499999999997460e-03 9.252235000000000298e+01 1.472355000000000018e+03
2.000000000000000042e-03 5.678659999999999819e-01 -2.092479999999999861e-03 9.250440000000000396e+01 1.472355000000000018e+03
3.000000000000000062e-03 5.678925000000000223e-01 4.236505000000000132e-02 9.254404999999999859e+01 1.472365000000000009e+03
4.000000000000000083e-03 5.679425000000000168e-01 1.314019000000000159e-01 9.264714999999999634e+01 1.472394999999999982e+03
5.000000000000000104e-03 5.679554999999999465e-01 1.649342500000000045e-01 9.268569999999999709e+01 1.472409999999999854e+03
6.000000000000000125e-03 5.679194999999999105e-01 1.148129999999999984e-01 9.259844999999999970e+01 1.472384999999999991e+03
7.000000000000000146e-03 5.678725000000000023e-01 4.263200000000003098e-02 9.243774999999999409e+01 1.472349999999999909e+03
8.000000000000000167e-03 5.678309999999999746e-01 -2.548200000000000465e-02 9.224289999999999168e+01 1.472300000000000182e+03
9.000000000000001055e-03 5.677670000000000217e-01 -1.421050000000000368e-01 9.196394999999999698e+01 1.472224999999999909e+03
1.000000000000000194e-02 5.676624999999999588e-01 -3.405200000000000449e-01 9.155060000000000286e+01 1.472119999999999891e+03
1.099999999999999936e-02 5.675155000000000616e-01 -6.245799999999999130e-01 9.097610000000000241e+01 1.471974999999999909e+03
1.200000000000000025e-02 5.673150000000000137e-01 -1.006099999999999994e+00 9.020384999999998854e+01 1.471775000000000091e+03
1.300000000000000114e-02 5.670509999999999717e-01 -1.495150000000000201e+00 8.919519999999999982e+01 1.471500000000000000e+03
1.400000000000000203e-02 5.667299999999999560e-01 -2.064600000000000435e+00 8.795239999999999725e+01 1.471164999999999964e+03
1.499999999999999944e-02 5.663835000000000397e-01 -2.639820000000000277e+00 8.654229999999999734e+01 1.470779999999999973e+03
1.600000000000000033e-02 5.660519999999999996e-01 -3.125189999999999912e+00 8.507609999999999673e+01 1.470360000000000127e+03
1.700000000000000122e-02 5.657654999999999212e-01 -3.441984000000000155e+00 8.366575000000000273e+01 1.469934999999999945e+03
1.800000000000000211e-02 5.655350000000000099e-01 -3.552414499999999808e+00 8.238609999999999900e+01 1.469539999999999964e+03
1.900000000000000300e-02 5.653515000000000068e-01 -3.462892999999999777e+00 8.125964999999999350e+01 1.469164999999999964e+03
2.000000000000000042e-02 5.651914999999999578e-01 -3.212520000000000042e+00 8.026044999999999163e+01 1.468819999999999936e+03
2.100000000000000130e-02 5.650295000000000734e-01 -2.855285000000000295e+00 7.933159999999999457e+01 1.468485000000000127e+03
2.200000000000000219e-02 5.648444999999999716e-01 -2.442520000000000024e+00 7.840744999999999720e+01 1.468154999999999973e+03
2.299999999999999961e-02 5.646250000000000435e-01 -2.009699999999999598e+00 7.743404999999999916e+01 1.467805000000000064e+03
2.400000000000000050e-02 5.643694999999999684e-01 -1.570195000000000007e+00 7.638325000000000387e+01 1.467440000000000055e+03
2.500000000000000139e-02 5.640884999999999927e-01 -1.116919999999999913e+00 7.525674999999999670e+01 1.467054999999999836e+03
2.600000000000000228e-02 5.637955000000000050e-01 -6.307650000000000201e-01 7.408039999999999736e+01 1.466654999999999973e+03
2.700000000000000316e-02 5.635054999999999925e-01 -9.207499999999990692e-02 7.289119999999999777e+01 1.466250000000000000e+03
2.800000000000000058e-02 5.632260000000000044e-01 5.086949999999998973e-01 7.172225000000000250e+01 1.465849999999999909e+03
2.900000000000000147e-02 5.629595000000000571e-01 1.164425000000000043e+00 7.059100000000000819e+01 1.465450000000000045e+03
3.000000000000000236e-02 5.626970000000000027e-01 1.849929999999999852e+00 6.949250000000000682e+01 1.465065000000000055e+03
3.099999999999999978e-02 5.624270000000000103e-01 2.525319999999999787e+00 6.839959999999999241e+01 1.464679999999999836e+03
3.200000000000000067e-02 5.621334999999999527e-01 3.142854999999999954e+00 6.726824999999999477e+01 1.464285000000000082e+03
3.300000000000000155e-02 5.618000000000000771e-01 3.655649999999999622e+00 6.604755000000000109e+01 1.463875000000000000e+03
3.400000000000000244e-02 5.614179999999999726e-01 4.026549999999999407e+00 6.469190000000000396e+01 1.463430000000000064e+03
3.500000000000000333e-02 5.609819999999999807e-01 4.235195000000000043e+00 6.317210000000000036e+01 1.462940000000000055e+03
3.600000000000000422e-02 5.604989999999999695e-01 4.282089999999999286e+00 6.148425000000000296e+01 1.462414999999999964e+03
3.700000000000000511e-02 5.599819999999999798e-01 4.188095000000000567e+00 5.965314999999999657e+01 1.461849999999999909e+03
3.799999999999999906e-02 5.594509999999999206e-01 3.990344999999999587e+00 5.773005000000000564e+01 1.461259999999999991e+03
3.899999999999999994e-02 5.589285000000000503e-01 3.735300000000000065e+00 5.578565000000000396e+01 1.460660000000000082e+03
4.000000000000000083e-02 5.584370000000000722e-01 3.471700000000000230e+00 5.390084999999999837e+01 1.460069999999999936e+03
4.100000000000000172e-02 5.579965000000000064e-01 3.244154999999999678e+00 5.215695000000000192e+01 1.459519999999999982e+03
4.200000000000000261e-02 5.576225000000000209e-01 3.088980000000000281e+00 5.062709999999999866e+01 1.459019999999999982e+03
4.300000000000000350e-02 5.573255000000000292e-01 3.032585000000000086e+00 4.937140000000000128e+01 1.458595000000000027e+03
4.400000000000000439e-02 5.571125000000000105e-01 3.091565000000000119e+00 4.843380000000000507e+01 1.458259999999999991e+03
4.499999999999999833e-02 5.569855000000000222e-01 3.274494499999999864e+00 4.784230000000000160e+01 1.458014999999999873e+03
4.599999999999999922e-02 5.569454999999999822e-01 3.584465000000000234e+00 4.761055000000000348e+01 1.457884999999999991e+03
4.700000000000000011e-02 5.569905000000000550e-01 4.021710000000000562e+00 4.774164999999999992e+01 1.457855000000000018e+03
4.800000000000000100e-02 5.571185000000000720e-01 4.585829999999999629e+00 4.823094999999999999e+01 1.457940000000000055e+03
4.900000000000000189e-02 5.573285000000000045e-01 5.277169999999999916e+00 4.907014999999999816e+01 1.458134999999999991e+03
5.000000000000000278e-02 5.576179999999999470e-01 6.097165000000000390e+00 5.024869999999999948e+01 1.458434999999999945e+03
5.100000000000000366e-02 5.579855000000000231e-01 7.047750000000000625e+00 5.175534999999999997e+01 1.458839999999999918e+03
5.200000000000000455e-02 5.584295000000000231e-01 8.130105000000000359e+00 5.357789999999999964e+01 1.459349999999999909e+03
5.300000000000000544e-02 5.589465000000000128e-01 9.343215000000000714e+00 5.570189999999999486e+01 1.459950000000000045e+03
5.399999999999999939e-02 5.595324999999999882e-01 1.068238000000000021e+01 5.810960000000000036e+01 1.460644999999999982e+03
5.500000000000000028e-02 5.601814999999999989e-01 1.213841499999999840e+01 6.077864999999999895e+01 1.461425000000000182e+03
5.600000000000000117e-02 5.608854999999999258e-01 1.369762500000000038e+01 6.368160000000000309e+01 1.462284999999999854e+03
5.700000000000000205e-02 5.616360000000000241e-01 1.534182500000000005e+01 6.678549999999999898e+01 1.463210000000000036e+03
5.800000000000000294e-02 5.624225000000000474e-01 1.704953499999999877e+01 7.005324999999999136e+01 1.464200000000000045e+03
5.900000000000000383e-02 5.632350000000000412e-01 1.879728500000000224e+01 7.344445000000000334e+01 1.465240000000000009e+03
6.000000000000000472e-02 5.640619999999999523e-01 2.056090000000000018e+01 7.691774999999999807e+01 1.466309999999999945e+03
6.099999999999999867e-02 5.648954999999999949e-01 2.231690000000000040e+01 8.043234999999999957e+01 1.467405000000000200e+03
6.199999999999999956e-02 5.657259999999999511e-01 2.404400000000000048e+01 8.395009999999999195e+01 1.468509999999999991e+03
6.300000000000000044e-02 5.665455000000000352e-01 2.572339999999999804e+01 8.743760000000000332e+01 1.469619999999999891e+03
6.400000000000000133e-02 5.673494999999999511e-01 2.733994999999999820e+01 9.086580000000000723e+01 1.470720000000000027e+03
6.500000000000000222e-02 5.681329999999999991e-01 2.888179999999999836e+01 9.421344999999999459e+01 1.471799999999999955e+03
6.600000000000000311e-02 5.688940000000000108e-01 3.034065000000000012e+01 9.746475000000000932e+01 1.472869999999999891e+03
6.700000000000000400e-02 5.696315000000000683e-01 3.171139999999999759e+01 1.006092500000000030e+02 1.473904999999999973e+03
6.800000000000000488e-02 5.703445000000000320e-01 3.299139999999999873e+01 1.036439500000000038e+02 1.474914999999999964e+03
6.900000000000000577e-02 5.710345000000000004e-01 3.418045000000000044e+01 1.065685000000000002e+02 1.475889999999999873e+03
7.000000000000000666e-02 5.717025000000000023e-01 3.528005000000000280e+01 1.093870000000000005e+02 1.476840000000000146e+03
7.100000000000000755e-02 5.723504999999999843e-01 3.629269999999999641e+01 1.121075000000000017e+02 1.477759999999999991e+03
7.200000000000000844e-02 5.729805000000000037e-01 3.722180000000000177e+01 1.147375000000000114e+02 1.478654999999999973e+03
7.300000000000000933e-02 5.735949999999999660e-01 3.807099999999999795e+01 1.172849999999999966e+02 1.479519999999999982e+03
7.399999999999999634e-02 5.741944999999999411e-01 3.884404999999999575e+01 1.197590000000000003e+02 1.480365000000000009e+03
7.499999999999999722e-02 5.747805000000000275e-01 3.954415000000000191e+01 1.221675000000000040e+02 1.481190000000000055e+03
7.599999999999999811e-02 5.753540000000000321e-01 4.017394999999999783e+01 1.245150000000000006e+02 1.481990000000000009e+03
7.699999999999999900e-02 5.759155000000000246e-01 4.073534999999999684e+01 1.268045000000000044e+02 1.482779999999999973e+03
7.799999999999999989e-02 5.764635000000000176e-01 4.122915000000000418e+01 1.290360000000000014e+02 1.483545000000000073e+03
7.900000000000000078e-02 5.769980000000000109e-01 4.165545000000000186e+01 1.312065000000000055e+02 1.484289999999999964e+03
8.000000000000000167e-02 5.775164999999999882e-01 4.201354999999999507e+01 1.333115000000000236e+02 1.485014999999999873e+03
8.100000000000000255e-02 5.780174999999999619e-01 4.230190000000000339e+01 1.353445000000000107e+02 1.485720000000000027e+03
8.200000000000000344e-02 5.784974999999999978e-01 4.251890000000000214e+01 1.372950000000000159e+02 1.486394999999999982e+03
8.300000000000000433e-02 5.789554999999999563e-01 4.266250000000000142e+01 1.391539999999999964e+02 1.487045000000000073e+03
8.400000000000000522e-02 5.793880000000000141e-01 4.273109999999999786e+01 1.409110000000000014e+02 1.487659999999999854e+03
8.500000000000000611e-02 5.797930000000000028e-01 4.272325000000000017e+01 1.425564999999999998e+02 1.488240000000000009e+03
8.600000000000000699e-02 5.801680000000000170e-01 4.263804999999999978e+01 1.440805000000000007e+02 1.488784999999999854e+03
8.700000000000000788e-02 5.805124999999999869e-01 4.247534999999999883e+01 1.454755000000000109e+02 1.489289999999999964e+03
8.800000000000000877e-02 5.808235000000000481e-01 4.223590000000000089e+01 1.467350000000000136e+02 1.489750000000000000e+03
8.899999999999999578e-02 5.811015000000000486e-01 4.192094999999999771e+01 1.478550000000000182e+02 1.490170000000000073e+03
8.999999999999999667e-02 5.813454999999999595e-01 4.153289999999999793e+01 1.488329999999999984e+02 1.490534999999999854e+03
9.099999999999999756e-02 5.815559999999999619e-01 4.107475000000000165e+01 1.496690000000000111e+02 1.490860000000000127e+03
9.199999999999999845e-02 5.817324999999999857e-01 4.055039999999999623e+01 1.503644999999999925e+02 1.491134999999999991e+03
9.299999999999999933e-02 5.818780000000000063e-01 3.996459999999999724e+01 1.509234999999999900e+02 1.491369999999999891e+03
9.400000000000000022e-02 5.819925000000000237e-01 3.932264999999999588e+01 1.513520000000000039e+02 1.491554999999999836e+03
9.500000000000000111e-02 5.820775000000000254e-01 3.863069999999999737e+01 1.516574999999999989e+02 1.491700000000000045e+03
9.600000000000000200e-02 5.821359999999999868e-01 3.789525000000000432e+01 1.518485000000000014e+02 1.491809999999999945e+03
9.700000000000000289e-02 5.821704999999999242e-01 3.712359999999999616e+01 1.519354999999999905e+02 1.491880000000000109e+03
9.800000000000000377e-02 5.821834999999999649e-01 3.632305000000000206e+01 1.519309999999999832e+02 1.491914999999999964e+03
9.900000000000000466e-02 5.821784999999999322e-01 3.550155000000000172e+01 1.518460000000000036e+02 1.491920000000000073e+03
1.000000000000000056e-01 5.821574999999999944e-01 3.466669999999999874e+01 1.516930000000000121e+02 1.491900000000000091e+03
1.010000000000000064e-01 5.821235000000000159e-01 3.382600000000000051e+01 1.514864999999999782e+02 1.491865000000000009e+03
1.020000000000000073e-01 5.820805000000000007e-01 3.298664999999999736e+01 1.512379999999999995e+02 1.491809999999999945e+03
1.030000000000000082e-01 5.820305000000000062e-01 3.215529999999999688e+01 1.509590000000000032e+02 1.491735000000000127e+03
1.040000000000000091e-01 5.819760000000000488e-01 3.133749999999999858e+01 1.506610000000000014e+02 1.491650000000000091e+03
1.050000000000000100e-01 5.819190000000000751e-01 3.053804999999999836e+01 1.503534999999999968e+02 1.491565000000000055e+03
1.059999999999999970e-01 5.818605000000000027e-01 2.976044999999999874e+01 1.500439999999999827e+02 1.491470000000000027e+03
1.069999999999999979e-01 5.818025000000000002e-01 2.900694999999999979e+01 1.497390000000000043e+02 1.491375000000000000e+03
1.079999999999999988e-01 5.817455000000000265e-01 2.827850000000000108e+01 1.494410000000000025e+02 1.491279999999999973e+03
1.089999999999999997e-01 5.816894999999999705e-01 2.757484999999999786e+01 1.491525000000000034e+02 1.491179999999999836e+03
1.100000000000000006e-01 5.816335000000000255e-01 2.689450000000000074e+01 1.488734999999999786e+02 1.491090000000000146e+03
1.110000000000000014e-01 5.815775000000000805e-01 2.623495000000000132e+01 1.486014999999999873e+02 1.490994999999999891e+03
1.120000000000000023e-01 5.815209999999999546e-01 2.559279999999999688e+01 1.483329999999999984e+02 1.490904999999999973e+03
1.130000000000000032e-01 5.814620000000000344e-01 2.496410000000000196e+01 1.480629999999999882e+02 1.490809999999999945e+03
1.140000000000000041e-01 5.813989999999999991e-01 2.434420000000000073e+01 1.477860000000000014e+02 1.490715000000000146e+03
1.150000000000000050e-01 5.813304999999999723e-01 2.372860000000000014e+01 1.474945000000000164e+02 1.490614999999999782e+03
1.160000000000000059e-01 5.812555000000000360e-01 2.311250000000000071e+01 1.471834999999999809e+02 1.490509999999999991e+03
1.170000000000000068e-01 5.811724999999999808e-01 2.249145000000000039e+01 1.468460000000000036e+02 1.490400000000000091e+03
1.180000000000000077e-01 5.810800000000000409e-01 2.186129999999999995e+01 1.464755000000000109e+02 1.490279999999999973e+03
1.190000000000000085e-01 5.809779999999999944e-01 2.121855000000000047e+01 1.460689999999999884e+02 1.490144999999999982e+03
1.200000000000000094e-01 5.808645000000000058e-01 2.056024999999999991e+01 1.456209999999999809e+02 1.490005000000000109e+03
1.209999999999999964e-01 5.807400000000000340e-01 1.988414999999999822e+01 1.451295000000000073e+02 1.489849999999999909e+03
1.219999999999999973e-01 5.806044999999999678e-01 1.918894999999999840e+01 1.445935000000000059e+02 1.489684999999999945e+03
1.229999999999999982e-01 5.804580000000000295e-01 1.847419999999999973e+01 1.440124999999999886e+02 1.489500000000000000e+03
1.239999999999999991e-01 5.803009999999999557e-01 1.774029999999999774e+01 1.433890000000000100e+02 1.489304999999999836e+03
1.250000000000000000e-01 5.801350000000000673e-01 1.698855000000000004e+01 1.427244999999999777e+02 1.489095000000000027e+03
1.260000000000000009e-01 5.799604999999999899e-01 1.622119999999999962e+01 1.420254999999999939e+02 1.488875000000000000e+03
1.270000000000000018e-01 5.797799999999999621e-01 1.544110000000000049e+01 1.412955000000000041e+02 1.488644999999999982e+03
1.280000000000000027e-01 5.795939999999999426e-01 1.465204500000000110e+01 1.405425000000000182e+02 1.488405000000000200e+03
1.290000000000000036e-01 5.794055000000000177e-01 1.385814500000000038e+01 1.397729999999999961e+02 1.488159999999999854e+03
1.300000000000000044e-01 5.792165000000000230e-01 1.306419499999999978e+01 1.389950000000000045e+02 1.487914999999999964e+03
1.310000000000000053e-01 5.790284999999999460e-01 1.227527000000000079e+01 1.382180000000000177e+02 1.487664999999999964e+03
1.320000000000000062e-01 5.788435000000000663e-01 1.149661500000000025e+01 1.374499999999999886e+02 1.487420000000000073e+03
1.330000000000000071e-01 5.786640000000000672e-01 1.073338500000000018e+01 1.366999999999999886e+02 1.487170000000000073e+03
1.340000000000000080e-01 5.784925000000000761e-01 9.990755000000000052e+00 1.359759999999999991e+02 1.486934999999999945e+03
1.350000000000000089e-01 5.783294999999999408e-01 9.273514999999999731e+00 1.352844999999999800e+02 1.486704999999999927e+03
1.360000000000000098e-01 5.781769999999999410e-01 8.585869999999999891e+00 1.346329999999999814e+02 1.486490000000000009e+03
1.370000000000000107e-01 5.780364999999999531e-01 7.931559999999999278e+00 1.340269999999999868e+02 1.486279999999999973e+03
1.380000000000000115e-01 5.779084999999999361e-01 7.313615000000000421e+00 1.334705000000000155e+02 1.486090000000000146e+03
1.390000000000000124e-01 5.777935000000000709e-01 6.734194999999999709e+00 1.329664999999999964e+02 1.485914999999999964e+03
1.400000000000000133e-01 5.776915000000000244e-01 6.194675000000000153e+00 1.325160000000000196e+02 1.485755000000000109e+03
1.410000000000000142e-01 5.776019999999999488e-01 5.695524999999999949e+00 1.321189999999999998e+02 1.485610000000000127e+03
1.420000000000000151e-01 5.775250000000000661e-01 5.236380000000000479e+00 1.317735000000000127e+02 1.485480000000000018e+03
1.430000000000000160e-01 5.774595000000000145e-01 4.816079999999999472e+00 1.314764999999999873e+02 1.485369999999999891e+03
1.440000000000000169e-01 5.774040000000000283e-01 4.432760000000000034e+00 1.312239999999999895e+02 1.485269999999999982e+03
1.450000000000000178e-01 5.773570000000000091e-01 4.083960000000000257e+00 1.310110000000000241e+02 1.485184999999999945e+03
1.459999999999999909e-01 5.773174999999999280e-01 3.766745000000000232e+00 1.308305000000000007e+02 1.485110000000000127e+03
1.469999999999999918e-01 5.772829999999999906e-01 3.477859999999999729e+00 1.306775000000000091e+02 1.485045000000000073e+03
1.479999999999999927e-01 5.772530000000000161e-01 3.213870000000000005e+00 1.305444999999999993e+02 1.484990000000000009e+03
1.489999999999999936e-01 5.772249999999999881e-01 2.971294999999999575e+00 1.304244999999999948e+02 1.484940000000000055e+03
1.499999999999999944e-01 5.771984999999999477e-01 2.746760000000000090e+00 1.303120000000000118e+02 1.484894999999999982e+03
1.509999999999999953e-01 5.771709999999999896e-01 2.537065000000000126e+00 1.302009999999999934e+02 1.484845000000000027e+03
1.519999999999999962e-01 5.771425000000000027e-01 2.339300000000000157e+00 1.300865000000000009e+02 1.484804999999999836e+03
1.529999999999999971e-01 5.771114999999999995e-01 2.150904999999999845e+00 1.299639999999999986e+02 1.484759999999999991e+03
1.539999999999999980e-01 5.770779999999999799e-01 1.969710000000000072e+00 1.298310000000000173e+02 1.484704999999999927e+03
1.549999999999999989e-01 5.770410000000000261e-01 1.793924999999999770e+00 1.296839999999999975e+02 1.484655000000000200e+03
1.559999999999999998e-01 5.769999999999999574e-01 1.622158499999999837e+00 1.295219999999999914e+02 1.484605000000000018e+03
1.570000000000000007e-01 5.769560000000000244e-01 1.453393000000000157e+00 1.293445000000000107e+02 1.484545000000000073e+03
1.580000000000000016e-01 5.769075000000000175e-01 1.286924500000000027e+00 1.291514999999999986e+02 1.484474999999999909e+03
1.590000000000000024e-01 5.768560000000000354e-01 1.122349000000000041e+00 1.289435000000000002e+02 1.484410000000000082e+03
