# t [s], A [cm^2], U [cm/s], P [cPa], c [cm/s]
1.000000000000000021e-03 2.014354999999999896e-01 3.466337000000000446e-01 9.951765000000000327e+01 2.190175000000000182e+03
2.000000000000000042e-03 2.013690000000000202e-01 1.974550500000000097e+00 9.577894999999999470e+01 2.189670000000000073e+03
3.000000000000000062e-03 2.012054999999999816e-01 3.996301999999999577e+00 9.052049999999999841e+01 2.188474999999999909e+03
4.000000000000000083e-03 2.009925000000000184e-01 6.290520500000000403e+00 8.495295000000000130e+01 2.186934999999999945e+03
5.000000000000000104e-03 2.007729999999999793e-01 8.747754999999999725e+00 8.015684999999999150e+01 2.185364999999999782e+03
6.000000000000000125e-03 2.005684999999999829e-01 1.110178500000000135e+01 7.629454999999998677e+01 2.183925000000000182e+03
7.000000000000000146e-03 2.003785000000000149e-01 1.309891499999999986e+01 7.292144999999999300e+01 2.182619999999999891e+03
8.000000000000000167e-03 2.002099999999999991e-01 1.471889999999999965e+01 6.989870000000000516e+01 2.181474999999999909e+03
9.000000000000001055e-03 2.000669999999999948e-01 1.603154999999999930e+01 6.739149999999999352e+01 2.180524999999999636e+03
1.000000000000000194e-02 1.999515000000000042e-01 1.706769999999999854e+01 6.543354999999999677e+01 2.179760000000000218e+03
1.099999999999999936e-02 1.998614999999999975e-01 1.785474999999999923e+01 6.396679999999999922e+01 2.179180000000000291e+03
1.200000000000000025e-02 1.997939999999999994e-01 1.841065000000000040e+01 6.289414999999999623e+01 2.178739999999999782e+03
1.300000000000000114e-02 1.997410000000000019e-01 1.873545000000000016e+01 6.203730000000000189e+01 2.178409999999999854e+03
1.400000000000000203e-02 1.996979999999999866e-01 1.888410000000000011e+01 6.130729999999999791e+01 2.178154999999999745e+03
1.499999999999999944e-02 1.996709999999999874e-01 1.902404999999999902e+01 6.095139999999999958e+01 2.177994999999999891e+03
1.600000000000000033e-02 1.996729999999999894e-01 1.937335000000000207e+01 6.149724999999999397e+01 2.178015000000000327e+03
1.700000000000000122e-02 1.997165000000000190e-01 2.006240000000000023e+01 6.337024999999999864e+01 2.178314999999999600e+03
1.800000000000000211e-02 1.998050000000000104e-01 2.103945000000000221e+01 6.651269999999999527e+01 2.178894999999999982e+03
1.900000000000000300e-02 1.999235000000000040e-01 2.208435000000000059e+01 7.029820000000000846e+01 2.179689999999999600e+03
2.000000000000000042e-02 2.000470000000000026e-01 2.291145000000000209e+01 7.377324999999999022e+01 2.180529999999999745e+03
2.100000000000000130e-02 2.001474999999999782e-01 2.329400000000000048e+01 7.605934999999999491e+01 2.181235000000000127e+03
2.200000000000000219e-02 2.002045000000000075e-01 2.315165000000000006e+01 7.669944999999999879e+01 2.181650000000000091e+03
2.299999999999999961e-02 2.002134999999999887e-01 2.256555000000000177e+01 7.579765000000000441e+01 2.181744999999999891e+03
2.400000000000000050e-02 2.001829999999999998e-01 2.172449999999999903e+01 7.391059999999998809e+01 2.181564999999999600e+03
2.500000000000000139e-02 2.001315000000000177e-01 2.083494999999999919e+01 7.176705000000001178e+01 2.181230000000000018e+03
2.600000000000000228e-02 2.000770000000000048e-01 2.003885000000000005e+01 6.996129999999999427e+01 2.180859999999999673e+03
2.700000000000000316e-02 2.000319999999999876e-01 1.937320000000000064e+01 6.875294999999999845e+01 2.180554999999999836e+03
2.800000000000000058e-02 1.999980000000000091e-01 1.877905000000000157e+01 6.803585000000001060e+01 2.180319999999999709e+03
2.900000000000000147e-02 1.999704999999999955e-01 1.814730000000000132e+01 6.745605000000000473e+01 2.180130000000000109e+03
3.000000000000000236e-02 1.999385000000000190e-01 1.737855000000000061e+01 6.660965000000000202e+01 2.179914999999999964e+03
3.099999999999999978e-02 1.998935000000000017e-01 1.643424999999999869e+01 6.523919999999999675e+01 2.179619999999999891e+03
3.200000000000000067e-02 1.998334999999999972e-01 1.536309999999999931e+01 6.336039999999999850e+01 2.179220000000000255e+03
3.300000000000000155e-02 1.997625000000000095e-01 1.429335000000000022e+01 6.127864999999999895e+01 2.178750000000000000e+03
3.400000000000000244e-02 1.996944999999999970e-01 1.339369999999999905e+01 5.949160000000000537e+01 2.178295000000000073e+03
3.500000000000000333e-02 1.996455000000000035e-01 1.281944999999999979e+01 5.851800000000000068e+01 2.177949999999999818e+03
3.600000000000000422e-02 1.996290000000000009e-01 1.266234999999999999e+01 5.871900000000000119e+01 2.177809999999999945e+03
3.700000000000000511e-02 1.996514999999999818e-01 1.292259999999999920e+01 6.017634999999999934e+01 2.177945000000000164e+03
3.799999999999999906e-02 1.997120000000000006e-01 1.350880000000000081e+01 6.266294999999999504e+01 2.178320000000000164e+03
3.899999999999999994e-02 1.997990000000000044e-01 1.426205000000000034e+01 6.570364999999999611e+01 2.178894999999999982e+03
4.000000000000000083e-02 1.998975000000000057e-01 1.499385000000000190e+01 6.869559999999999889e+01 2.179550000000000182e+03
4.100000000000000172e-02 1.999875000000000125e-01 1.552509999999999835e+01 7.104644999999999300e+01 2.180159999999999854e+03
4.200000000000000261e-02 2.000520000000000076e-01 1.571724999999999994e+01 7.229120000000000346e+01 2.180605000000000018e+03
4.300000000000000350e-02 2.000780000000000058e-01 1.548975000000000080e+01 7.216460000000000719e+01 2.180800000000000182e+03
4.400000000000000439e-02 2.000585000000000002e-01 1.482274999999999920e+01 7.061865000000000236e+01 2.180690000000000055e+03
4.499999999999999833e-02 1.999934999999999907e-01 1.374799999999999933e+01 6.779310000000000969e+01 2.180269999999999982e+03
4.599999999999999922e-02 1.998869999999999814e-01 1.233258000000000010e+01 6.395425000000000182e+01 2.179569999999999709e+03
4.700000000000000011e-02 1.997479999999999811e-01 1.066109499999999954e+01 5.942480000000000473e+01 2.178644999999999982e+03
4.800000000000000100e-02 1.995860000000000134e-01 8.821350000000000691e+00 5.452304999999999779e+01 2.177559999999999945e+03
4.900000000000000189e-02 1.994104999999999905e-01 6.895405000000000229e+00 4.952424999999999500e+01 2.176380000000000109e+03
5.000000000000000278e-02 1.992305000000000048e-01 4.956635000000000346e+00 4.464620000000000033e+01 2.175164999999999964e+03
5.100000000000000366e-02 1.990540000000000087e-01 3.071184999999999832e+00 4.005575000000000330e+01 2.173970000000000255e+03
5.200000000000000455e-02 1.988860000000000072e-01 1.301155000000000062e+00 3.588569999999999993e+01 2.172835000000000036e+03
5.300000000000000544e-02 1.987320000000000197e-01 -2.924450000000000660e-01 3.225355000000000416e+01 2.171789999999999964e+03
5.399999999999999939e-02 1.985979999999999968e-01 -1.648614999999999942e+00 2.927515000000000001e+01 2.170869999999999891e+03
5.500000000000000028e-02 1.984885000000000121e-01 -2.707810499999999898e+00 2.706835000000000235e+01 2.170109999999999673e+03
5.600000000000000117e-02 1.984075000000000144e-01 -3.415555000000000341e+00 2.574714999999999776e+01 2.169550000000000182e+03
5.700000000000000205e-02 1.983599999999999808e-01 -3.727395000000000458e+00 2.540934999999999988e+01 2.169204999999999927e+03
5.800000000000000294e-02 1.983495000000000119e-01 -3.613814999999999777e+00 2.612144999999999939e+01 2.169105000000000018e+03
5.900000000000000383e-02 1.983774999999999844e-01 -3.063940000000000108e+00 2.790534999999999854e+01 2.169264999999999873e+03
6.000000000000000472e-02 1.984444999999999959e-01 -2.087331099999999662e+00 3.073104999999999620e+01 2.169690000000000055e+03
6.099999999999999867e-02 1.985494999999999899e-01 -7.134200000000001651e-01 3.451579999999999870e+01 2.170369999999999891e+03
6.199999999999999956e-02 1.986890000000000045e-01 1.010915000000000008e+00 3.913080000000000069e+01 2.171284999999999854e+03
6.300000000000000044e-02 1.988584999999999936e-01 3.025185000000000013e+00 4.441204999999999359e+01 2.172409999999999854e+03
6.400000000000000133e-02 1.990514999999999923e-01 5.259724499999999914e+00 5.017399999999999949e+01 2.173695000000000164e+03
6.500000000000000222e-02 1.992629999999999957e-01 7.640220000000000233e+00 5.622339999999999804e+01 2.175114999999999782e+03
6.600000000000000311e-02 1.994850000000000234e-01 1.009187000000000012e+01 6.237175000000000580e+01 2.176609999999999673e+03
6.700000000000000400e-02 1.997114999999999863e-01 1.254345499999999980e+01 6.844604999999999961e+01 2.178144999999999982e+03
6.800000000000000488e-02 1.999365000000000170e-01 1.493059999999999832e+01 7.429755000000000109e+01 2.179670000000000073e+03
6.900000000000000577e-02 2.001545000000000130e-01 1.719919999999999760e+01 7.980889999999999418e+01 2.181164999999999964e+03
7.000000000000000666e-02 2.003610000000000113e-01 1.930774999999999864e+01 8.489969999999999573e+01 2.182579999999999927e+03
7.100000000000000755e-02 2.005544999999999967e-01 2.122939999999999827e+01 8.952965000000000373e+01 2.183909999999999854e+03
7.200000000000000844e-02 2.007324999999999804e-01 2.295244999999999891e+01 9.369899999999999807e+01 2.185139999999999873e+03
7.300000000000000933e-02 2.008949999999999902e-01 2.447984999999999900e+01 9.744559999999999889e+01 2.186269999999999982e+03
7.399999999999999634e-02 2.010440000000000005e-01 2.582775000000000176e+01 1.008384000000000071e+02 2.187305000000000291e+03
7.499999999999999722e-02 2.011815000000000131e-01 2.702215000000000344e+01 1.039694499999999948e+02 2.188265000000000327e+03
7.599999999999999811e-02 2.013109999999999900e-01 2.809570000000000078e+01 1.069414999999999907e+02 2.189164999999999964e+03
7.699999999999999900e-02 2.014349999999999752e-01 2.908380000000000010e+01 1.098575000000000017e+02 2.190024999999999636e+03
7.799999999999999989e-02 2.015569999999999862e-01 3.002060000000000173e+01 1.128104999999999905e+02 2.190875000000000000e+03
7.900000000000000078e-02 2.016809999999999992e-01 3.093605000000000160e+01 1.158735000000000070e+02 2.191734999999999673e+03
8.000000000000000167e-02 2.018079999999999874e-01 3.185330000000000084e+01 1.190944999999999965e+02 2.192614999999999782e+03
8.100000000000000255e-02 2.019400000000000084e-01 3.278714999999999691e+01 1.224954999999999927e+02 2.193529999999999745e+03
8.200000000000000344e-02 2.020774999999999932e-01 3.374340000000000117e+01 1.260690000000000026e+02 2.194485000000000127e+03
8.300000000000000433e-02 2.022209999999999841e-01 3.471895000000000664e+01 1.297839999999999918e+02 2.195465000000000146e+03
8.400000000000000522e-02 2.023679999999999923e-01 3.570275000000000176e+01 1.335865000000000009e+02 2.196484999999999673e+03
8.500000000000000611e-02 2.025170000000000026e-01 3.667705000000000126e+01 1.374089999999999918e+02 2.197515000000000327e+03
8.600000000000000699e-02 2.026660000000000128e-01 3.761925000000000097e+01 1.411719999999999970e+02 2.198545000000000073e+03
8.700000000000000788e-02 2.028114999999999779e-01 3.850369999999999493e+01 1.447934999999999945e+02 2.199550000000000182e+03
8.800000000000000877e-02 2.029515000000000069e-01 3.930355000000000132e+01 1.481935000000000002e+02 2.200525000000000091e+03
8.899999999999999578e-02 2.030824999999999991e-01 3.999280000000000257e+01 1.512969999999999970e+02 2.201434999999999945e+03
8.999999999999999667e-02 2.032025000000000081e-01 4.054775000000000063e+01 1.540399999999999920e+02 2.202269999999999982e+03
9.099999999999999756e-02 2.033090000000000175e-01 4.094885000000000019e+01 1.563725000000000023e+02 2.203015000000000327e+03
9.199999999999999845e-02 2.033999999999999975e-01 4.118139999999999645e+01 1.582595000000000027e+02 2.203659999999999854e+03
9.299999999999999933e-02 2.034745000000000026e-01 4.123694999999999311e+01 1.596835000000000093e+02 2.204184999999999945e+03
9.400000000000000022e-02 2.035315000000000041e-01 4.111339999999999861e+01 1.606460000000000150e+02 2.204595000000000255e+03
9.500000000000000111e-02 2.035720000000000030e-01 4.081504999999999939e+01 1.611634999999999991e+02 2.204890000000000327e+03
9.600000000000000200e-02 2.035965000000000136e-01 4.035285000000000366e+01 1.612694999999999936e+02 2.205069999999999709e+03
9.700000000000000289e-02 2.036054999999999948e-01 3.974294999999999334e+01 1.610095000000000027e+02 2.205144999999999982e+03
9.800000000000000377e-02 2.036009999999999764e-01 3.900634999999999764e+01 1.604415000000000191e+02 2.205125000000000000e+03
9.900000000000000466e-02 2.035845000000000016e-01 3.816734999999999900e+01 1.596264999999999930e+02 2.205029999999999745e+03
1.000000000000000056e-01 2.035595000000000043e-01 3.725234999999999985e+01 1.586329999999999814e+02 2.204860000000000127e+03
1.010000000000000064e-01 2.035270000000000135e-01 3.628844999999999743e+01 1.575264999999999986e+02 2.204644999999999982e+03
1.020000000000000073e-01 2.034905000000000186e-01 3.530214999999999748e+01 1.563695000000000164e+02 2.204394999999999982e+03
1.030000000000000082e-01 2.034509999999999930e-01 3.431824999999999903e+01 1.552185000000000059e+02 2.204130000000000109e+03
1.040000000000000091e-01 2.034119999999999817e-01 3.335885000000000389e+01 1.541229999999999905e+02 2.203860000000000127e+03
1.050000000000000100e-01 2.033735000000000126e-01 3.244235000000000468e+01 1.531204999999999927e+02 2.203590000000000146e+03
1.059999999999999970e-01 2.033389999999999920e-01 3.158270000000000266e+01 1.522389999999999759e+02 2.203345000000000255e+03
1.069999999999999979e-01 2.033070000000000155e-01 3.078940000000000055e+01 1.514934999999999832e+02 2.203125000000000000e+03
1.079999999999999988e-01 2.032800000000000162e-01 3.006665000000000276e+01 1.508870000000000005e+02 2.202930000000000291e+03
1.089999999999999997e-01 2.032569999999999932e-01 2.941389999999999816e+01 1.504120000000000061e+02 2.202769999999999982e+03
1.100000000000000006e-01 2.032390000000000030e-01 2.882574999999999932e+01 1.500484999999999900e+02 2.202639999999999873e+03
1.110000000000000014e-01 2.032235000000000014e-01 2.829269999999999996e+01 1.497665000000000077e+02 2.202525000000000091e+03
1.120000000000000023e-01 2.032114999999999894e-01 2.780150000000000077e+01 1.495305000000000177e+02 2.202440000000000055e+03
1.130000000000000032e-01 2.031995000000000051e-01 2.733644999999999925e+01 1.492975000000000136e+02 2.202355000000000018e+03
1.140000000000000041e-01 2.031884999999999941e-01 2.688034999999999997e+01 1.490229999999999961e+02 2.202269999999999982e+03
1.150000000000000050e-01 2.031749999999999945e-01 2.641559999999999775e+01 1.486630000000000109e+02 2.202175000000000182e+03
1.160000000000000059e-01 2.031574999999999909e-01 2.592524999999999835e+01 1.481765000000000043e+02 2.202059999999999945e+03
1.170000000000000068e-01 2.031364999999999976e-01 2.539439999999999742e+01 1.475285000000000082e+02 2.201909999999999854e+03
1.180000000000000077e-01 2.031089999999999840e-01 2.481105000000000160e+01 1.466930000000000121e+02 2.201715000000000146e+03
1.190000000000000085e-01 2.030740000000000045e-01 2.416665000000000063e+01 1.456535000000000082e+02 2.201485000000000127e+03
1.200000000000000094e-01 2.030330000000000190e-01 2.345714999999999861e+01 1.444064999999999941e+02 2.201195000000000164e+03
1.209999999999999964e-01 2.029834999999999834e-01 2.268299999999999983e+01 1.429584999999999866e+02 2.200860000000000127e+03
1.219999999999999973e-01 2.029274999999999829e-01 2.184919999999999973e+01 1.413294999999999959e+02 2.200474999999999909e+03
1.229999999999999982e-01 2.028645000000000032e-01 2.096509999999999962e+01 1.395494999999999948e+02 2.200045000000000073e+03
1.239999999999999991e-01 2.027970000000000050e-01 2.004380000000000095e+01 1.376570000000000107e+02 2.199579999999999927e+03
1.250000000000000000e-01 2.027249999999999885e-01 1.910140000000000171e+01 1.356984999999999957e+02 2.199085000000000036e+03
1.260000000000000009e-01 2.026514999999999844e-01 1.815615000000000023e+01 1.337230000000000132e+02 2.198579999999999927e+03
1.270000000000000018e-01 2.025770000000000071e-01 1.722719999999999985e+01 1.317820000000000107e+02 2.198064999999999600e+03
1.280000000000000027e-01 2.025035000000000029e-01 1.633370000000000033e+01 1.299250000000000114e+02 2.197559999999999945e+03
1.290000000000000036e-01 2.024340000000000028e-01 1.549375000000000036e+01 1.281984999999999957e+02 2.197079999999999927e+03
1.300000000000000044e-01 2.023685000000000067e-01 1.472340000000000160e+01 1.266399999999999864e+02 2.196619999999999891e+03
1.310000000000000053e-01 2.023094999999999755e-01 1.403589999999999982e+01 1.252810000000000059e+02 2.196215000000000146e+03
1.320000000000000062e-01 2.022574999999999790e-01 1.344125000000000014e+01 1.241424999999999983e+02 2.195845000000000255e+03
1.330000000000000071e-01 2.022134999999999905e-01 1.294565000000000055e+01 1.232369999999999948e+02 2.195539999999999964e+03
1.340000000000000080e-01 2.021779999999999966e-01 1.255160000000000053e+01 1.225664999999999907e+02 2.195284999999999854e+03
1.350000000000000089e-01 2.021514999999999840e-01 1.225789999999999935e+01 1.221235000000000070e+02 2.195095000000000255e+03
1.360000000000000098e-01 2.021320000000000061e-01 1.205995000000000061e+01 1.218919999999999959e+02 2.194960000000000036e+03
1.370000000000000107e-01 2.021209999999999951e-01 1.195015000000000072e+01 1.218515000000000015e+02 2.194875000000000000e+03
1.380000000000000115e-01 2.021169999999999911e-01 1.191854999999999976e+01 1.219749999999999943e+02 2.194840000000000146e+03
1.390000000000000124e-01 2.021189999999999931e-01 1.195315000000000083e+01 1.222305000000000064e+02 2.194845000000000255e+03
1.400000000000000133e-01 2.021255000000000135e-01 1.204100000000000037e+01 1.225870000000000033e+02 2.194880000000000109e+03
1.410000000000000142e-01 2.021364999999999967e-01 1.216849999999999987e+01 1.230115000000000123e+02 2.194949999999999818e+03
1.420000000000000151e-01 2.021499999999999964e-01 1.232189999999999941e+01 1.234724999999999966e+02 2.195039999999999964e+03
1.430000000000000160e-01 2.021644999999999970e-01 1.248819999999999908e+01 1.239410000000000025e+02 2.195140000000000327e+03
1.440000000000000169e-01 2.021799999999999986e-01 1.265525000000000055e+01 1.243905000000000030e+02 2.195239999999999782e+03
1.450000000000000178e-01 2.021950000000000136e-01 1.281240000000000023e+01 1.247994999999999948e+02 2.195345000000000255e+03
1.459999999999999909e-01 2.022089999999999999e-01 1.295070000000000121e+01 1.251500000000000057e+02 2.195440000000000055e+03
1.469999999999999918e-01 2.022204999999999975e-01 1.306310000000000038e+01 1.254295000000000044e+02 2.195520000000000437e+03
1.479999999999999927e-01 2.022304999999999797e-01 1.314460000000000051e+01 1.256299999999999955e+02 2.195585000000000036e+03
1.489999999999999936e-01 2.022370000000000001e-01 1.319244999999999912e+01 1.257489999999999952e+02 2.195635000000000218e+03
1.499999999999999944e-01 2.022414999999999907e-01 1.320589999999999975e+01 1.257884999999999991e+02 2.195670000000000073e+03
1.509999999999999953e-01 2.022430000000000061e-01 1.318614999999999959e+01 1.257545000000000073e+02 2.195684999999999945e+03
1.519999999999999962e-01 2.022415000000000185e-01 1.313625000000000043e+01 1.256564999999999941e+02 2.195675000000000182e+03
1.529999999999999971e-01 2.022384999999999877e-01 1.306054999999999922e+01 1.255084999999999980e+02 2.195654999999999745e+03
1.539999999999999980e-01 2.022335000000000105e-01 1.296464999999999890e+01 1.253245000000000005e+02 2.195625000000000000e+03
1.549999999999999989e-01 2.022275000000000045e-01 1.285464999999999947e+01 1.251204999999999927e+02 2.195585000000000036e+03
1.559999999999999998e-01 2.022209999999999841e-01 1.273710000000000164e+01 1.249120000000000061e+02 2.195539999999999964e+03
1.570000000000000007e-01 2.022140000000000049e-01 1.261819999999999986e+01 1.247154999999999916e+02 2.195494999999999891e+03
1.580000000000000016e-01 2.022070000000000256e-01 1.250370000000000026e+01 1.245414999999999992e+02 2.195449999999999818e+03
1.590000000000000024e-01 2.022019999999999929e-01 1.239850000000000030e+01 1.244020000000000010e+02 2.195409999999999854e+03
