# t [s], A [cm^2], U [cm/s], P [cPa], c [cm/s]
1.000000000000000021e-03 1.549110000000000209e-01 3.972094999999999931e-01 1.037259999999999991e+02 1.915514999999999873e+03
2.000000000000000042e-03 1.548714999999999953e-01 2.117831500000000311e+00 1.002494499999999960e+02 1.915139999999999873e+03
3.000000000000000062e-03 1.547514999999999863e-01 4.195643000000000455e+00 9.564930000000001087e+01 1.914039999999999964e+03
4.000000000000000083e-03 1.545809999999999962e-01 6.494118000000000279e+00 9.070064999999999600e+01 1.912494999999999891e+03
5.000000000000000104e-03 1.543920000000000015e-01 8.940820000000000434e+00 8.625694999999998913e+01 1.910800000000000182e+03
6.000000000000000125e-03 1.542049999999999810e-01 1.137435500000000133e+01 8.261920000000000641e+01 1.909144999999999982e+03
7.000000000000000146e-03 1.540279999999999982e-01 1.359490999999999872e+01 7.958904999999998608e+01 1.907599999999999909e+03
8.000000000000000167e-03 1.538645000000000151e-01 1.550206499999999998e+01 7.690989999999999327e+01 1.906190000000000055e+03
9.000000000000001055e-03 1.537169999999999925e-01 1.711529999999999774e+01 7.456334999999999980e+01 1.904950000000000045e+03
1.000000000000000194e-02 1.535894999999999899e-01 1.847299999999999898e+01 7.261619999999999209e+01 1.903880000000000109e+03
1.099999999999999936e-02 1.534825000000000217e-01 1.959185000000000088e+01 7.105799999999999272e+01 1.902990000000000009e+03
1.200000000000000025e-02 1.533944999999999892e-01 2.048574999999999946e+01 6.983310000000000173e+01 1.902275000000000091e+03
1.300000000000000114e-02 1.533235000000000015e-01 2.116745000000000232e+01 6.887494999999999834e+01 1.901699999999999818e+03
1.400000000000000203e-02 1.532660000000000133e-01 2.164634999999999820e+01 6.809825000000000728e+01 1.901244999999999891e+03
1.499999999999999944e-02 1.532195000000000085e-01 2.195145000000000124e+01 6.744549999999999557e+01 1.900884999999999991e+03
1.600000000000000033e-02 1.531824999999999992e-01 2.216024999999999778e+01 6.697929999999999495e+01 1.900610000000000127e+03
1.700000000000000122e-02 1.531609999999999916e-01 2.239085000000000036e+01 6.690890000000000271e+01 1.900445000000000164e+03
1.800000000000000211e-02 1.531589999999999896e-01 2.275540000000000163e+01 6.749450000000000216e+01 1.900449999999999818e+03
1.900000000000000300e-02 1.531839999999999868e-01 2.330610000000000070e+01 6.888734999999999786e+01 1.900670000000000073e+03
2.000000000000000042e-02 1.532354999999999967e-01 2.400804999999999723e+01 7.101409999999999911e+01 1.901099999999999909e+03
2.100000000000000130e-02 1.533079999999999998e-01 2.475189999999999912e+01 7.356784999999999286e+01 1.901715000000000146e+03
2.200000000000000219e-02 1.533909999999999996e-01 2.539459999999999695e+01 7.610195000000000221e+01 1.902414999999999964e+03
2.299999999999999961e-02 1.534705000000000097e-01 2.580865000000000009e+01 7.817374999999999829e+01 1.903099999999999909e+03
2.400000000000000050e-02 1.535364999999999924e-01 2.592004999999999981e+01 7.947669999999999391e+01 1.903675000000000182e+03
2.500000000000000139e-02 1.535815000000000097e-01 2.572429999999999950e+01 7.991580000000000439e+01 1.904074999999999818e+03
2.600000000000000228e-02 1.536029999999999895e-01 2.527785000000000082e+01 7.960699999999999932e+01 1.904275000000000091e+03
2.700000000000000316e-02 1.536045000000000049e-01 2.467174999999999940e+01 7.881065000000000964e+01 1.904315000000000055e+03
2.800000000000000058e-02 1.535924999999999929e-01 2.399889999999999901e+01 7.783039999999999736e+01 1.904230000000000018e+03
2.900000000000000147e-02 1.535745000000000027e-01 2.332690000000000197e+01 7.691610000000000014e+01 1.904090000000000146e+03
3.000000000000000236e-02 1.535559999999999981e-01 2.268469999999999942e+01 7.620140000000000668e+01 1.903940000000000055e+03
3.099999999999999978e-02 1.535394999999999954e-01 2.206400000000000006e+01 7.569100000000000250e+01 1.903795000000000073e+03
3.200000000000000067e-02 1.535245000000000082e-01 2.143274999999999864e+01 7.529044999999999277e+01 1.903674999999999955e+03
3.300000000000000155e-02 1.535099999999999798e-01 2.075435000000000230e+01 7.486234999999999218e+01 1.903555000000000064e+03
3.400000000000000244e-02 1.534920000000000173e-01 2.000574999999999903e+01 7.428880000000000905e+01 1.903409999999999854e+03
3.500000000000000333e-02 1.534689999999999943e-01 1.919050000000000011e+01 7.352035000000000764e+01 1.903220000000000027e+03
3.600000000000000422e-02 1.534409999999999941e-01 1.834244999999999948e+01 7.260030000000000427e+01 1.902989999999999782e+03
3.700000000000000511e-02 1.534094999999999764e-01 1.752064999999999984e+01 7.165879999999999939e+01 1.902735000000000127e+03
3.799999999999999906e-02 1.533795000000000019e-01 1.679594999999999771e+01 7.088060000000000116e+01 1.902480000000000018e+03
3.899999999999999994e-02 1.533569999999999933e-01 1.623450000000000060e+01 7.045600000000000307e+01 1.902284999999999854e+03
4.000000000000000083e-02 1.533459999999999823e-01 1.588135000000000119e+01 7.053014999999999191e+01 1.902184999999999945e+03
4.100000000000000172e-02 1.533505000000000007e-01 1.575000000000000000e+01 7.116334999999999411e+01 1.902215000000000146e+03
4.200000000000000261e-02 1.533724999999999949e-01 1.581850000000000023e+01 7.231380000000000052e+01 1.902384999999999991e+03
4.300000000000000350e-02 1.534105000000000052e-01 1.603340000000000032e+01 7.384280000000001110e+01 1.902684999999999945e+03
4.400000000000000439e-02 1.534584999999999977e-01 1.631929999999999836e+01 7.554089999999999350e+01 1.903079999999999927e+03
4.499999999999999833e-02 1.535114999999999952e-01 1.659134999999999849e+01 7.716530000000000200e+01 1.903525000000000091e+03
4.599999999999999922e-02 1.535620000000000041e-01 1.676794999999999902e+01 7.847999999999998977e+01 1.903944999999999936e+03
4.700000000000000011e-02 1.536035000000000039e-01 1.678105000000000047e+01 7.929050000000000864e+01 1.904295000000000073e+03
4.800000000000000100e-02 1.536290000000000155e-01 1.658314999999999984e+01 7.946629999999998972e+01 1.904509999999999991e+03
4.900000000000000189e-02 1.536350000000000215e-01 1.614949999999999974e+01 7.895054999999999268e+01 1.904569999999999936e+03
5.000000000000000278e-02 1.536190000000000055e-01 1.547755000000000081e+01 7.775659999999999172e+01 1.904445000000000164e+03
5.100000000000000366e-02 1.535809999999999953e-01 1.458300000000000018e+01 7.595490000000000919e+01 1.904134999999999991e+03
5.200000000000000455e-02 1.535225000000000062e-01 1.349510000000000076e+01 7.365475000000000705e+01 1.903654999999999973e+03
5.300000000000000544e-02 1.534464999999999857e-01 1.225164499999999990e+01 7.098529999999999518e+01 1.903025000000000091e+03
5.399999999999999939e-02 1.533569999999999933e-01 1.089448499999999953e+01 6.807975000000000421e+01 1.902280000000000200e+03
5.500000000000000028e-02 1.532574999999999910e-01 9.466840000000001254e+00 6.506404999999999461e+01 1.901445000000000164e+03
5.600000000000000117e-02 1.531514999999999960e-01 8.011845000000000994e+00 6.205195000000000505e+01 1.900570000000000164e+03
5.700000000000000205e-02 1.530445000000000000e-01 6.571629999999999860e+00 5.914365000000000094e+01 1.899670000000000073e+03
5.800000000000000294e-02 1.529389999999999916e-01 5.187795000000000378e+00 5.642830000000000013e+01 1.898779999999999973e+03
5.900000000000000383e-02 1.528380000000000016e-01 3.901322500000000026e+00 5.398720000000000141e+01 1.897934999999999945e+03
6.000000000000000472e-02 1.527459999999999929e-01 2.752566500000000360e+00 5.189674999999999727e+01 1.897154999999999973e+03
6.099999999999999867e-02 1.526645000000000085e-01 1.780676500000000217e+00 5.022955000000000325e+01 1.896470000000000027e+03
6.199999999999999956e-02 1.525984999999999980e-01 1.022442500000000143e+00 4.905400000000000205e+01 1.895905000000000200e+03
6.300000000000000044e-02 1.525484999999999758e-01 5.107139999999998903e-01 4.843130000000000024e+01 1.895474999999999909e+03
6.400000000000000133e-02 1.525185000000000013e-01 2.725984999999999658e-01 4.841174999999999784e+01 1.895204999999999927e+03
6.500000000000000222e-02 1.525099999999999789e-01 3.277130000000000321e-01 4.903074999999999761e+01 1.895115000000000009e+03
6.600000000000000311e-02 1.525235000000000063e-01 6.867416500000000923e-01 5.030445000000000277e+01 1.895210000000000036e+03
6.700000000000000400e-02 1.525615000000000165e-01 1.350566900000000015e+00 5.222749999999999915e+01 1.895505000000000109e+03
6.800000000000000488e-02 1.526224999999999943e-01 2.310024499999999925e+00 5.477224999999999966e+01 1.896000000000000000e+03
6.900000000000000577e-02 1.527060000000000084e-01 3.546403499999999820e+00 5.788949999999999818e+01 1.896679999999999836e+03
7.000000000000000666e-02 1.528114999999999890e-01 5.032499999999999751e+00 6.151154999999999973e+01 1.897545000000000073e+03
7.100000000000000755e-02 1.529360000000000164e-01 6.734205000000000219e+00 6.555615000000000236e+01 1.898569999999999936e+03
7.200000000000000844e-02 1.530770000000000186e-01 8.612265000000000725e+00 6.993165000000000475e+01 1.899744999999999891e+03
7.300000000000000933e-02 1.532315000000000205e-01 1.062448999999999977e+01 7.454214999999999236e+01 1.901029999999999973e+03
7.399999999999999634e-02 1.533964999999999912e-01 1.272750000000000092e+01 7.929234999999999900e+01 1.902410000000000082e+03
7.499999999999999722e-02 1.535684999999999967e-01 1.487875000000000014e+01 8.409270000000000778e+01 1.903849999999999909e+03
7.599999999999999811e-02 1.537445000000000062e-01 1.703810000000000002e+01 8.886275000000000546e+01 1.905335000000000036e+03
7.699999999999999900e-02 1.539214999999999889e-01 1.916965000000000074e+01 9.353454999999999586e+01 1.906829999999999927e+03
7.799999999999999989e-02 1.540969999999999840e-01 2.124259999999999948e+01 9.805545000000000755e+01 1.908319999999999936e+03
7.900000000000000078e-02 1.542689999999999895e-01 2.323209999999999908e+01 1.023872499999999945e+02 1.909784999999999854e+03
8.000000000000000167e-02 1.544360000000000177e-01 2.512015000000000242e+01 1.065101999999999975e+02 1.911204999999999927e+03
8.100000000000000255e-02 1.545964999999999978e-01 2.689529999999999887e+01 1.104190000000000111e+02 1.912585000000000036e+03
8.200000000000000344e-02 1.547514999999999863e-01 2.855245000000000033e+01 1.141225000000000023e+02 1.913909999999999854e+03
8.300000000000000433e-02 1.548990000000000089e-01 3.009259999999999735e+01 1.176419999999999959e+02 1.915184999999999945e+03
8.400000000000000522e-02 1.550414999999999988e-01 3.152124999999999844e+01 1.210065000000000026e+02 1.916409999999999854e+03
8.500000000000000611e-02 1.551779999999999826e-01 3.284779999999999944e+01 1.242515000000000072e+02 1.917595000000000027e+03
8.600000000000000699e-02 1.553110000000000046e-01 3.408379999999999654e+01 1.274134999999999991e+02 1.918740000000000009e+03
8.700000000000000788e-02 1.554409999999999958e-01 3.524179999999999779e+01 1.305279999999999916e+02 1.919865000000000009e+03
8.800000000000000877e-02 1.555684999999999985e-01 3.633415000000000106e+01 1.336250000000000000e+02 1.920974999999999909e+03
8.899999999999999578e-02 1.556950000000000001e-01 3.737170000000000414e+01 1.367280000000000086e+02 1.922075000000000045e+03
8.999999999999999667e-02 1.558215000000000017e-01 3.836305000000000121e+01 1.398509999999999991e+02 1.923170000000000073e+03
9.099999999999999756e-02 1.559480000000000033e-01 3.931390000000000384e+01 1.430000000000000000e+02 1.924269999999999982e+03
9.199999999999999845e-02 1.560750000000000193e-01 4.022664999999999935e+01 1.461689999999999827e+02 1.925375000000000000e+03
9.299999999999999933e-02 1.562024999999999941e-01 4.110054999999999836e+01 1.493444999999999823e+02 1.926480000000000018e+03
9.400000000000000022e-02 1.563295000000000101e-01 4.193149999999999977e+01 1.525049999999999955e+02 1.927585000000000036e+03
9.500000000000000111e-02 1.564559999999999840e-01 4.271274999999999977e+01 1.556214999999999975e+02 1.928684999999999945e+03
9.600000000000000200e-02 1.565805000000000113e-01 4.343529999999999802e+01 1.586610000000000014e+02 1.929764999999999873e+03
9.700000000000000289e-02 1.567014999999999936e-01 4.408849999999999625e+01 1.615885000000000105e+02 1.930825000000000045e+03
9.800000000000000377e-02 1.568195000000000006e-01 4.466100000000000136e+01 1.643675000000000068e+02 1.931849999999999909e+03
9.900000000000000466e-02 1.569309999999999872e-01 4.514100000000000534e+01 1.669630000000000223e+02 1.932824999999999818e+03
1.000000000000000056e-01 1.570365000000000233e-01 4.551729999999999876e+01 1.693430000000000177e+02 1.933750000000000000e+03
1.010000000000000064e-01 1.571339999999999959e-01 4.577974999999999994e+01 1.714800000000000182e+02 1.934610000000000127e+03
1.020000000000000073e-01 1.572235000000000160e-01 4.591989999999999839e+01 1.733505000000000109e+02 1.935394999999999982e+03
1.030000000000000082e-01 1.573029999999999984e-01 4.593124999999999858e+01 1.749389999999999930e+02 1.936095000000000027e+03
1.040000000000000091e-01 1.573720000000000119e-01 4.580975000000000108e+01 1.762334999999999923e+02 1.936704999999999927e+03
1.050000000000000100e-01 1.574295000000000000e-01 4.555429999999999779e+01 1.772320000000000277e+02 1.937220000000000027e+03
1.059999999999999970e-01 1.574774999999999925e-01 4.516629999999999967e+01 1.779375000000000000e+02 1.937644999999999982e+03
1.069999999999999979e-01 1.575139999999999874e-01 4.465019999999999811e+01 1.783594999999999970e+02 1.937980000000000018e+03
1.079999999999999988e-01 1.575394999999999990e-01 4.401314999999999600e+01 1.785134999999999934e+02 1.938215000000000146e+03
1.089999999999999997e-01 1.575550000000000006e-01 4.326485000000000269e+01 1.784219999999999970e+02 1.938360000000000127e+03
1.100000000000000006e-01 1.575610000000000066e-01 4.241740000000000066e+01 1.781109999999999900e+02 1.938424999999999955e+03
1.110000000000000014e-01 1.575584999999999902e-01 4.148454999999999870e+01 1.776095000000000255e+02 1.938414999999999964e+03
1.120000000000000023e-01 1.575484999999999802e-01 4.048140000000000072e+01 1.769505000000000052e+02 1.938329999999999927e+03
1.130000000000000032e-01 1.575320000000000054e-01 3.942414999999999736e+01 1.761659999999999968e+02 1.938195000000000164e+03
1.140000000000000041e-01 1.575095000000000245e-01 3.832890000000000441e+01 1.752909999999999968e+02 1.938005000000000109e+03
1.150000000000000050e-01 1.574829999999999841e-01 3.721179999999999666e+01 1.743555000000000064e+02 1.937784999999999854e+03
1.160000000000000059e-01 1.574534999999999962e-01 3.608800000000000097e+01 1.733890000000000100e+02 1.937529999999999973e+03
1.170000000000000068e-01 1.574214999999999920e-01 3.497129999999999939e+01 1.724189999999999827e+02 1.937259999999999991e+03
1.180000000000000077e-01 1.573890000000000011e-01 3.387399999999999523e+01 1.714664999999999964e+02 1.936974999999999909e+03
1.190000000000000085e-01 1.573559999999999959e-01 3.280630000000000024e+01 1.705489999999999782e+02 1.936690000000000055e+03
1.200000000000000094e-01 1.573235000000000050e-01 3.177609999999999957e+01 1.696790000000000020e+02 1.936404999999999973e+03
1.209999999999999964e-01 1.572919999999999874e-01 3.078900000000000148e+01 1.688634999999999877e+02 1.936125000000000000e+03
1.219999999999999973e-01 1.572614999999999985e-01 2.984814999999999685e+01 1.681040000000000134e+02 1.935859999999999900e+03
1.229999999999999982e-01 1.572330000000000116e-01 2.895420000000000016e+01 1.673985000000000127e+02 1.935605000000000018e+03
1.239999999999999991e-01 1.572054999999999980e-01 2.810569999999999879e+01 1.667384999999999877e+02 1.935365000000000009e+03
1.250000000000000000e-01 1.571790000000000131e-01 2.729925000000000068e+01 1.661145000000000209e+02 1.935130000000000109e+03
1.260000000000000009e-01 1.571545000000000025e-01 2.652960000000000207e+01 1.655109999999999957e+02 1.934909999999999854e+03
1.270000000000000018e-01 1.571295000000000053e-01 2.579019999999999868e+01 1.649124999999999943e+02 1.934695000000000164e+03
1.280000000000000027e-01 1.571049999999999947e-01 2.507359999999999900e+01 1.643009999999999877e+02 1.934474999999999909e+03
1.290000000000000036e-01 1.570805000000000118e-01 2.437164999999999893e+01 1.636589999999999918e+02 1.934255000000000109e+03
1.300000000000000044e-01 1.570544999999999858e-01 2.367614999999999981e+01 1.629680000000000177e+02 1.934025000000000091e+03
1.310000000000000053e-01 1.570265000000000133e-01 2.297919999999999874e+01 1.622129999999999939e+02 1.933779999999999973e+03
1.320000000000000062e-01 1.569964999999999833e-01 2.227364999999999995e+01 1.613799999999999955e+02 1.933519999999999982e+03
1.330000000000000071e-01 1.569639999999999924e-01 2.155324999999999847e+01 1.604579999999999984e+02 1.933230000000000018e+03
1.340000000000000080e-01 1.569280000000000119e-01 2.081304999999999694e+01 1.594389999999999930e+02 1.932920000000000073e+03
1.350000000000000089e-01 1.568884999999999863e-01 2.004984999999999928e+01 1.583199999999999932e+02 1.932579999999999927e+03
1.360000000000000098e-01 1.568459999999999854e-01 1.926219999999999999e+01 1.571009999999999991e+02 1.932210000000000036e+03
1.370000000000000107e-01 1.567999999999999949e-01 1.845045000000000002e+01 1.557874999999999943e+02 1.931809999999999945e+03
1.380000000000000115e-01 1.567500000000000004e-01 1.761690000000000111e+01 1.543890000000000100e+02 1.931380000000000109e+03
1.390000000000000124e-01 1.566970000000000030e-01 1.676570000000000249e+01 1.529180000000000064e+02 1.930925000000000182e+03
1.400000000000000133e-01 1.566414999999999891e-01 1.590259999999999962e+01 1.513905000000000030e+02 1.930445000000000164e+03
1.410000000000000142e-01 1.565840000000000010e-01 1.503480000000000061e+01 1.498269999999999982e+02 1.929940000000000055e+03
1.420000000000000151e-01 1.565249999999999975e-01 1.417075000000000173e+01 1.482475000000000023e+02 1.929430000000000064e+03
1.430000000000000160e-01 1.564655000000000074e-01 1.331954999999999956e+01 1.466764999999999759e+02 1.928910000000000082e+03
1.440000000000000169e-01 1.564050000000000162e-01 1.249094999999999978e+01 1.451360000000000241e+02 1.928390000000000100e+03
1.450000000000000178e-01 1.563459999999999850e-01 1.169440499999999972e+01 1.436479999999999961e+02 1.927875000000000000e+03
1.459999999999999909e-01 1.562884999999999969e-01 1.093921500000000080e+01 1.422334999999999923e+02 1.927380000000000109e+03
1.469999999999999918e-01 1.562330000000000108e-01 1.023379999999999868e+01 1.409124999999999943e+02 1.926894999999999982e+03
1.479999999999999927e-01 1.561810000000000143e-01 9.585610000000000852e+00 1.396990000000000123e+02 1.926444999999999936e+03
1.489999999999999936e-01 1.561325000000000074e-01 9.000560000000000116e+00 1.386064999999999827e+02 1.926019999999999982e+03
1.499999999999999944e-01 1.560880000000000045e-01 8.483190000000000452e+00 1.376435000000000173e+02 1.925634999999999991e+03
1.509999999999999953e-01 1.560485000000000066e-01 8.036125000000000185e+00 1.368129999999999882e+02 1.925284999999999854e+03
1.519999999999999962e-01 1.560130000000000128e-01 7.660389999999999588e+00 1.361159999999999854e+02 1.924974999999999909e+03
1.529999999999999971e-01 1.559825000000000239e-01 7.355204999999999771e+00 1.355494999999999948e+02 1.924704999999999927e+03
1.539999999999999980e-01 1.559570000000000123e-01 7.118165000000000298e+00 1.351065000000000111e+02 1.924474999999999909e+03
1.549999999999999989e-01 1.559355000000000047e-01 6.945370000000000488e+00 1.347760000000000105e+02 1.924285000000000082e+03
1.559999999999999998e-01 1.559185000000000154e-01 6.831659999999999400e+00 1.345475000000000136e+02 1.924134999999999991e+03
1.570000000000000007e-01 1.559055000000000024e-01 6.770830000000000126e+00 1.344060000000000059e+02 1.924014999999999873e+03
1.580000000000000016e-01 1.558954999999999924e-01 6.755919999999999703e+00 1.343360000000000127e+02 1.923929999999999836e+03
1.590000000000000024e-01 1.558889999999999998e-01 6.779484999999999317e+00 1.343220000000000027e+02 1.923865000000000009e+03
