# t [s], A [cm^2], U [cm/s], P [cPa], c [cm/s]
1.000000000000000021e-03 5.831625000000000281e-01 4.192000000000001281e-03 1.091340000000000003e+02 1.521440000000000055e+03
2.000000000000000042e-03 5.831545000000000201e-01 8.382550000000002065e-04 1.091124999999999972e+02 1.521429999999999836e+03
3.000000000000000062e-03 5.832045000000000146e-01 8.905029999999999890e-02 1.092014999999999958e+02 1.521454999999999927e+03
4.000000000000000083e-03 5.832530000000000214e-01 1.784386500000000042e-01 1.093119999999999976e+02 1.521485000000000127e+03
5.000000000000000104e-03 5.832365000000000466e-01 1.610073999999999950e-01 1.092785000000000082e+02 1.521485000000000127e+03
6.000000000000000125e-03 5.831815000000000193e-01 7.098500000000002030e-02 1.090964999999999918e+02 1.521440000000000055e+03
7.000000000000000146e-03 5.831279999999999797e-01 -2.225199999999999401e-02 1.088425000000000011e+02 1.521384999999999991e+03
8.000000000000000167e-03 5.830500000000000682e-01 -1.677445000000000186e-01 1.084749999999999943e+02 1.521299999999999955e+03
9.000000000000001055e-03 5.829170000000000185e-01 -4.241949999999998777e-01 1.079069999999999965e+02 1.521174999999999955e+03
1.000000000000000194e-02 5.827234999999999498e-01 -7.965550000000000130e-01 1.070969999999999942e+02 1.520980000000000018e+03
1.099999999999999936e-02 5.824599999999999778e-01 -1.292474999999999818e+00 1.059980000000000047e+02 1.520720000000000027e+03
1.200000000000000025e-02 5.821110000000000451e-01 -1.921005000000000074e+00 1.045607500000000130e+02 1.520375000000000000e+03
1.300000000000000114e-02 5.816875000000000240e-01 -2.640919999999999934e+00 1.027937499999999886e+02 1.519930000000000064e+03
1.400000000000000203e-02 5.812325000000000408e-01 -3.343595000000000095e+00 1.008044000000000011e+02 1.519425000000000182e+03
1.499999999999999944e-02 5.808039999999999869e-01 -3.893580000000000041e+00 9.876869999999999550e+01 1.518885000000000218e+03
1.600000000000000033e-02 5.804420000000000135e-01 -4.186336499999999461e+00 9.685745000000000005e+01 1.518349999999999909e+03
1.700000000000000122e-02 5.801574999999999926e-01 -4.182168649999999488e+00 9.517709999999999582e+01 1.517855000000000018e+03
1.800000000000000211e-02 5.799324999999999619e-01 -3.907228499999999993e+00 9.374760000000000559e+01 1.517404999999999973e+03
1.900000000000000300e-02 5.797339999999999716e-01 -3.432449999999999779e+00 9.251224999999999454e+01 1.516994999999999891e+03
2.000000000000000042e-02 5.795255000000000267e-01 -2.843932999999999822e+00 9.137010000000000787e+01 1.516605000000000018e+03
2.100000000000000130e-02 5.792810000000000459e-01 -2.215030000000000054e+00 9.021549999999999159e+01 1.516210000000000036e+03
2.200000000000000219e-02 5.789885000000000170e-01 -1.587654999999999816e+00 8.897230000000000416e+01 1.515799999999999955e+03
2.299999999999999961e-02 5.786540000000000017e-01 -9.679800000000002846e-01 8.761254999999999882e+01 1.515365000000000009e+03
2.400000000000000050e-02 5.782944999999999336e-01 -3.365750000000002906e-01 8.615455000000000041e+01 1.514904999999999973e+03
2.500000000000000139e-02 5.779290000000000260e-01 3.326500000000001123e-01 8.464330000000001064e+01 1.514430000000000064e+03
2.600000000000000228e-02 5.775694999999999579e-01 1.053535000000000110e+00 8.312454999999999927e+01 1.513949999999999818e+03
2.700000000000000316e-02 5.772180000000000089e-01 1.815415000000000001e+00 8.162205000000000155e+01 1.513474999999999909e+03
2.800000000000000058e-02 5.768630000000000146e-01 2.580484999999999474e+00 8.012500000000000000e+01 1.513000000000000000e+03
2.900000000000000147e-02 5.764869999999999717e-01 3.289649999999999963e+00 7.858774999999999977e+01 1.512509999999999991e+03
3.000000000000000236e-02 5.760665000000000369e-01 3.874395000000000699e+00 7.694024999999999181e+01 1.512000000000000000e+03
3.099999999999999978e-02 5.755820000000000380e-01 4.271270000000000344e+00 7.510540000000000305e+01 1.511445000000000164e+03
3.200000000000000067e-02 5.750210000000000043e-01 4.435684999999999434e+00 7.302009999999999934e+01 1.510835000000000036e+03
3.300000000000000155e-02 5.743835000000000468e-01 4.351894999999998959e+00 7.065354999999999563e+01 1.510154999999999973e+03
3.400000000000000244e-02 5.736820000000000253e-01 4.036870000000000402e+00 6.801924999999999955e+01 1.509420000000000073e+03
3.500000000000000333e-02 5.729395000000000460e-01 3.536709999999999798e+00 6.517754999999999654e+01 1.508625000000000000e+03
3.600000000000000422e-02 5.721880000000000299e-01 2.918245000000000200e+00 6.222820000000000107e+01 1.507805000000000064e+03
3.700000000000000511e-02 5.714619999999999145e-01 2.257224999999999593e+00 5.929645000000000010e+01 1.506974999999999909e+03
3.799999999999999906e-02 5.707915000000000072e-01 1.627234999999999765e+00 5.651565000000000083e+01 1.506174999999999955e+03
3.899999999999999994e-02 5.702055000000000318e-01 1.091479999999999784e+00 5.401194999999999879e+01 1.505440000000000055e+03
4.000000000000000083e-02 5.697225000000000206e-01 6.978299999999997283e-01 5.189159999999999684e+01 1.504789999999999964e+03
4.100000000000000172e-02 5.693550000000000555e-01 4.779249999999999332e-01 5.023409999999999798e+01 1.504259999999999991e+03
4.200000000000000261e-02 5.691089999999999760e-01 4.488500000000001933e-01 4.908944999999999936e+01 1.503855000000000018e+03
4.300000000000000350e-02 5.689859999999999918e-01 6.166300000000000114e-01 4.848059999999999548e+01 1.503594999999999800e+03
4.400000000000000439e-02 5.689830000000000165e-01 9.803095000000000558e-01 4.840820000000000078e+01 1.503485000000000127e+03
4.499999999999999833e-02 5.690950000000000175e-01 1.535533999999999955e+00 4.885679999999999978e+01 1.503509999999999991e+03
4.599999999999999922e-02 5.693165000000000031e-01 2.276963499999999918e+00 4.980069999999999908e+01 1.503684999999999945e+03
4.700000000000000011e-02 5.696410000000000640e-01 3.199135000000000062e+00 5.120874999999999488e+01 1.503994999999999891e+03
4.800000000000000100e-02 5.700625000000000275e-01 4.295939999999999870e+00 5.304670000000000130e+01 1.504429999999999836e+03
4.900000000000000189e-02 5.705729999999999968e-01 5.559228499999999684e+00 5.527799999999999869e+01 1.504980000000000018e+03
5.000000000000000278e-02 5.711649999999999228e-01 6.977116499999999277e+00 5.786309999999999576e+01 1.505644999999999982e+03
5.100000000000000366e-02 5.718269999999999742e-01 8.532713499999999840e+00 6.075849999999999795e+01 1.506405000000000200e+03
5.200000000000000455e-02 5.725485000000000158e-01 1.020379499999999950e+01 6.391594999999999516e+01 1.507244999999999891e+03
5.300000000000000544e-02 5.733160000000000478e-01 1.196296500000000052e+01 6.728239999999999554e+01 1.508154999999999973e+03
5.399999999999999939e-02 5.741155000000000008e-01 1.377932999999999986e+01 7.080119999999999436e+01 1.509119999999999891e+03
5.500000000000000028e-02 5.749334999999999862e-01 1.562008499999999955e+01 7.441409999999999059e+01 1.510130000000000109e+03
5.600000000000000117e-02 5.757554999999999756e-01 1.745282500000000070e+01 7.806385000000000218e+01 1.511154999999999973e+03
5.700000000000000205e-02 5.765709999999999447e-01 1.924749999999999872e+01 8.169724999999999682e+01 1.512195000000000164e+03
5.800000000000000294e-02 5.773695000000000910e-01 2.097810000000000130e+01 8.526779999999999404e+01 1.513235000000000127e+03
5.900000000000000383e-02 5.781435000000000324e-01 2.262385000000000090e+01 8.873789999999999623e+01 1.514250000000000000e+03
6.000000000000000472e-02 5.788889999999999869e-01 2.416969999999999885e+01 9.207990000000000919e+01 1.515244999999999891e+03
6.099999999999999867e-02 5.796025000000000205e-01 2.560634999999999906e+01 9.527779999999999916e+01 1.516210000000000036e+03
6.199999999999999956e-02 5.802844999999999809e-01 2.692990000000000350e+01 9.832400000000001228e+01 1.517134999999999991e+03
6.300000000000000044e-02 5.809364999999999668e-01 2.814104999999999990e+01 1.012224999999999966e+02 1.518029999999999973e+03
6.400000000000000133e-02 5.815620000000000234e-01 2.924425000000000097e+01 1.039835000000000065e+02 1.518884999999999991e+03
6.500000000000000222e-02 5.821644999999999737e-01 3.024689999999999657e+01 1.066233000000000004e+02 1.519704999999999927e+03
6.600000000000000311e-02 5.827495000000000314e-01 3.115805000000000291e+01 1.091630000000000109e+02 1.520500000000000000e+03
6.700000000000000400e-02 5.833209999999999784e-01 3.198825000000000074e+01 1.116244999999999976e+02 1.521279999999999973e+03
6.800000000000000488e-02 5.838849999999999874e-01 3.274790000000000134e+01 1.140304999999999893e+02 1.522029999999999973e+03
6.900000000000000577e-02 5.844445000000000334e-01 3.344729999999999848e+01 1.164014999999999986e+02 1.522775000000000091e+03
7.000000000000000666e-02 5.850039999999999685e-01 3.409555000000000291e+01 1.187554999999999978e+02 1.523510000000000218e+03
7.100000000000000755e-02 5.855645000000000433e-01 3.469989999999999952e+01 1.211059999999999945e+02 1.524244999999999891e+03
7.200000000000000844e-02 5.861285000000000522e-01 3.526574999999999704e+01 1.234604999999999961e+02 1.524980000000000018e+03
7.300000000000000933e-02 5.866940000000000488e-01 3.579564999999999486e+01 1.258204999999999956e+02 1.525704999999999927e+03
7.399999999999999634e-02 5.872610000000000330e-01 3.628979999999999961e+01 1.281820000000000164e+02 1.526440000000000055e+03
7.499999999999999722e-02 5.878244999999999720e-01 3.674575000000000102e+01 1.305344999999999800e+02 1.527164999999999964e+03
7.599999999999999811e-02 5.883819999999999606e-01 3.715885000000000105e+01 1.328614999999999782e+02 1.527884999999999991e+03
7.699999999999999900e-02 5.889269999999999783e-01 3.752240000000000464e+01 1.351434999999999889e+02 1.528594999999999800e+03
7.799999999999999989e-02 5.894550000000000622e-01 3.782860000000000156e+01 1.373559999999999945e+02 1.529280000000000200e+03
7.900000000000000078e-02 5.899590000000000112e-01 3.806915000000000049e+01 1.394745000000000061e+02 1.529950000000000045e+03
8.000000000000000167e-02 5.904335000000000555e-01 3.823555000000000348e+01 1.414730000000000132e+02 1.530579999999999927e+03
8.100000000000000255e-02 5.908735000000000515e-01 3.831994999999999862e+01 1.433280000000000030e+02 1.531174999999999955e+03
8.200000000000000344e-02 5.912739999999999663e-01 3.831580000000000297e+01 1.450180000000000007e+02 1.531724999999999909e+03
8.300000000000000433e-02 5.916319999999999357e-01 3.821804999999999808e+01 1.465235000000000127e+02 1.532224999999999909e+03
8.400000000000000522e-02 5.919429999999999970e-01 3.802349999999999852e+01 1.478319999999999936e+02 1.532670000000000073e+03
8.500000000000000611e-02 5.922069999999999279e-01 3.773125000000000284e+01 1.489339999999999975e+02 1.533054999999999836e+03
8.600000000000000699e-02 5.924230000000000329e-01 3.734229999999999450e+01 1.498265000000000100e+02 1.533375000000000000e+03
8.700000000000000788e-02 5.925909999999999789e-01 3.686005000000000109e+01 1.505105000000000075e+02 1.533639999999999873e+03
8.800000000000000877e-02 5.927139999999999631e-01 3.629000000000000625e+01 1.509920000000000186e+02 1.533840000000000146e+03
8.899999999999999578e-02 5.927934999999999732e-01 3.563935000000000031e+01 1.512830000000000155e+02 1.533990000000000009e+03
8.999999999999999667e-02 5.928335000000000132e-01 3.491729999999999734e+01 1.513979999999999961e+02 1.534079999999999927e+03
9.099999999999999756e-02 5.928379999999999761e-01 3.413415000000000532e+01 1.513550000000000182e+02 1.534115000000000009e+03
9.199999999999999845e-02 5.928130000000000344e-01 3.330129999999999768e+01 1.511750000000000114e+02 1.534115000000000009e+03
9.299999999999999933e-02 5.927614999999999412e-01 3.243099999999999739e+01 1.508810000000000002e+02 1.534075000000000045e+03
9.400000000000000022e-02 5.926905000000000090e-01 3.153569999999999851e+01 1.504954999999999927e+02 1.533994999999999891e+03
9.500000000000000111e-02 5.926040000000000196e-01 3.062754999999999939e+01 1.500420000000000016e+02 1.533900000000000091e+03
9.600000000000000200e-02 5.925080000000000346e-01 2.971840000000000259e+01 1.495444999999999993e+02 1.533779999999999973e+03
9.700000000000000289e-02 5.924064999999999470e-01 2.881905000000000072e+01 1.490235000000000127e+02 1.533644999999999982e+03
9.800000000000000377e-02 5.923040000000000527e-01 2.793905000000000172e+01 1.484970000000000141e+02 1.533505000000000109e+03
9.900000000000000466e-02 5.922040000000000637e-01 2.708639999999999759e+01 1.479834999999999923e+02 1.533360000000000127e+03
1.000000000000000056e-01 5.921085000000000376e-01 2.626715000000000089e+01 1.474939999999999998e+02 1.533224999999999909e+03
1.010000000000000064e-01 5.920199999999999907e-01 2.548535000000000039e+01 1.470389999999999873e+02 1.533090000000000146e+03
1.020000000000000073e-01 5.919389999999999930e-01 2.474305000000000021e+01 1.466234999999999786e+02 1.532960000000000036e+03
1.030000000000000082e-01 5.918654999999999333e-01 2.404019999999999868e+01 1.462495000000000118e+02 1.532845000000000027e+03
1.040000000000000091e-01 5.917995000000000339e-01 2.337484999999999857e+01 1.459155000000000086e+02 1.532735000000000127e+03
1.050000000000000100e-01 5.917394999999999738e-01 2.274340000000000117e+01 1.456164999999999736e+02 1.532634999999999991e+03
1.059999999999999970e-01 5.916835000000000289e-01 2.214059999999999917e+01 1.453450000000000273e+02 1.532545000000000073e+03
1.069999999999999979e-01 5.916295000000000304e-01 2.156044999999999945e+01 1.450905000000000200e+02 1.532454999999999927e+03
1.079999999999999988e-01 5.915740000000000443e-01 2.099595000000000056e+01 1.448430000000000177e+02 1.532375000000000000e+03
1.089999999999999997e-01 5.915154999999999719e-01 2.043984999999999985e+01 1.445894999999999868e+02 1.532285000000000082e+03
1.100000000000000006e-01 5.914504999999999901e-01 1.988475000000000037e+01 1.443179999999999836e+02 1.532199999999999818e+03
1.110000000000000014e-01 5.913770000000000415e-01 1.932385000000000019e+01 1.440174999999999841e+02 1.532105000000000018e+03
1.120000000000000023e-01 5.912935000000000274e-01 1.875084999999999980e+01 1.436775000000000091e+02 1.532000000000000000e+03
1.130000000000000032e-01 5.911969999999999725e-01 1.816049999999999898e+01 1.432889999999999873e+02 1.531884999999999991e+03
1.140000000000000041e-01 5.910874999999999879e-01 1.754865000000000208e+01 1.428460000000000036e+02 1.531759999999999991e+03
1.150000000000000050e-01 5.909640000000000448e-01 1.691274999999999906e+01 1.423444999999999823e+02 1.531615000000000009e+03
1.160000000000000059e-01 5.908264999999999212e-01 1.625155000000000172e+01 1.417835000000000036e+02 1.531460000000000036e+03
1.170000000000000068e-01 5.906754999999999090e-01 1.556559999999999988e+01 1.411649999999999920e+02 1.531279999999999973e+03
1.180000000000000077e-01 5.905130000000000656e-01 1.485679999999999978e+01 1.404929999999999950e+02 1.531089999999999918e+03
1.190000000000000085e-01 5.903404999999999347e-01 1.412876500000000135e+01 1.397740000000000009e+02 1.530880000000000109e+03
1.200000000000000094e-01 5.901610000000000467e-01 1.338620999999999839e+01 1.390190000000000055e+02 1.530670000000000073e+03
1.209999999999999964e-01 5.899769999999999737e-01 1.263538000000000139e+01 1.382384999999999877e+02 1.530444999999999936e+03
1.219999999999999973e-01 5.897909999999999542e-01 1.188318500000000100e+01 1.374459999999999980e+02 1.530215000000000146e+03
1.229999999999999982e-01 5.896069999999999922e-01 1.113745000000000118e+01 1.366560000000000059e+02 1.529985000000000127e+03
1.239999999999999991e-01 5.894285000000000219e-01 1.040612999999999921e+01 1.358824999999999932e+02 1.529755000000000109e+03
1.250000000000000000e-01 5.892589999999999772e-01 9.697510000000001185e+00 1.351410000000000196e+02 1.529534999999999854e+03
1.260000000000000009e-01 5.891005000000000269e-01 9.019405000000000783e+00 1.344449999999999932e+02 1.529320000000000164e+03
1.270000000000000018e-01 5.889575000000000227e-01 8.379245000000000942e+00 1.338075000000000045e+02 1.529130000000000109e+03
1.280000000000000027e-01 5.888320000000000221e-01 7.783459999999999823e+00 1.332404999999999973e+02 1.528950000000000045e+03
1.290000000000000036e-01 5.887249999999999428e-01 7.237460000000000448e+00 1.327520000000000095e+02 1.528789999999999964e+03
1.300000000000000044e-01 5.886379999999999946e-01 6.745379999999999043e+00 1.323489999999999895e+02 1.528654999999999973e+03
1.310000000000000053e-01 5.885719999999999841e-01 6.309879999999999711e+00 1.320364999999999895e+02 1.528545000000000073e+03
1.320000000000000062e-01 5.885274999999999812e-01 5.932154999999999845e+00 1.318145000000000095e+02 1.528454999999999927e+03
1.330000000000000071e-01 5.885029999999999983e-01 5.611895000000000522e+00 1.316814999999999998e+02 1.528394999999999982e+03
1.340000000000000080e-01 5.884975000000000067e-01 5.347360000000000113e+00 1.316340000000000146e+02 1.528360000000000127e+03
1.350000000000000089e-01 5.885095000000000187e-01 5.135500000000000398e+00 1.316645000000000039e+02 1.528349999999999909e+03
1.360000000000000098e-01 5.885365000000000180e-01 4.972139999999999560e+00 1.317649999999999864e+02 1.528355000000000018e+03
1.370000000000000107e-01 5.885765000000000580e-01 4.852175000000000793e+00 1.319250000000000114e+02 1.528380000000000109e+03
1.380000000000000115e-01 5.886264999999999414e-01 4.769809999999999661e+00 1.321340000000000146e+02 1.528420000000000073e+03
1.390000000000000124e-01 5.886839999999999851e-01 4.718835000000000335e+00 1.323790000000000191e+02 1.528480000000000018e+03
1.400000000000000133e-01 5.887455000000000327e-01 4.692845000000000155e+00 1.326480000000000246e+02 1.528539999999999964e+03
1.410000000000000142e-01 5.888094999999999857e-01 4.685489999999999711e+00 1.329300000000000068e+02 1.528610000000000127e+03
1.420000000000000151e-01 5.888729999999999798e-01 4.690659999999999386e+00 1.332135000000000105e+02 1.528684999999999945e+03
1.430000000000000160e-01 5.889340000000000686e-01 4.702709999999999724e+00 1.334884999999999877e+02 1.528755000000000109e+03
1.440000000000000169e-01 5.889904999999999724e-01 4.716559999999999420e+00 1.337470000000000141e+02 1.528829999999999927e+03
1.450000000000000178e-01 5.890414999999999957e-01 4.727854999999999919e+00 1.339815000000000111e+02 1.528894999999999982e+03
1.459999999999999909e-01 5.890854999999999286e-01 4.732969999999999899e+00 1.341870000000000118e+02 1.528954999999999927e+03
1.469999999999999918e-01 5.891220000000000345e-01 4.729110000000000369e+00 1.343605000000000018e+02 1.529005000000000109e+03
1.479999999999999927e-01 5.891509999999999803e-01 4.714270000000000849e+00 1.344984999999999786e+02 1.529050000000000182e+03
1.489999999999999936e-01 5.891724999999999879e-01 4.687215000000000131e+00 1.346014999999999873e+02 1.529090000000000146e+03
1.499999999999999944e-01 5.891859999999999875e-01 4.647439999999999571e+00 1.346700000000000159e+02 1.529109999999999900e+03
1.509999999999999953e-01 5.891919999999999380e-01 4.595079999999999387e+00 1.347055000000000007e+02 1.529125000000000000e+03
1.519999999999999962e-01 5.891925000000000079e-01 4.530814999999999593e+00 1.347115000000000009e+02 1.529134999999999991e+03
1.529999999999999971e-01 5.891874999999999751e-01 4.455795000000000172e+00 1.346910000000000025e+02 1.529139999999999873e+03
1.539999999999999980e-01 5.891769999999999508e-01 4.371509999999999785e+00 1.346480000000000246e+02 1.529130000000000109e+03
1.549999999999999989e-01 5.891640000000000210e-01 4.279679999999999929e+00 1.345865000000000009e+02 1.529119999999999891e+03
1.559999999999999998e-01 5.891474999999999351e-01 4.182154999999999845e+00 1.345105000000000075e+02 1.529099999999999909e+03
1.570000000000000007e-01 5.891290000000000138e-01 4.080824999999999925e+00 1.344234999999999900e+02 1.529085000000000036e+03
1.580000000000000016e-01 5.891095000000000637e-01 3.977484999999999715e+00 1.343294999999999959e+02 1.529054999999999836e+03
1.590000000000000024e-01 5.890895000000000437e-01 3.873815000000000452e+00 1.342309999999999945e+02 1.529034999999999854e+03
