# t [s], A [cm^2], U [cm/s], P [cPa], c [cm/s]
1.000000000000000021e-03 1.388780000000000014e-01 3.226320000000000299e-01 8.785964999999998781e+01 1.817369999999999891e+03
2.000000000000000042e-03 1.388534999999999908e-01 1.746086000000000027e+00 8.506309999999999150e+01 1.817115000000000009e+03
3.000000000000000062e-03 1.387674999999999881e-01 3.460227999999999859e+00 8.144575000000000387e+01 1.816259999999999991e+03
4.000000000000000083e-03 1.386399999999999855e-01 5.347615000000000229e+00 7.751205000000000211e+01 1.815025000000000091e+03
5.000000000000000104e-03 1.384954999999999936e-01 7.362040000000000362e+00 7.391360000000000241e+01 1.813625000000000000e+03
6.000000000000000125e-03 1.383489999999999998e-01 9.397854999999999848e+00 7.094210000000001060e+01 1.812219999999999800e+03
7.000000000000000146e-03 1.382085000000000119e-01 1.130377000000000010e+01 6.850169999999999959e+01 1.810894999999999982e+03
8.000000000000000167e-03 1.380764999999999909e-01 1.297647500000000065e+01 6.637135000000000673e+01 1.809670000000000073e+03
9.000000000000001055e-03 1.379555000000000087e-01 1.440878999999999976e+01 6.447429999999999950e+01 1.808554999999999836e+03
1.000000000000000194e-02 1.378479999999999983e-01 1.563250000000000028e+01 6.285549999999999926e+01 1.807575000000000045e+03
1.099999999999999936e-02 1.377550000000000163e-01 1.666479999999999961e+01 6.153199999999999648e+01 1.806744999999999891e+03
1.200000000000000025e-02 1.376765000000000072e-01 1.751255000000000095e+01 6.046705000000000041e+01 1.806045000000000073e+03
1.300000000000000114e-02 1.376114999999999977e-01 1.818365000000000009e+01 5.961114999999999498e+01 1.805474999999999909e+03
1.400000000000000203e-02 1.375574999999999992e-01 1.868464999999999776e+01 5.890859999999999985e+01 1.805005000000000109e+03
1.499999999999999944e-02 1.375124999999999820e-01 1.902604999999999791e+01 5.830289999999999395e+01 1.804625000000000000e+03
1.600000000000000033e-02 1.374750000000000139e-01 1.924170000000000158e+01 5.778204999999999814e+01 1.804309999999999945e+03
1.700000000000000122e-02 1.374454999999999982e-01 1.940075000000000216e+01 5.742910000000000537e+01 1.804070000000000164e+03
1.800000000000000211e-02 1.374274999999999802e-01 1.959459999999999980e+01 5.741575000000000273e+01 1.803924999999999955e+03
1.900000000000000300e-02 1.374250000000000194e-01 1.990225000000000222e+01 5.792595000000000027e+01 1.803920000000000073e+03
2.000000000000000042e-02 1.374424999999999952e-01 2.035699999999999932e+01 5.905535000000000423e+01 1.804085000000000036e+03
2.100000000000000130e-02 1.374799999999999911e-01 2.093114999999999881e+01 6.074465000000000003e+01 1.804434999999999945e+03
2.200000000000000219e-02 1.375345000000000040e-01 2.154554999999999865e+01 6.277899999999999636e+01 1.804924999999999955e+03
2.299999999999999961e-02 1.375985000000000125e-01 2.209649999999999892e+01 6.484720000000000084e+01 1.805509999999999991e+03
2.400000000000000050e-02 1.376634999999999942e-01 2.248675000000000068e+01 6.663089999999999691e+01 1.806105000000000018e+03
2.500000000000000139e-02 1.377205000000000235e-01 2.265234999999999843e+01 6.788929999999999154e+01 1.806639999999999873e+03
2.600000000000000228e-02 1.377639999999999976e-01 2.257469999999999999e+01 6.851314999999999600e+01 1.807050000000000182e+03
2.700000000000000316e-02 1.377915000000000112e-01 2.227965000000000018e+01 6.853509999999999991e+01 1.807315000000000055e+03
2.800000000000000058e-02 1.378024999999999944e-01 2.182294999999999874e+01 6.809945000000000448e+01 1.807440000000000055e+03
2.900000000000000147e-02 1.378015000000000212e-01 2.127105000000000246e+01 6.740574999999999761e+01 1.807440000000000055e+03
3.000000000000000236e-02 1.377915000000000112e-01 2.068155000000000143e+01 6.664615000000000578e+01 1.807369999999999891e+03
3.099999999999999978e-02 1.377784999999999982e-01 2.009074999999999989e+01 6.595730000000000359e+01 1.807255000000000109e+03
3.200000000000000067e-02 1.377639999999999976e-01 1.950959999999999894e+01 6.539669999999999561e+01 1.807134999999999991e+03
3.300000000000000155e-02 1.377504999999999979e-01 1.892820000000000036e+01 6.494650000000000034e+01 1.807009999999999991e+03
3.400000000000000244e-02 1.377369999999999983e-01 1.832560000000000144e+01 6.453849999999999909e+01 1.806894999999999982e+03
3.500000000000000333e-02 1.377229999999999843e-01 1.768155000000000143e+01 6.408969999999999345e+01 1.806769999999999982e+03
3.600000000000000422e-02 1.377065000000000095e-01 1.698709999999999809e+01 6.353709999999999525e+01 1.806625000000000000e+03
3.700000000000000511e-02 1.376860000000000028e-01 1.625080000000000169e+01 6.286379999999999768e+01 1.806444999999999936e+03
3.799999999999999906e-02 1.376629999999999798e-01 1.550019999999999953e+01 6.210909999999999798e+01 1.806235000000000127e+03
3.899999999999999994e-02 1.376379999999999826e-01 1.477769999999999939e+01 6.136329999999999529e+01 1.806014999999999873e+03
4.000000000000000083e-02 1.376140000000000141e-01 1.413240000000000052e+01 6.074734999999999729e+01 1.805805000000000064e+03
4.100000000000000172e-02 1.375949999999999951e-01 1.360994999999999955e+01 6.038434999999999775e+01 1.805625000000000000e+03
4.200000000000000261e-02 1.375834999999999975e-01 1.324269999999999925e+01 6.037030000000000030e+01 1.805519999999999982e+03
4.300000000000000350e-02 1.375834999999999975e-01 1.304315000000000069e+01 6.075059999999999860e+01 1.805514999999999873e+03
4.400000000000000439e-02 1.375949999999999951e-01 1.300065000000000026e+01 6.150820000000000221e+01 1.805605000000000018e+03
4.499999999999999833e-02 1.376179999999999903e-01 1.308329999999999949e+01 6.256430000000000291e+01 1.805800000000000182e+03
4.599999999999999922e-02 1.376499999999999946e-01 1.324264999999999937e+01 6.379104999999999848e+01 1.806079999999999927e+03
4.700000000000000011e-02 1.376870000000000038e-01 1.342125000000000057e+01 6.503200000000001069e+01 1.806404999999999973e+03
4.800000000000000100e-02 1.377249999999999863e-01 1.356024999999999991e+01 6.612555000000000405e+01 1.806744999999999891e+03
4.900000000000000189e-02 1.377594999999999792e-01 1.360660000000000025e+01 6.692689999999998918e+01 1.807055000000000064e+03
5.000000000000000278e-02 1.377855000000000052e-01 1.351839999999999975e+01 6.732495000000000118e+01 1.807289999999999964e+03
5.100000000000000366e-02 1.378000000000000058e-01 1.326769999999999960e+01 6.725164999999999793e+01 1.807420000000000073e+03
5.200000000000000455e-02 1.378000000000000058e-01 1.284149999999999991e+01 6.668469999999999231e+01 1.807430000000000064e+03
5.300000000000000544e-02 1.377845000000000042e-01 1.224034999999999940e+01 6.564289999999999736e+01 1.807295000000000073e+03
5.399999999999999939e-02 1.377535000000000009e-01 1.147614000000000090e+01 6.417775000000000318e+01 1.807025000000000091e+03
5.500000000000000028e-02 1.377079999999999971e-01 1.056916499999999992e+01 6.236284999999999457e+01 1.806619999999999891e+03
5.600000000000000117e-02 1.376505000000000090e-01 9.545289999999999608e+00 6.028334999999999866e+01 1.806105000000000018e+03
5.700000000000000205e-02 1.375824999999999965e-01 8.433645000000000280e+00 5.802734999999999843e+01 1.805500000000000000e+03
5.800000000000000294e-02 1.375069999999999903e-01 7.264835000000000598e+00 5.567990000000000350e+01 1.804819999999999936e+03
5.900000000000000383e-02 1.374259999999999926e-01 6.070240000000000080e+00 5.332030000000000314e+01 1.804095000000000027e+03
6.000000000000000472e-02 1.373429999999999929e-01 4.881409999999999805e+00 5.102080000000000126e+01 1.803349999999999909e+03
6.099999999999999867e-02 1.372605000000000075e-01 3.730061000000000071e+00 4.884834999999999638e+01 1.802605000000000018e+03
6.199999999999999956e-02 1.371809999999999974e-01 2.648023000000000238e+00 4.686535000000000650e+01 1.801880000000000109e+03
6.300000000000000044e-02 1.371065000000000200e-01 1.667035499999999892e+00 4.513125000000000142e+01 1.801210000000000036e+03
6.400000000000000133e-02 1.370395000000000085e-01 8.182999999999999163e-01 4.370340000000000202e+01 1.800599999999999909e+03
6.500000000000000222e-02 1.369819999999999927e-01 1.317199999999999482e-01 4.263609999999999900e+01 1.800069999999999936e+03
6.600000000000000311e-02 1.369360000000000022e-01 -3.651405000000000345e-01 4.197934999999999661e+01 1.799654999999999973e+03
6.700000000000000400e-02 1.369049999999999989e-01 -6.482559999999999434e-01 4.177649999999999864e+01 1.799360000000000127e+03
6.800000000000000488e-02 1.368889999999999829e-01 -6.983544999999999892e-01 4.206159999999999854e+01 1.799199999999999818e+03
6.900000000000000577e-02 1.368894999999999973e-01 -5.020210000000000505e-01 4.285685000000000144e+01 1.799195000000000164e+03
7.000000000000000666e-02 1.369079999999999742e-01 -5.254550000000002274e-02 4.417054999999999865e+01 1.799349999999999909e+03
7.100000000000000755e-02 1.369454999999999978e-01 6.496070000000000455e-01 4.599564999999999770e+01 1.799664999999999964e+03
7.200000000000000844e-02 1.370009999999999839e-01 1.596707499999999946e+00 4.830974999999999397e+01 1.800144999999999982e+03
7.300000000000000933e-02 1.370744999999999880e-01 2.774120299999999872e+00 5.107589999999999719e+01 1.800795000000000073e+03
7.399999999999999634e-02 1.371649999999999814e-01 4.161008499999999444e+00 5.424434999999999718e+01 1.801589999999999918e+03
7.499999999999999722e-02 1.372704999999999897e-01 5.731340000000000323e+00 5.775525000000000375e+01 1.802534999999999854e+03
7.599999999999999811e-02 1.373900000000000121e-01 7.455110000000000348e+00 6.154164999999999708e+01 1.803605000000000018e+03
7.699999999999999900e-02 1.375210000000000043e-01 9.299730000000000274e+00 6.553310000000000457e+01 1.804775000000000091e+03
7.799999999999999989e-02 1.376609999999999778e-01 1.123130500000000076e+01 6.965869999999999607e+01 1.806034999999999854e+03
7.900000000000000078e-02 1.378085000000000004e-01 1.321604499999999938e+01 7.385040000000000759e+01 1.807360000000000127e+03
8.000000000000000167e-02 1.379595000000000127e-01 1.522170000000000023e+01 7.804579999999999984e+01 1.808724999999999909e+03
8.100000000000000255e-02 1.381124999999999992e-01 1.721820000000000306e+01 8.219055000000000177e+01 1.810119999999999891e+03
8.200000000000000344e-02 1.382665000000000144e-01 1.917909999999999826e+01 8.623975000000000080e+01 1.811519999999999982e+03
8.300000000000000433e-02 1.384190000000000142e-01 2.108205000000000240e+01 9.015950000000000841e+01 1.812910000000000082e+03
8.400000000000000522e-02 1.385679999999999967e-01 2.290915000000000035e+01 9.392689999999998918e+01 1.814275000000000091e+03
8.500000000000000611e-02 1.387134999999999896e-01 2.464740000000000109e+01 9.753065000000000850e+01 1.815610000000000127e+03
8.600000000000000699e-02 1.388539999999999774e-01 2.628859999999999886e+01 1.009693499999999915e+02 1.816909999999999854e+03
8.700000000000000788e-02 1.389900000000000024e-01 2.782865000000000322e+01 1.042502000000000066e+02 1.818164999999999964e+03
8.800000000000000877e-02 1.391209999999999947e-01 2.926749999999999829e+01 1.073880000000000052e+02 1.819380000000000109e+03
8.899999999999999578e-02 1.392474999999999963e-01 3.060849999999999937e+01 1.104035000000000082e+02 1.820555000000000064e+03
8.999999999999999667e-02 1.393695000000000073e-01 3.185705000000000098e+01 1.133174999999999955e+02 1.821695000000000164e+03
9.099999999999999756e-02 1.394880000000000009e-01 3.302029999999999887e+01 1.161539999999999964e+02 1.822800000000000182e+03
9.199999999999999845e-02 1.396040000000000059e-01 3.410609999999999786e+01 1.189354999999999905e+02 1.823880000000000109e+03
9.299999999999999933e-02 1.397174999999999945e-01 3.512234999999999729e+01 1.216800000000000068e+02 1.824944999999999936e+03
9.400000000000000022e-02 1.398300000000000098e-01 3.607600000000000051e+01 1.244025000000000034e+02 1.825990000000000009e+03
9.500000000000000111e-02 1.399404999999999955e-01 3.697294999999999732e+01 1.271119999999999948e+02 1.827025000000000091e+03
9.600000000000000200e-02 1.400500000000000078e-01 3.781739999999999924e+01 1.298110000000000070e+02 1.828054999999999836e+03
9.700000000000000289e-02 1.401594999999999924e-01 3.861175000000000068e+01 1.324984999999999786e+02 1.829079999999999927e+03
9.800000000000000377e-02 1.402680000000000038e-01 3.935630000000000450e+01 1.351659999999999968e+02 1.830095000000000027e+03
9.900000000000000466e-02 1.403749999999999998e-01 4.004964999999999975e+01 1.378004999999999995e+02 1.831105000000000018e+03
1.000000000000000056e-01 1.404809999999999948e-01 4.068850000000000477e+01 1.403849999999999909e+02 1.832095000000000027e+03
1.010000000000000064e-01 1.405854999999999744e-01 4.126839999999999975e+01 1.429000000000000057e+02 1.833069999999999936e+03
1.020000000000000073e-01 1.406864999999999921e-01 4.178350000000000364e+01 1.453249999999999886e+02 1.834025000000000091e+03
1.030000000000000082e-01 1.407849999999999935e-01 4.222740000000000293e+01 1.476354999999999791e+02 1.834949999999999818e+03
1.040000000000000091e-01 1.408790000000000042e-01 4.259329999999999927e+01 1.498109999999999786e+02 1.835839999999999918e+03
1.050000000000000100e-01 1.409684999999999966e-01 4.287440000000000140e+01 1.518299999999999841e+02 1.836690000000000055e+03
1.059999999999999970e-01 1.410524999999999973e-01 4.306445000000000078e+01 1.536734999999999900e+02 1.837474999999999909e+03
1.069999999999999979e-01 1.411304999999999921e-01 4.315785000000000338e+01 1.553249999999999886e+02 1.838215000000000146e+03
1.079999999999999988e-01 1.412009999999999932e-01 4.315005000000000024e+01 1.567704999999999984e+02 1.838884999999999991e+03
1.089999999999999997e-01 1.412640000000000007e-01 4.303784999999999883e+01 1.580020000000000095e+02 1.839490000000000009e+03
1.100000000000000006e-01 1.413194999999999868e-01 4.281959999999999411e+01 1.590129999999999768e+02 1.840019999999999982e+03
1.110000000000000014e-01 1.413674999999999793e-01 4.249530000000000030e+01 1.598009999999999877e+02 1.840474999999999909e+03
1.120000000000000023e-01 1.414070000000000049e-01 4.206674999999999898e+01 1.603694999999999879e+02 1.840860000000000127e+03
1.130000000000000032e-01 1.414384999999999948e-01 4.153754999999999598e+01 1.607249999999999943e+02 1.841159999999999854e+03
1.140000000000000041e-01 1.414615000000000178e-01 4.091315000000000168e+01 1.608779999999999859e+02 1.841389999999999873e+03
1.150000000000000050e-01 1.414770000000000194e-01 4.020060000000000144e+01 1.608425000000000011e+02 1.841545000000000073e+03
1.160000000000000059e-01 1.414849999999999997e-01 3.940850000000000364e+01 1.606349999999999909e+02 1.841630000000000109e+03
1.170000000000000068e-01 1.414865000000000150e-01 3.854684999999999917e+01 1.602755000000000223e+02 1.841650000000000091e+03
1.180000000000000077e-01 1.414814999999999823e-01 3.762654999999999461e+01 1.597855000000000132e+02 1.841615000000000009e+03
1.190000000000000085e-01 1.414710000000000134e-01 3.665935000000000343e+01 1.591879999999999882e+02 1.841525000000000091e+03
1.200000000000000094e-01 1.414564999999999850e-01 3.565709999999999980e+01 1.585054999999999836e+02 1.841389999999999873e+03
1.209999999999999964e-01 1.414374999999999938e-01 3.463204999999999956e+01 1.577609999999999957e+02 1.841214999999999918e+03
1.219999999999999973e-01 1.414150000000000129e-01 3.359570000000000078e+01 1.569764999999999873e+02 1.841019999999999982e+03
1.229999999999999982e-01 1.413909999999999889e-01 3.255915000000000248e+01 1.561715000000000089e+02 1.840789999999999964e+03
1.239999999999999991e-01 1.413650000000000184e-01 3.153244999999999720e+01 1.553634999999999877e+02 1.840549999999999955e+03
1.250000000000000000e-01 1.413380000000000192e-01 3.052424999999999855e+01 1.545674999999999955e+02 1.840304999999999836e+03
1.260000000000000009e-01 1.413115000000000065e-01 2.954200000000000159e+01 1.537950000000000159e+02 1.840045000000000073e+03
1.270000000000000018e-01 1.412845000000000073e-01 2.859130000000000038e+01 1.530540000000000020e+02 1.839795000000000073e+03
1.280000000000000027e-01 1.412575000000000081e-01 2.767620000000000147e+01 1.523495000000000061e+02 1.839539999999999964e+03
1.290000000000000036e-01 1.412315000000000098e-01 2.679909999999999926e+01 1.516814999999999998e+02 1.839295000000000073e+03
1.300000000000000044e-01 1.412065000000000126e-01 2.596045000000000158e+01 1.510490000000000066e+02 1.839059999999999945e+03
1.310000000000000053e-01 1.411824999999999886e-01 2.515944999999999965e+01 1.504465000000000146e+02 1.838825000000000045e+03
1.320000000000000062e-01 1.411589999999999789e-01 2.439359999999999928e+01 1.498665000000000020e+02 1.838605000000000018e+03
1.330000000000000071e-01 1.411359999999999837e-01 2.365934999999999988e+01 1.492995000000000232e+02 1.838385000000000218e+03
1.340000000000000080e-01 1.411135000000000028e-01 2.295210000000000150e+01 1.487339999999999804e+02 1.838170000000000073e+03
1.350000000000000089e-01 1.410905000000000076e-01 2.226655000000000229e+01 1.481580000000000155e+02 1.837954999999999927e+03
1.360000000000000098e-01 1.410679999999999990e-01 2.159680000000000177e+01 1.475589999999999975e+02 1.837735000000000127e+03
1.370000000000000107e-01 1.410445000000000171e-01 2.093694999999999951e+01 1.469250000000000114e+02 1.837509999999999991e+03
1.380000000000000115e-01 1.410190000000000055e-01 2.028109999999999857e+01 1.462439999999999998e+02 1.837275000000000091e+03
1.390000000000000124e-01 1.409924999999999928e-01 1.962364999999999782e+01 1.455065000000000168e+02 1.837019999999999982e+03
1.400000000000000133e-01 1.409639999999999782e-01 1.895984999999999943e+01 1.447035000000000196e+02 1.836750000000000000e+03
1.410000000000000142e-01 1.409334999999999893e-01 1.828549999999999898e+01 1.438290000000000077e+02 1.836465000000000146e+03
1.420000000000000151e-01 1.409004999999999841e-01 1.759754999999999825e+01 1.428799999999999955e+02 1.836150000000000091e+03
1.430000000000000160e-01 1.408650000000000180e-01 1.689400000000000190e+01 1.418545000000000016e+02 1.835815000000000055e+03
1.440000000000000169e-01 1.408264999999999934e-01 1.617409999999999926e+01 1.407545000000000073e+02 1.835460000000000036e+03
1.450000000000000178e-01 1.407849999999999935e-01 1.543844999999999956e+01 1.395840000000000032e+02 1.835075000000000045e+03
1.459999999999999909e-01 1.407415000000000194e-01 1.468880000000000052e+01 1.383499999999999943e+02 1.834664999999999964e+03
1.469999999999999918e-01 1.406955000000000011e-01 1.392809999999999881e+01 1.370620000000000118e+02 1.834234999999999900e+03
1.479999999999999927e-01 1.406474999999999809e-01 1.316045000000000087e+01 1.357314999999999827e+02 1.833785000000000082e+03
1.489999999999999936e-01 1.405980000000000008e-01 1.239083499999999916e+01 1.343714999999999975e+02 1.833320000000000164e+03
1.499999999999999944e-01 1.405464999999999909e-01 1.162505499999999969e+01 1.329954999999999927e+02 1.832845000000000027e+03
1.509999999999999953e-01 1.404944999999999944e-01 1.086927999999999983e+01 1.316200000000000045e+02 1.832360000000000127e+03
1.519999999999999962e-01 1.404424999999999979e-01 1.013018500000000088e+01 1.302595000000000027e+02 1.831869999999999891e+03
1.529999999999999971e-01 1.403900000000000148e-01 9.414410000000000167e+00 1.289290000000000020e+02 1.831384999999999991e+03
1.539999999999999980e-01 1.403389999999999915e-01 8.728315000000000268e+00 1.276424999999999983e+02 1.830904999999999973e+03
1.549999999999999989e-01 1.402889999999999970e-01 8.078089999999999549e+00 1.264130000000000109e+02 1.830440000000000055e+03
1.559999999999999998e-01 1.402410000000000045e-01 7.469014999999999738e+00 1.252519999999999953e+02 1.829990000000000009e+03
1.570000000000000007e-01 1.401944999999999997e-01 6.905815000000000481e+00 1.241684999999999945e+02 1.829559999999999945e+03
1.580000000000000016e-01 1.401509999999999978e-01 6.392154999999999809e+00 1.231684999999999945e+02 1.829144999999999982e+03
1.590000000000000024e-01 1.401104999999999989e-01 5.930704999999999671e+00 1.222580000000000098e+02 1.828765000000000100e+03
