# t [s], A [cm^2], U [cm/s], P [cPa], c [cm/s]
1.000000000000000021e-03 7.169365000000000876e-01 5.994499999999999829e-03 1.037519999999999953e+02 1.668639999999999873e+03
2.000000000000000042e-03 7.169250000000000345e-01 4.828450000000004093e-04 1.037210000000000036e+02 1.668630000000000109e+03
3.000000000000000062e-03 7.169989999999999419e-01 1.223831999999999975e-01 1.038565000000000111e+02 1.668670000000000073e+03
4.000000000000000083e-03 7.170449999999999324e-01 2.151987499999999942e-01 1.039689999999999941e+02 1.668700000000000045e+03
5.000000000000000104e-03 7.169885000000000286e-01 1.524014999999999953e-01 1.038344999999999914e+02 1.668664999999999964e+03
6.000000000000000125e-03 7.169010000000000105e-01 3.263650000000001272e-02 1.035330000000000013e+02 1.668599999999999909e+03
7.000000000000000146e-03 7.168170000000000375e-01 -9.364250000000007290e-02 1.031510000000000105e+02 1.668505000000000109e+03
8.000000000000000167e-03 7.166669999999999430e-01 -3.445699999999999319e-01 1.025499999999999972e+02 1.668365000000000009e+03
9.000000000000001055e-03 7.164359999999999618e-01 -7.485599999999998921e-01 1.016484999999999985e+02 1.668150000000000091e+03
1.000000000000000194e-02 7.161184999999999912e-01 -1.302750000000000075e+00 1.004022999999999968e+02 1.667855000000000018e+03
1.099999999999999936e-02 7.156839999999999868e-01 -2.039410000000000167e+00 9.871885000000000332e+01 1.667449999999999818e+03
1.200000000000000025e-02 7.151350000000000762e-01 -2.929000000000000270e+00 9.657609999999999673e+01 1.666920000000000073e+03
1.300000000000000114e-02 7.145470000000000432e-01 -3.813315000000000232e+00 9.414074999999999704e+01 1.666309999999999945e+03
1.400000000000000203e-02 7.140260000000000495e-01 -4.475350499999999343e+00 9.171930000000000405e+01 1.665670000000000073e+03
1.499999999999999944e-02 7.136390000000000233e-01 -4.759214000000000055e+00 8.959174999999999045e+01 1.665075000000000045e+03
1.600000000000000033e-02 7.133869999999999933e-01 -4.633379999999999832e+00 8.789025000000000887e+01 1.664565000000000055e+03
1.700000000000000122e-02 7.132160000000000721e-01 -4.179980000000000473e+00 8.656950000000000500e+01 1.664130000000000109e+03
1.800000000000000211e-02 7.130505000000000315e-01 -3.542180000000000106e+00 8.545555000000000234e+01 1.663744999999999891e+03
1.900000000000000300e-02 7.128229999999999844e-01 -2.861429999999999918e+00 8.433189999999999031e+01 1.663365000000000009e+03
2.000000000000000042e-02 7.125010000000000510e-01 -2.226541500000000173e+00 8.302835000000000321e+01 1.662950000000000045e+03
2.100000000000000130e-02 7.120925000000000171e-01 -1.651580000000000048e+00 8.147905000000000086e+01 1.662480000000000018e+03
2.200000000000000219e-02 7.116360000000000463e-01 -1.089885000000000215e+00 7.972870000000000346e+01 1.661960000000000036e+03
2.299999999999999961e-02 7.111769999999999481e-01 -4.739500000000003155e-01 7.788899999999999579e+01 1.661414999999999964e+03
2.400000000000000050e-02 7.107470000000000176e-01 2.410449999999997317e-01 7.607419999999999050e+01 1.660875000000000000e+03
2.500000000000000139e-02 7.103509999999999547e-01 1.049339999999999939e+00 7.434489999999999554e+01 1.660340000000000146e+03
2.600000000000000228e-02 7.099649999999999572e-01 1.888854999999999951e+00 7.268035000000000423e+01 1.659820000000000164e+03
2.700000000000000316e-02 7.095480000000000675e-01 2.654994999999999994e+00 7.098094999999999288e+01 1.659299999999999955e+03
2.800000000000000058e-02 7.090490000000000403e-01 3.227069999999999883e+00 6.909629999999999939e+01 1.658740000000000009e+03
2.900000000000000147e-02 7.084304999999999630e-01 3.500000000000000000e+00 6.687050000000000693e+01 1.658105000000000018e+03
3.000000000000000236e-02 7.076720000000000788e-01 3.413189999999999724e+00 6.419180000000000064e+01 1.657365000000000009e+03
3.099999999999999978e-02 7.067855000000000665e-01 2.967749999999999666e+00 6.103194999999999482e+01 1.656509999999999991e+03
3.200000000000000067e-02 7.058094999999999786e-01 2.226910000000000167e+00 5.746345000000000169e+01 1.655565000000000055e+03
3.300000000000000155e-02 7.048019999999999285e-01 1.299104999999999954e+00 5.364780000000000371e+01 1.654539999999999964e+03
3.400000000000000244e-02 7.038264999999999105e-01 3.128999999999999559e-01 4.980375000000000085e+01 1.653500000000000000e+03
3.500000000000000333e-02 7.029425000000000257e-01 -6.087149999999992289e-01 4.616669999999999874e+01 1.652494999999999891e+03
3.600000000000000422e-02 7.021954999999999725e-01 -1.365940000000000598e+00 4.295165000000000077e+01 1.651579999999999927e+03
3.700000000000000511e-02 7.016135000000000010e-01 -1.891345000000000276e+00 4.032760000000000389e+01 1.650800000000000182e+03
3.799999999999999906e-02 7.012114999999999876e-01 -2.149805000000000188e+00 3.840439999999999543e+01 1.650195000000000164e+03
3.899999999999999994e-02 7.009890000000000843e-01 -2.132627500000000342e+00 3.723264999999999958e+01 1.649769999999999982e+03
4.000000000000000083e-02 7.009374999999999911e-01 -1.848274999999999890e+00 3.681295000000000073e+01 1.649555000000000064e+03
4.100000000000000172e-02 7.010445000000000704e-01 -1.312663499999999983e+00 3.711100000000000421e+01 1.649529999999999973e+03
4.200000000000000261e-02 7.012975000000000181e-01 -5.415799999999999503e-01 3.807385000000000019e+01 1.649690000000000055e+03
4.300000000000000350e-02 7.016850000000000032e-01 4.532050000000000800e-01 3.964300000000000068e+01 1.650025000000000091e+03
4.400000000000000439e-02 7.021969999999999601e-01 1.663590000000000124e+00 4.176214999999999833e+01 1.650525000000000091e+03
4.499999999999999833e-02 7.028240000000000043e-01 3.081674999999999720e+00 4.437774999999999892e+01 1.651164999999999964e+03
4.599999999999999922e-02 7.035544999999999716e-01 4.695145000000000124e+00 4.743644999999999357e+01 1.651940000000000055e+03
4.700000000000000011e-02 7.043749999999999734e-01 6.483044999999999725e+00 5.088000000000000256e+01 1.652825000000000045e+03
4.800000000000000100e-02 7.052690000000000348e-01 8.414277499999998966e+00 5.464104999999999279e+01 1.653809999999999945e+03
4.900000000000000189e-02 7.062144999999999673e-01 1.044807499999999933e+01 5.864234999999999332e+01 1.654875000000000000e+03
5.000000000000000278e-02 7.071894999999999154e-01 1.253697499999999998e+01 6.279865000000000208e+01 1.656000000000000000e+03
5.100000000000000366e-02 7.081714999999999538e-01 1.463108499999999879e+01 6.702134999999999820e+01 1.657150000000000091e+03
5.200000000000000455e-02 7.091404999999999514e-01 1.668271000000000015e+01 7.122499999999999432e+01 1.658315000000000055e+03
5.300000000000000544e-02 7.100800000000000445e-01 1.865024999999999977e+01 7.533359999999998990e+01 1.659474999999999909e+03
5.399999999999999939e-02 7.109769999999999701e-01 2.050110000000000099e+01 7.928589999999999804e+01 1.660599999999999909e+03
5.500000000000000028e-02 7.118254999999999999e-01 2.221325000000000216e+01 8.303954999999999131e+01 1.661684999999999945e+03
5.600000000000000117e-02 7.126220000000000887e-01 2.377490000000000236e+01 8.657165000000000532e+01 1.662724999999999909e+03
5.700000000000000205e-02 7.133694999999999897e-01 2.518355000000000032e+01 8.987839999999999918e+01 1.663710000000000036e+03
5.800000000000000294e-02 7.140729999999999578e-01 2.644444999999999979e+01 9.297140000000000271e+01 1.664639999999999873e+03
5.900000000000000383e-02 7.147390000000000132e-01 2.756835000000000235e+01 9.587700000000000955e+01 1.665519999999999982e+03
6.000000000000000472e-02 7.153770000000000406e-01 2.857039999999999935e+01 9.862909999999999400e+01 1.666355000000000018e+03
6.099999999999999867e-02 7.159964999999999247e-01 2.946790000000000020e+01 1.012671500000000009e+02 1.667154999999999973e+03
6.199999999999999956e-02 7.166069999999999940e-01 3.027935000000000088e+01 1.038330499999999859e+02 1.667940000000000055e+03
6.300000000000000044e-02 7.172159999999999647e-01 3.102329999999999899e+01 1.063669999999999902e+02 1.668704999999999927e+03
6.400000000000000133e-02 7.178320000000000256e-01 3.171690000000000254e+01 1.089044999999999987e+02 1.669470000000000027e+03
6.500000000000000222e-02 7.184599999999999875e-01 3.237469999999999715e+01 1.114740000000000038e+02 1.670240000000000009e+03
6.600000000000000311e-02 7.191039999999999655e-01 3.300764999999999816e+01 1.140944999999999965e+02 1.671014999999999873e+03
6.700000000000000400e-02 7.197640000000000704e-01 3.362194999999999823e+01 1.167750000000000057e+02 1.671809999999999945e+03
6.800000000000000488e-02 7.204369999999999941e-01 3.421855000000000047e+01 1.195099999999999909e+02 1.672619999999999891e+03
6.900000000000000577e-02 7.211179999999999257e-01 3.479314999999999714e+01 1.222835000000000036e+02 1.673430000000000064e+03
7.000000000000000666e-02 7.217985000000000095e-01 3.533660000000000423e+01 1.250679999999999978e+02 1.674250000000000000e+03
7.100000000000000755e-02 7.224695000000000977e-01 3.583605000000000018e+01 1.278264999999999958e+02 1.675065000000000055e+03
7.200000000000000844e-02 7.231199999999999850e-01 3.627604999999999791e+01 1.305149999999999864e+02 1.675860000000000127e+03
7.300000000000000933e-02 7.237389999999999102e-01 3.664000000000000057e+01 1.330879999999999939e+02 1.676630000000000109e+03
7.399999999999999634e-02 7.243150000000000421e-01 3.691190000000000282e+01 1.355000000000000000e+02 1.677360000000000127e+03
7.499999999999999722e-02 7.248394999999999699e-01 3.707744999999999891e+01 1.377079999999999984e+02 1.678034999999999854e+03
7.599999999999999811e-02 7.253049999999999775e-01 3.712485000000000213e+01 1.396765000000000043e+02 1.678644999999999982e+03
7.699999999999999900e-02 7.257050000000000445e-01 3.704614999999999725e+01 1.413779999999999859e+02 1.679190000000000055e+03
7.799999999999999989e-02 7.260370000000000434e-01 3.683715000000000117e+01 1.427939999999999827e+02 1.679650000000000091e+03
7.900000000000000078e-02 7.262999999999999456e-01 3.649795000000000300e+01 1.439159999999999968e+02 1.680034999999999854e+03
8.000000000000000167e-02 7.264954999999999607e-01 3.603265000000000384e+01 1.447464999999999975e+02 1.680335000000000036e+03
8.100000000000000255e-02 7.266264999999999530e-01 3.544930000000000092e+01 1.452969999999999970e+02 1.680554999999999836e+03
8.200000000000000344e-02 7.266984999999999140e-01 3.475939999999999941e+01 1.455875000000000057e+02 1.680700000000000045e+03
8.300000000000000433e-02 7.267190000000000039e-01 3.397735000000000127e+01 1.456449999999999818e+02 1.680775000000000091e+03
8.400000000000000522e-02 7.266939999999999511e-01 3.311975000000000335e+01 1.455020000000000095e+02 1.680784999999999854e+03
8.500000000000000611e-02 7.266340000000000021e-01 3.220499999999999829e+01 1.451945000000000050e+02 1.680750000000000000e+03
8.600000000000000699e-02 7.265470000000000539e-01 3.125205000000000055e+01 1.447605000000000075e+02 1.680660000000000082e+03
8.700000000000000788e-02 7.264420000000000321e-01 3.027994999999999948e+01 1.442400000000000091e+02 1.680549999999999955e+03
8.800000000000000877e-02 7.263275000000000148e-01 2.930680000000000263e+01 1.436680000000000064e+02 1.680414999999999964e+03
8.899999999999999578e-02 7.262104999999999810e-01 2.834935000000000116e+01 1.430794999999999959e+02 1.680264999999999873e+03
8.999999999999999667e-02 7.260975000000000623e-01 2.742184999999999917e+01 1.425040000000000191e+02 1.680115000000000009e+03
9.099999999999999756e-02 7.259929999999999994e-01 2.653579999999999828e+01 1.419650000000000034e+02 1.679965000000000146e+03
9.199999999999999845e-02 7.259014999999999773e-01 2.569944999999999879e+01 1.414800000000000182e+02 1.679825000000000045e+03
9.299999999999999933e-02 7.258240000000000247e-01 2.491760000000000019e+01 1.410589999999999975e+02 1.679700000000000045e+03
9.400000000000000022e-02 7.257609999999999895e-01 2.419160000000000110e+01 1.407065000000000055e+02 1.679590000000000146e+03
9.500000000000000111e-02 7.257109999999999950e-01 2.351940000000000097e+01 1.404194999999999993e+02 1.679494999999999891e+03
9.600000000000000200e-02 7.256715000000000249e-01 2.289614999999999867e+01 1.401895000000000095e+02 1.679414999999999964e+03
9.700000000000000289e-02 7.256390000000000340e-01 2.231429999999999936e+01 1.400024999999999977e+02 1.679349999999999909e+03
9.800000000000000377e-02 7.256089999999999485e-01 2.176445000000000007e+01 1.398399999999999750e+02 1.679289999999999964e+03
9.900000000000000466e-02 7.255765000000000686e-01 2.123584999999999923e+01 1.396825000000000045e+02 1.679235000000000127e+03
1.000000000000000056e-01 7.255365000000000286e-01 2.071710000000000207e+01 1.395090000000000146e+02 1.679179999999999836e+03
1.010000000000000064e-01 7.254849999999999355e-01 2.019669999999999987e+01 1.392965000000000089e+02 1.679110000000000127e+03
1.020000000000000073e-01 7.254160000000000608e-01 1.966379999999999839e+01 1.390264999999999986e+02 1.679030000000000200e+03
1.030000000000000082e-01 7.253264999999999851e-01 1.910869999999999891e+01 1.386789999999999736e+02 1.678934999999999945e+03
1.040000000000000091e-01 7.252140000000000253e-01 1.852355000000000018e+01 1.382415000000000020e+02 1.678809999999999945e+03
1.050000000000000100e-01 7.250754999999999839e-01 1.790269999999999939e+01 1.377024999999999864e+02 1.678659999999999854e+03
1.059999999999999970e-01 7.249125000000000707e-01 1.724295000000000044e+01 1.370570000000000164e+02 1.678485000000000127e+03
1.069999999999999979e-01 7.247235000000000760e-01 1.654390000000000072e+01 1.363075000000000045e+02 1.678289999999999964e+03
1.079999999999999988e-01 7.245125000000000037e-01 1.580809999999999960e+01 1.354574999999999818e+02 1.678055000000000064e+03
1.089999999999999997e-01 7.242815000000000225e-01 1.504074999999999918e+01 1.345200000000000102e+02 1.677799999999999955e+03
1.100000000000000006e-01 7.240349999999999842e-01 1.424944999999999951e+01 1.335099999999999909e+02 1.677519999999999982e+03
1.110000000000000014e-01 7.237795000000000201e-01 1.344422000000000139e+01 1.324484999999999957e+02 1.677230000000000018e+03
1.120000000000000023e-01 7.235194999999999821e-01 1.263645499999999977e+01 1.313589999999999804e+02 1.676920000000000073e+03
1.130000000000000032e-01 7.232615000000000016e-01 1.183882499999999993e+01 1.302665000000000077e+02 1.676615000000000009e+03
1.140000000000000041e-01 7.230114999999999181e-01 1.106430999999999898e+01 1.291984999999999957e+02 1.676309999999999945e+03
1.150000000000000050e-01 7.227760000000000851e-01 1.032568999999999981e+01 1.281790000000000020e+02 1.676014999999999873e+03
1.160000000000000059e-01 7.225610000000000088e-01 9.635020000000000806e+00 1.272340000000000089e+02 1.675740000000000009e+03
1.170000000000000068e-01 7.223694999999999977e-01 9.002665000000000362e+00 1.263829999999999956e+02 1.675485000000000127e+03
1.180000000000000077e-01 7.222055000000000557e-01 8.437205000000000510e+00 1.256435000000000031e+02 1.675255000000000109e+03
1.190000000000000085e-01 7.220720000000000471e-01 7.944860000000000255e+00 1.250275000000000034e+02 1.675059999999999945e+03
1.200000000000000094e-01 7.219700000000000006e-01 7.529345000000001065e+00 1.245414999999999992e+02 1.674894999999999982e+03
1.209999999999999964e-01 7.218989999999999574e-01 7.191605000000000913e+00 1.241889999999999930e+02 1.674769999999999982e+03
1.219999999999999973e-01 7.218565000000000120e-01 6.930070000000000618e+00 1.239645000000000010e+02 1.674679999999999836e+03
1.229999999999999982e-01 7.218419999999999837e-01 6.740750000000000242e+00 1.238605000000000018e+02 1.674625000000000000e+03
1.239999999999999991e-01 7.218510000000000204e-01 6.617554999999999410e+00 1.238640000000000043e+02 1.674599999999999909e+03
1.250000000000000000e-01 7.218799999999999661e-01 6.552725000000000577e+00 1.239594999999999914e+02 1.674599999999999909e+03
1.260000000000000009e-01 7.219234999999999403e-01 6.537224999999999397e+00 1.241285000000000025e+02 1.674630000000000109e+03
1.270000000000000018e-01 7.219780000000000086e-01 6.561289999999999623e+00 1.243520000000000039e+02 1.674670000000000073e+03
1.280000000000000027e-01 7.220385000000000275e-01 6.614824999999999733e+00 1.246109999999999900e+02 1.674724999999999909e+03
1.290000000000000036e-01 7.221005000000000340e-01 6.687875000000000014e+00 1.248849999999999909e+02 1.674789999999999964e+03
1.300000000000000044e-01 7.221610000000000529e-01 6.771010000000000417e+00 1.251580000000000013e+02 1.674855000000000018e+03
1.310000000000000053e-01 7.222155000000000102e-01 6.855660000000000309e+00 1.254134999999999991e+02 1.674920000000000073e+03
1.320000000000000062e-01 7.222625000000000295e-01 6.934319999999999595e+00 1.256400000000000006e+02 1.674980000000000018e+03
1.330000000000000071e-01 7.222994999999999832e-01 7.000785000000000480e+00 1.258265000000000100e+02 1.675034999999999854e+03
1.340000000000000080e-01 7.223245000000000360e-01 7.050214999999999677e+00 1.259664999999999964e+02 1.675075000000000045e+03
1.350000000000000089e-01 7.223384999999999945e-01 7.079200000000000159e+00 1.260559999999999974e+02 1.675105000000000018e+03
1.360000000000000098e-01 7.223399999999999821e-01 7.085720000000000240e+00 1.260944999999999965e+02 1.675119999999999891e+03
1.370000000000000107e-01 7.223304999999999865e-01 7.069100000000000605e+00 1.260835000000000008e+02 1.675119999999999891e+03
1.380000000000000115e-01 7.223110000000000364e-01 7.029865000000000919e+00 1.260254999999999939e+02 1.675110000000000127e+03
1.390000000000000124e-01 7.222830000000000084e-01 6.969604999999999606e+00 1.259274999999999949e+02 1.675095000000000027e+03
1.400000000000000133e-01 7.222475000000000422e-01 6.890800000000000480e+00 1.257950000000000017e+02 1.675065000000000055e+03
1.410000000000000142e-01 7.222075000000000022e-01 6.796604999999999563e+00 1.256364999999999981e+02 1.675025000000000091e+03
1.420000000000000151e-01 7.221640000000000281e-01 6.690649999999999764e+00 1.254600000000000080e+02 1.674980000000000018e+03
1.430000000000000160e-01 7.221195000000000253e-01 6.576789999999999914e+00 1.252734999999999985e+02 1.674929999999999836e+03
1.440000000000000169e-01 7.220759999999999401e-01 6.458944999999999936e+00 1.250844999999999914e+02 1.674884999999999991e+03
1.450000000000000178e-01 7.220334999999999948e-01 6.340820000000000789e+00 1.249004999999999939e+02 1.674829999999999927e+03
1.459999999999999909e-01 7.219944999999999835e-01 6.225770000000000692e+00 1.247275000000000063e+02 1.674784999999999854e+03
1.469999999999999918e-01 7.219599999999999351e-01 6.116635000000000488e+00 1.245690000000000026e+02 1.674740000000000009e+03
1.479999999999999927e-01 7.219299999999999606e-01 6.015600000000000058e+00 1.244290000000000020e+02 1.674695000000000164e+03
1.489999999999999936e-01 7.219050000000000189e-01 5.924165000000000347e+00 1.243089999999999975e+02 1.674664999999999964e+03
1.499999999999999944e-01 7.218845000000000400e-01 5.843080000000000496e+00 1.242079999999999984e+02 1.674634999999999991e+03
1.509999999999999953e-01 7.218679999999999541e-01 5.772415000000000518e+00 1.241255000000000024e+02 1.674605000000000018e+03
1.519999999999999962e-01 7.218549999999999134e-01 5.711590000000000167e+00 1.240579999999999927e+02 1.674585000000000036e+03
1.529999999999999971e-01 7.218439999999999301e-01 5.659510000000000041e+00 1.240020000000000095e+02 1.674565000000000055e+03
1.539999999999999980e-01 7.218339999999999756e-01 5.614695000000000213e+00 1.239534999999999911e+02 1.674550000000000182e+03
1.549999999999999989e-01 7.218240000000000212e-01 5.575425000000000075e+00 1.239064999999999941e+02 1.674535000000000082e+03
1.559999999999999998e-01 7.218134999999999968e-01 5.539889999999999759e+00 1.238580000000000041e+02 1.674514999999999873e+03
1.570000000000000007e-01 7.218005000000000670e-01 5.506325000000000358e+00 1.238019999999999925e+02 1.674505000000000109e+03
1.580000000000000016e-01 7.217839999999999812e-01 5.473180000000000156e+00 1.237355000000000018e+02 1.674480000000000018e+03
1.590000000000000024e-01 7.217649999999999899e-01 5.439149999999999707e+00 1.236560000000000059e+02 1.674454999999999927e+03
