# t [s], A [cm^2], U [cm/s], P [cPa], c [cm/s]
1.000000000000000021e-03 2.166875000000000051e-01 4.410715000000000052e-01 9.076370000000000005e+01 2.278119999999999891e+03
2.000000000000000042e-03 2.166084999999999816e-01 2.046263500000000235e+00 8.670930000000001314e+01 2.277519999999999982e+03
3.000000000000000062e-03 2.164335000000000009e-01 3.991507500000000430e+00 8.125745000000000573e+01 2.276239999999999782e+03
4.000000000000000083e-03 2.162209999999999965e-01 6.196005000000000429e+00 7.596479999999999677e+01 2.274690000000000055e+03
5.000000000000000104e-03 2.160144999999999982e-01 8.496954999999999814e+00 7.180575000000000330e+01 2.273199999999999818e+03
6.000000000000000125e-03 2.158249999999999891e-01 1.055322499999999941e+01 6.850055000000000405e+01 2.271864999999999782e+03
7.000000000000000146e-03 2.156529999999999836e-01 1.219260500000000036e+01 6.551919999999999789e+01 2.270675000000000182e+03
8.000000000000000167e-03 2.155055000000000165e-01 1.349093500000000034e+01 6.297010000000000218e+01 2.269675000000000182e+03
9.000000000000001055e-03 2.153865000000000085e-01 1.450294999999999845e+01 6.099399999999999977e+01 2.268875000000000000e+03
1.000000000000000194e-02 2.152939999999999854e-01 1.524969999999999892e+01 5.952289999999999992e+01 2.268260000000000218e+03
1.099999999999999936e-02 2.152244999999999853e-01 1.575549999999999962e+01 5.845879999999999654e+01 2.267809999999999945e+03
1.200000000000000025e-02 2.151710000000000012e-01 1.601910000000000167e+01 5.761299999999999955e+01 2.267475000000000364e+03
1.300000000000000114e-02 2.151274999999999993e-01 1.608804999999999907e+01 5.685294999999999987e+01 2.267204999999999927e+03
1.400000000000000203e-02 2.150989999999999847e-01 1.615729999999999933e+01 5.648385000000000389e+01 2.267034999999999854e+03
1.499999999999999944e-02 2.151040000000000174e-01 1.650160000000000338e+01 5.722950000000000159e+01 2.267079999999999927e+03
1.600000000000000033e-02 2.151605000000000045e-01 1.727785000000000082e+01 5.966375000000000028e+01 2.267465000000000146e+03
1.700000000000000122e-02 2.152704999999999758e-01 1.838860000000000028e+01 6.362969999999999970e+01 2.268204999999999927e+03
1.800000000000000211e-02 2.154139999999999944e-01 1.951389999999999958e+01 6.815205000000000268e+01 2.269175000000000182e+03
1.900000000000000300e-02 2.155529999999999946e-01 2.027345000000000041e+01 7.187254999999998972e+01 2.270135000000000218e+03
2.000000000000000042e-02 2.156514999999999960e-01 2.040684999999999860e+01 7.368999999999999773e+01 2.270835000000000036e+03
2.100000000000000130e-02 2.156869999999999898e-01 1.987875000000000014e+01 7.323675000000000068e+01 2.271119999999999891e+03
2.200000000000000219e-02 2.156600000000000183e-01 1.886775000000000091e+01 7.096895000000000664e+01 2.270970000000000255e+03
2.299999999999999961e-02 2.155909999999999771e-01 1.765789999999999793e+01 6.786599999999999966e+01 2.270519999999999982e+03
2.400000000000000050e-02 2.155064999999999897e-01 1.650209999999999866e+01 6.493795000000000073e+01 2.269960000000000036e+03
2.500000000000000139e-02 2.154300000000000104e-01 1.552580000000000027e+01 6.280474999999999852e+01 2.269430000000000291e+03
2.600000000000000228e-02 2.153725000000000223e-01 1.470769999999999911e+01 6.152819999999999823e+01 2.269024999999999636e+03
2.700000000000000316e-02 2.153295000000000070e-01 1.392790000000000106e+01 6.071880000000000166e+01 2.268720000000000255e+03
2.800000000000000058e-02 2.152900000000000091e-01 1.305080000000000062e+01 5.981494999999999607e+01 2.268449999999999818e+03
2.900000000000000147e-02 2.152399999999999869e-01 1.200409999999999933e+01 5.839334999999999809e+01 2.268114999999999782e+03
3.000000000000000236e-02 2.151744999999999908e-01 1.082413999999999987e+01 5.638620000000000232e+01 2.267675000000000182e+03
3.099999999999999978e-02 2.150974999999999970e-01 9.652879999999999683e+00 5.413034999999999997e+01 2.267159999999999854e+03
3.200000000000000067e-02 2.150245000000000073e-01 8.689465000000000217e+00 5.223980000000000246e+01 2.266654999999999745e+03
3.300000000000000155e-02 2.149739999999999984e-01 8.116675000000000750e+00 5.136079999999999757e+01 2.266295000000000073e+03
3.400000000000000244e-02 2.149630000000000152e-01 8.033585000000000420e+00 5.191514999999999702e+01 2.266199999999999818e+03
3.500000000000000333e-02 2.149985000000000090e-01 8.419200000000000017e+00 5.393384999999999962e+01 2.266414999999999964e+03
3.600000000000000422e-02 2.150759999999999894e-01 9.136330000000000950e+00 5.703209999999999980e+01 2.266920000000000073e+03
3.700000000000000511e-02 2.151799999999999824e-01 9.968970000000000553e+00 6.051829999999999643e+01 2.267609999999999673e+03
3.799999999999999906e-02 2.152870000000000061e-01 1.067595500000000008e+01 6.358059999999999690e+01 2.268335000000000036e+03
3.899999999999999994e-02 2.153725000000000223e-01 1.104359999999999964e+01 6.548480000000000700e+01 2.268925000000000182e+03
4.000000000000000083e-02 2.154154999999999820e-01 1.092314999999999969e+01 6.572505000000001019e+01 2.269230000000000018e+03
4.100000000000000172e-02 2.154030000000000111e-01 1.024788999999999994e+01 6.409714999999999918e+01 2.269164999999999964e+03
4.200000000000000261e-02 2.153289999999999926e-01 9.029600000000000293e+00 6.069070000000000675e+01 2.268690000000000055e+03
4.300000000000000350e-02 2.151990000000000014e-01 7.340910000000000046e+00 5.581889999999999930e+01 2.267820000000000164e+03
4.400000000000000439e-02 2.150219999999999909e-01 5.291356500000000018e+00 4.991844999999999999e+01 2.266630000000000109e+03
4.499999999999999833e-02 2.148114999999999886e-01 3.005100000000000104e+00 4.345394999999999897e+01 2.265204999999999927e+03
4.599999999999999922e-02 2.145819999999999950e-01 6.051649999999999530e-01 3.684870000000000090e+01 2.263644999999999982e+03
4.700000000000000011e-02 2.143470000000000097e-01 -1.794055000000000177e+00 3.045275000000000176e+01 2.262045000000000073e+03
4.800000000000000100e-02 2.141175000000000161e-01 -4.087953500000000240e+00 2.454245000000000232e+01 2.260474999999999909e+03
4.900000000000000189e-02 2.139035000000000242e-01 -6.179574999999999818e+00 1.933849999999999980e+01 2.259015000000000327e+03
5.000000000000000278e-02 2.137149999999999883e-01 -7.977515000000000356e+00 1.502879499999999879e+01 2.257710000000000036e+03
5.100000000000000366e-02 2.135579999999999978e-01 -9.395730000000000359e+00 1.178334999999999866e+01 2.256630000000000109e+03
5.200000000000000455e-02 2.134405000000000052e-01 -1.035692500000000038e+01 9.756834999999998814e+00 2.255800000000000182e+03
5.300000000000000544e-02 2.133670000000000011e-01 -1.079789999999999850e+01 9.078194999999999126e+00 2.255274999999999636e+03
5.399999999999999939e-02 2.133435000000000192e-01 -1.067629999999999946e+01 9.832840000000000913e+00 2.255085000000000036e+03
5.500000000000000028e-02 2.133720000000000061e-01 -9.976285000000000736e+00 1.204380000000000095e+01 2.255244999999999891e+03
5.600000000000000117e-02 2.134540000000000048e-01 -8.711645000000000749e+00 1.565930000000000000e+01 2.255764999999999873e+03
5.700000000000000205e-02 2.135854999999999837e-01 -6.925479999999999414e+00 2.054994999999999905e+01 2.256630000000000109e+03
5.800000000000000294e-02 2.137634999999999952e-01 -4.686851500000000392e+00 2.651839999999999975e+01 2.257809999999999945e+03
5.900000000000000383e-02 2.139794999999999892e-01 -2.084365000000000023e+00 3.331680000000000064e+01 2.259255000000000109e+03
6.000000000000000472e-02 2.142249999999999988e-01 7.808650000000003644e-01 4.066979999999999507e+01 2.260909999999999854e+03
6.099999999999999867e-02 2.144915000000000016e-01 3.802649999999999864e+00 4.829735000000000156e+01 2.262715000000000146e+03
6.199999999999999956e-02 2.147679999999999867e-01 6.876310000000000144e+00 5.593474999999999397e+01 2.264605000000000018e+03
6.300000000000000044e-02 2.150469999999999882e-01 9.904295000000001181e+00 6.334805000000000064e+01 2.266510000000000218e+03
6.400000000000000133e-02 2.153189999999999826e-01 1.280094499999999869e+01 7.034524999999999295e+01 2.268385000000000218e+03
6.500000000000000222e-02 2.155779999999999919e-01 1.549639999999999951e+01 7.678419999999999845e+01 2.270170000000000073e+03
6.600000000000000311e-02 2.158185000000000242e-01 1.793970000000000198e+01 8.257765000000000555e+01 2.271840000000000146e+03
6.700000000000000400e-02 2.160374999999999934e-01 2.010089999999999932e+01 8.769565000000000055e+01 2.273369999999999891e+03
6.800000000000000488e-02 2.162340000000000095e-01 2.197205000000000297e+01 9.216495000000000459e+01 2.274750000000000000e+03
6.900000000000000577e-02 2.164095000000000046e-01 2.356584999999999752e+01 9.606385000000000218e+01 2.275984999999999673e+03
7.000000000000000666e-02 2.165664999999999951e-01 2.491324999999999790e+01 9.951239999999999952e+01 2.277094999999999800e+03
7.100000000000000755e-02 2.167084999999999984e-01 2.605904999999999916e+01 1.026591500000000110e+02 2.278099999999999909e+03
7.200000000000000844e-02 2.168410000000000060e-01 2.705664999999999765e+01 1.056659999999999968e+02 2.279039999999999964e+03
7.300000000000000933e-02 2.169689999999999952e-01 2.796209999999999951e+01 1.086895000000000095e+02 2.279945000000000164e+03
7.399999999999999634e-02 2.170980000000000132e-01 2.882809999999999917e+01 1.118659999999999997e+02 2.280855000000000018e+03
7.499999999999999722e-02 2.172324999999999950e-01 2.969944999999999879e+01 1.152990000000000066e+02 2.281800000000000182e+03
7.599999999999999811e-02 2.173749999999999849e-01 3.060895000000000010e+01 1.190509999999999877e+02 2.282800000000000182e+03
7.699999999999999900e-02 2.175285000000000135e-01 3.157489999999999952e+01 1.231375000000000028e+02 2.283869999999999891e+03
7.799999999999999989e-02 2.176919999999999966e-01 3.260065000000000168e+01 1.275294999999999987e+02 2.285010000000000218e+03
7.900000000000000078e-02 2.178654999999999897e-01 3.367495000000000260e+01 1.321585000000000036e+02 2.286225000000000364e+03
8.000000000000000167e-02 2.180459999999999898e-01 3.477389999999999759e+01 1.369230000000000018e+02 2.287480000000000018e+03
8.100000000000000255e-02 2.182294999999999929e-01 3.586355000000000359e+01 1.416990000000000123e+02 2.288760000000000218e+03
8.200000000000000344e-02 2.184119999999999950e-01 3.690359999999999729e+01 1.463514999999999873e+02 2.290045000000000073e+03
8.300000000000000433e-02 2.185890000000000055e-01 3.785054999999999836e+01 1.507470000000000141e+02 2.291284999999999854e+03
8.400000000000000522e-02 2.187560000000000060e-01 3.866154999999999831e+01 1.547574999999999932e+02 2.292460000000000036e+03
8.500000000000000611e-02 2.189085000000000059e-01 3.929749999999999943e+01 1.582750000000000057e+02 2.293534999999999854e+03
8.600000000000000699e-02 2.190425000000000011e-01 3.972594999999999743e+01 1.612160000000000082e+02 2.294484999999999673e+03
8.700000000000000788e-02 2.191555000000000031e-01 3.992305000000000348e+01 1.635229999999999961e+02 2.295289999999999964e+03
8.800000000000000877e-02 2.192455000000000098e-01 3.987500000000000000e+01 1.651709999999999923e+02 2.295940000000000055e+03
8.899999999999999578e-02 2.193114999999999926e-01 3.957900000000000063e+01 1.661634999999999991e+02 2.296420000000000073e+03
8.999999999999999667e-02 2.193539999999999934e-01 3.904290000000000305e+01 1.665335000000000036e+02 2.296735000000000127e+03
9.099999999999999756e-02 2.193740000000000134e-01 3.828454999999999586e+01 1.663389999999999986e+02 2.296890000000000327e+03
9.199999999999999845e-02 2.193734999999999991e-01 3.733060000000000400e+01 1.656564999999999941e+02 2.296904999999999745e+03
9.299999999999999933e-02 2.193555000000000088e-01 3.621450000000000102e+01 1.645794999999999959e+02 2.296789999999999964e+03
9.400000000000000022e-02 2.193220000000000169e-01 3.497445000000000448e+01 1.632065000000000055e+02 2.296574999999999818e+03
9.500000000000000111e-02 2.192784999999999873e-01 3.365144999999999698e+01 1.616435000000000173e+02 2.296274999999999636e+03
9.600000000000000200e-02 2.192270000000000052e-01 3.228679999999999950e+01 1.599900000000000091e+02 2.295925000000000182e+03
9.700000000000000289e-02 2.191714999999999913e-01 3.092020000000000124e+01 1.583394999999999868e+02 2.295545000000000073e+03
9.800000000000000377e-02 2.191160000000000052e-01 2.958804999999999907e+01 1.567735000000000127e+02 2.295154999999999745e+03
9.900000000000000466e-02 2.190624999999999933e-01 2.832134999999999891e+01 1.553600000000000136e+02 2.294779999999999745e+03
1.000000000000000056e-01 2.190139999999999865e-01 2.714480000000000004e+01 1.541474999999999795e+02 2.294434999999999945e+03
1.010000000000000064e-01 2.189709999999999990e-01 2.607564999999999955e+01 1.531670000000000016e+02 2.294130000000000109e+03
1.020000000000000073e-01 2.189365000000000061e-01 2.512315000000000254e+01 1.524290000000000020e+02 2.293880000000000109e+03
1.030000000000000082e-01 2.189089999999999925e-01 2.428849999999999909e+01 1.519230000000000018e+02 2.293680000000000291e+03
1.040000000000000091e-01 2.188895000000000146e-01 2.356510000000000105e+01 1.516220000000000141e+02 2.293534999999999854e+03
1.050000000000000100e-01 2.188769999999999882e-01 2.293935000000000102e+01 1.514815000000000111e+02 2.293439999999999600e+03
1.059999999999999970e-01 2.188689999999999802e-01 2.239184999999999803e+01 1.514440000000000168e+02 2.293375000000000000e+03
1.069999999999999979e-01 2.188645000000000174e-01 2.189905000000000257e+01 1.514445000000000050e+02 2.293335000000000036e+03
1.079999999999999988e-01 2.188605000000000134e-01 2.143464999999999776e+01 1.514134999999999991e+02 2.293300000000000182e+03
1.089999999999999997e-01 2.188550000000000217e-01 2.097185000000000343e+01 1.512819999999999823e+02 2.293260000000000218e+03
1.100000000000000006e-01 2.188459999999999850e-01 2.048499999999999943e+01 1.509879999999999995e+02 2.293195000000000164e+03
1.110000000000000014e-01 2.188304999999999834e-01 1.995169999999999888e+01 1.504780000000000086e+02 2.293085000000000036e+03
1.120000000000000023e-01 2.188074999999999881e-01 1.935385000000000133e+01 1.497139999999999986e+02 2.292925000000000182e+03
1.130000000000000032e-01 2.187759999999999982e-01 1.867934999999999945e+01 1.486750000000000114e+02 2.292699999999999818e+03
1.140000000000000041e-01 2.187340000000000118e-01 1.792275000000000063e+01 1.473580000000000041e+02 2.292414999999999964e+03
1.150000000000000050e-01 2.186825000000000019e-01 1.708535000000000181e+01 1.457775000000000034e+02 2.292059999999999945e+03
1.160000000000000059e-01 2.186224999999999974e-01 1.617565000000000097e+01 1.439680000000000177e+02 2.291635000000000218e+03
1.170000000000000068e-01 2.185539999999999983e-01 1.520795000000000030e+01 1.419775000000000205e+02 2.291164999999999964e+03
1.180000000000000077e-01 2.184790000000000065e-01 1.420195000000000007e+01 1.398665000000000020e+02 2.290644999999999982e+03
1.190000000000000085e-01 2.184004999999999974e-01 1.318090000000000117e+01 1.377030000000000030e+02 2.290100000000000364e+03
1.200000000000000094e-01 2.183205000000000007e-01 1.217023999999999972e+01 1.355584999999999809e+02 2.289539999999999964e+03
1.209999999999999964e-01 2.182410000000000183e-01 1.119584500000000027e+01 1.335024999999999977e+02 2.288984999999999673e+03
1.219999999999999973e-01 2.181644999999999834e-01 1.028242999999999974e+01 1.315989999999999895e+02 2.288449999999999818e+03
1.229999999999999982e-01 2.180940000000000101e-01 9.452055000000001428e+00 1.299029999999999916e+02 2.287954999999999927e+03
1.239999999999999991e-01 2.180305000000000160e-01 8.722799999999999443e+00 1.284569999999999936e+02 2.287505000000000109e+03
1.250000000000000000e-01 2.179764999999999897e-01 8.108019999999999783e+00 1.272895000000000039e+02 2.287119999999999891e+03
1.260000000000000009e-01 2.179320000000000146e-01 7.615695000000000547e+00 1.264145000000000039e+02 2.286805000000000291e+03
1.270000000000000018e-01 2.178974999999999940e-01 7.248250000000000526e+00 1.258310000000000031e+02 2.286559999999999945e+03
1.280000000000000027e-01 2.178740000000000121e-01 7.002705000000000624e+00 1.255245000000000033e+02 2.286385000000000218e+03
1.290000000000000036e-01 2.178599999999999981e-01 6.871135000000000659e+00 1.254685000000000059e+02 2.286275000000000091e+03
1.300000000000000044e-01 2.178549999999999931e-01 6.841364999999999696e+00 1.256274999999999977e+02 2.286230000000000018e+03
1.310000000000000053e-01 2.178575000000000095e-01 6.897820000000000285e+00 1.259585000000000008e+02 2.286244999999999891e+03
1.320000000000000062e-01 2.178665000000000185e-01 7.022545000000000037e+00 1.264140000000000015e+02 2.286300000000000182e+03
1.330000000000000071e-01 2.178805000000000047e-01 7.196189999999999642e+00 1.269454999999999956e+02 2.286389999999999873e+03
1.340000000000000080e-01 2.178970000000000073e-01 7.399020000000000152e+00 1.275060000000000002e+02 2.286494999999999891e+03
1.350000000000000089e-01 2.179145000000000110e-01 7.611864999999999881e+00 1.280494999999999948e+02 2.286614999999999782e+03
1.360000000000000098e-01 2.179320000000000146e-01 7.816934999999999967e+00 1.285374999999999943e+02 2.286735000000000127e+03
1.370000000000000107e-01 2.179475000000000162e-01 7.998545000000000016e+00 1.289364999999999952e+02 2.286840000000000146e+03
1.380000000000000115e-01 2.179605000000000015e-01 8.143674999999999997e+00 1.292205000000000155e+02 2.286930000000000291e+03
1.390000000000000124e-01 2.179689999999999961e-01 8.242354999999999876e+00 1.293715000000000259e+02 2.286989999999999782e+03
1.400000000000000133e-01 2.179730000000000001e-01 8.287924999999999542e+00 1.293799999999999955e+02 2.287024999999999636e+03
1.410000000000000142e-01 2.179725000000000135e-01 8.277094999999999203e+00 1.292450000000000045e+02 2.287024999999999636e+03
1.420000000000000151e-01 2.179669999999999941e-01 8.209839999999999804e+00 1.289720000000000084e+02 2.286989999999999782e+03
1.430000000000000160e-01 2.179570000000000118e-01 8.089120000000001198e+00 1.285734999999999957e+02 2.286925000000000182e+03
1.440000000000000169e-01 2.179424999999999835e-01 7.920474999999999710e+00 1.280679999999999836e+02 2.286824999999999818e+03
1.450000000000000178e-01 2.179240000000000066e-01 7.711479999999999890e+00 1.274769999999999897e+02 2.286699999999999818e+03
1.459999999999999909e-01 2.179030000000000133e-01 7.471124999999999794e+00 1.268255000000000052e+02 2.286555000000000291e+03
1.469999999999999918e-01 2.178789999999999893e-01 7.209149999999999281e+00 1.261380000000000052e+02 2.286394999999999982e+03
1.479999999999999927e-01 2.178539999999999921e-01 6.935385000000000133e+00 1.254385000000000048e+02 2.286225000000000364e+03
1.489999999999999936e-01 2.178289999999999949e-01 6.659130000000000216e+00 1.247479999999999905e+02 2.286045000000000073e+03
1.499999999999999944e-01 2.178039999999999976e-01 6.388664999999999594e+00 1.240845000000000056e+02 2.285864999999999782e+03
1.509999999999999953e-01 2.177795000000000147e-01 6.130819999999999936e+00 1.234604999999999961e+02 2.285699999999999818e+03
1.519999999999999962e-01 2.177565000000000195e-01 5.890745000000000786e+00 1.228855000000000075e+02 2.285534999999999854e+03
1.529999999999999971e-01 2.177344999999999975e-01 5.671764999999999723e+00 1.223624999999999972e+02 2.285385000000000218e+03
1.539999999999999980e-01 2.177149999999999919e-01 5.475414999999999921e+00 1.218915000000000077e+02 2.285244999999999891e+03
1.549999999999999989e-01 2.176965000000000150e-01 5.301565000000000083e+00 1.214664999999999964e+02 2.285119999999999891e+03
1.559999999999999998e-01 2.176799999999999846e-01 5.148620000000000196e+00 1.210805000000000007e+02 2.285000000000000000e+03
1.570000000000000007e-01 2.176644999999999830e-01 5.013814999999999245e+00 1.207235000000000014e+02 2.284890000000000327e+03
1.580000000000000016e-01 2.176494999999999957e-01 4.893525000000000347e+00 1.203840000000000003e+02 2.284784999999999854e+03
1.590000000000000024e-01 2.176359999999999961e-01 4.783615000000000173e+00 1.200504999999999995e+02 2.284690000000000055e+03
