# t [s], A [cm^2], U [cm/s], P [cPa], c [cm/s]
1.000000000000000021e-03 5.020094999999999974e-01 3.168600000000000583e-03 9.879410000000000025e+01 1.446549999999999955e+03
2.000000000000000042e-03 5.020020000000000593e-01 -1.706550000000000254e-04 9.877559999999999718e+01 1.446545000000000073e+03
3.000000000000000062e-03 5.020394999999999719e-01 7.381665000000001142e-02 9.884274999999999523e+01 1.446565000000000055e+03
4.000000000000000083e-03 5.020845000000000447e-01 1.642046000000000061e-01 9.894749999999999091e+01 1.446595000000000027e+03
5.000000000000000104e-03 5.020805000000000407e-01 1.651205000000000034e-01 9.894454999999999245e+01 1.446595000000000027e+03
6.000000000000000125e-03 5.020385000000000542e-01 8.826549999999999674e-02 9.880700000000000216e+01 1.446570000000000164e+03
7.000000000000000146e-03 5.019945000000000102e-01 1.811000000000007049e-03 9.859819999999999141e+01 1.446525000000000091e+03
8.000000000000000167e-03 5.019390000000000240e-01 -1.119984999999999453e-01 9.831100000000000705e+01 1.446460000000000036e+03
9.000000000000001055e-03 5.018445000000000267e-01 -3.134550000000000392e-01 9.787290000000000134e+01 1.446360000000000127e+03
1.000000000000000194e-02 5.017024999999999402e-01 -6.173350000000000781e-01 9.723914999999999509e+01 1.446210000000000036e+03
1.099999999999999936e-02 5.015085000000000237e-01 -1.023884999999999934e+00 9.637924999999999898e+01 1.446005000000000109e+03
1.200000000000000025e-02 5.012510000000000021e-01 -1.543849999999999945e+00 9.525169999999999959e+01 1.445735000000000127e+03
1.300000000000000114e-02 5.009270000000000111e-01 -2.167405000000000026e+00 9.383529999999998950e+01 1.445384999999999991e+03
1.400000000000000203e-02 5.005570000000000297e-01 -2.832385000000000375e+00 9.217390000000000327e+01 1.444960000000000036e+03
1.499999999999999944e-02 5.001789999999999292e-01 -3.433645000000000280e+00 9.038165000000000759e+01 1.444490000000000009e+03
1.600000000000000033e-02 4.998354999999999881e-01 -3.863840000000000163e+00 8.860370000000000346e+01 1.444009999999999991e+03
1.700000000000000122e-02 4.995479999999999920e-01 -4.052405000000000257e+00 8.696379999999999200e+01 1.443535000000000082e+03
1.800000000000000211e-02 4.993195000000000272e-01 -3.982651249999999532e+00 8.552949999999999875e+01 1.443099999999999909e+03
1.900000000000000300e-02 4.991344999999999810e-01 -3.686805499999999736e+00 8.430205000000000837e+01 1.442704999999999927e+03
2.000000000000000042e-02 4.989660000000000206e-01 -3.227934799999999882e+00 8.322875000000000512e+01 1.442335000000000036e+03
2.100000000000000130e-02 4.987880000000000091e-01 -2.677356500000000139e+00 8.222735000000000127e+01 1.441985000000000127e+03
2.200000000000000219e-02 4.985819999999999697e-01 -2.094179999999999708e+00 8.121444999999999936e+01 1.441634999999999991e+03
2.299999999999999961e-02 4.983385000000000176e-01 -1.512024999999999952e+00 8.012989999999999213e+01 1.441269999999999982e+03
2.400000000000000050e-02 4.980634999999999923e-01 -9.362600000000000922e-01 7.894995000000000118e+01 1.440884999999999991e+03
2.500000000000000139e-02 4.977669999999999595e-01 -3.518450000000004074e-01 7.768564999999999543e+01 1.440480000000000018e+03
2.600000000000000228e-02 4.974635000000000029e-01 2.624800000000000466e-01 7.636965000000000714e+01 1.440059999999999945e+03
2.700000000000000316e-02 4.971619999999999928e-01 9.195050000000000168e-01 7.503710000000000946e+01 1.439634999999999991e+03
2.800000000000000058e-02 4.968654999999999600e-01 1.613625000000000087e+00 7.370914999999999395e+01 1.439210000000000036e+03
2.900000000000000147e-02 4.965680000000000094e-01 2.317654999999999799e+00 7.238204999999999245e+01 1.438779999999999973e+03
3.000000000000000236e-02 4.962554999999999605e-01 2.986220000000000319e+00 7.102549999999999386e+01 1.438345000000000027e+03
3.099999999999999978e-02 4.959125000000000338e-01 3.563969999999999860e+00 6.958844999999999459e+01 1.437889999999999873e+03
3.200000000000000067e-02 4.955220000000000180e-01 3.996234999999999538e+00 6.801040000000000418e+01 1.437400000000000091e+03
3.300000000000000155e-02 4.950734999999999997e-01 4.240090000000000359e+00 6.623635000000000161e+01 1.436865000000000009e+03
3.400000000000000244e-02 4.945629999999999749e-01 4.272845000000000226e+00 6.423109999999999786e+01 1.436284999999999854e+03
3.500000000000000333e-02 4.939955000000000318e-01 4.097354999999999414e+00 6.199009999999999820e+01 1.435644999999999982e+03
3.600000000000000422e-02 4.933855000000000324e-01 3.741419999999999746e+00 5.954465000000000430e+01 1.434944999999999936e+03
3.700000000000000511e-02 4.927540000000000253e-01 3.253259999999999597e+00 5.695969999999999800e+01 1.434215000000000146e+03
3.799999999999999906e-02 4.921250000000000346e-01 2.693400000000000460e+00 5.432614999999999839e+01 1.433464999999999918e+03
3.899999999999999994e-02 4.915260000000000185e-01 2.125770000000000604e+00 5.174934999999999974e+01 1.432724999999999909e+03
4.000000000000000083e-02 4.909784999999999844e-01 1.610009999999999941e+00 4.933655000000000257e+01 1.432014999999999873e+03
4.100000000000000172e-02 4.905025000000000079e-01 1.195815000000000072e+00 4.718619999999999948e+01 1.431365000000000009e+03
4.200000000000000261e-02 4.901125000000000065e-01 9.202999999999996739e-01 4.537994999999999379e+01 1.430799999999999955e+03
4.300000000000000350e-02 4.898169999999999469e-01 8.076599999999998225e-01 4.397804999999999609e+01 1.430335000000000036e+03
4.400000000000000439e-02 4.896199999999999997e-01 8.708700000000000330e-01 4.301820000000000022e+01 1.429985000000000127e+03
4.499999999999999833e-02 4.895220000000000127e-01 1.114449999999999941e+00 4.251789999999999736e+01 1.429755000000000109e+03
4.599999999999999922e-02 4.895220000000000127e-01 1.537541499999999894e+00 4.247755000000000081e+01 1.429654999999999973e+03
4.700000000000000011e-02 4.896159999999999957e-01 2.136540000000000106e+00 4.288535000000000252e+01 1.429679999999999836e+03
4.800000000000000100e-02 4.898000000000000131e-01 2.906886999999999777e+00 4.372135000000000105e+01 1.429829999999999927e+03
4.900000000000000189e-02 4.900695000000000467e-01 3.843742999999999910e+00 4.496105000000000018e+01 1.430099999999999909e+03
5.000000000000000278e-02 4.904199999999999671e-01 4.941640550000000687e+00 4.657720000000000482e+01 1.430480000000000018e+03
5.100000000000000366e-02 4.908445000000000169e-01 6.193483000000000516e+00 4.854044999999999987e+01 1.430969999999999800e+03
5.200000000000000455e-02 4.913380000000000525e-01 7.589335000000000164e+00 5.081919999999999504e+01 1.431554999999999836e+03
5.300000000000000544e-02 4.918919999999999959e-01 9.115370000000000417e+00 5.337890000000000157e+01 1.432224999999999909e+03
5.399999999999999939e-02 4.924990000000000201e-01 1.075341000000000058e+01 5.618135000000000190e+01 1.432974999999999909e+03
5.500000000000000028e-02 4.931484999999999896e-01 1.248109999999999964e+01 5.918449999999999989e+01 1.433795000000000073e+03
5.600000000000000117e-02 4.938295000000000323e-01 1.427280999999999977e+01 6.234339999999999549e+01 1.434664999999999964e+03
5.700000000000000205e-02 4.945325000000000415e-01 1.610084499999999963e+01 6.561105000000000587e+01 1.435579999999999927e+03
5.800000000000000294e-02 4.952465000000000339e-01 1.793714999999999904e+01 6.894050000000000011e+01 1.436525000000000091e+03
5.900000000000000383e-02 4.959609999999999852e-01 1.975475000000000136e+01 7.228669999999999618e+01 1.437485000000000127e+03
6.000000000000000472e-02 4.966690000000000271e-01 2.152945000000000064e+01 7.560900000000000887e+01 1.438449999999999818e+03
6.099999999999999867e-02 4.973625000000000407e-01 2.324065000000000225e+01 7.887234999999999729e+01 1.439414999999999964e+03
6.199999999999999956e-02 4.980374999999999663e-01 2.487214999999999776e+01 8.204925000000000068e+01 1.440365000000000009e+03
6.300000000000000044e-02 4.986895000000000078e-01 2.641250000000000142e+01 8.512004999999999200e+01 1.441289999999999964e+03
6.400000000000000133e-02 4.993180000000000396e-01 2.785484999999999900e+01 8.807349999999999568e+01 1.442190000000000055e+03
6.500000000000000222e-02 4.999230000000000063e-01 2.919644999999999868e+01 9.090594999999999004e+01 1.443065000000000055e+03
6.600000000000000311e-02 5.005060000000000064e-01 3.043829999999999814e+01 9.362104999999999677e+01 1.443914999999999964e+03
6.700000000000000400e-02 5.010685000000000278e-01 3.158429999999999893e+01 9.622719999999999629e+01 1.444730000000000018e+03
6.800000000000000488e-02 5.016154999999999919e-01 3.264065000000000083e+01 9.873900000000000432e+01 1.445519999999999982e+03
6.900000000000000577e-02 5.021489999999999565e-01 3.361514999999999986e+01 1.011726500000000044e+02 1.446295000000000073e+03
7.000000000000000666e-02 5.026739999999999542e-01 3.451664999999999850e+01 1.035463499999999897e+02 1.447045000000000073e+03
7.100000000000000755e-02 5.031934999999999603e-01 3.535410000000000252e+01 1.058781999999999925e+02 1.447789999999999964e+03
7.200000000000000844e-02 5.037110000000000198e-01 3.613640000000000185e+01 1.081860000000000070e+02 1.448519999999999982e+03
7.300000000000000933e-02 5.042284999999999684e-01 3.687165000000000248e+01 1.104844999999999970e+02 1.449244999999999891e+03
7.399999999999999634e-02 5.047494999999999621e-01 3.756660000000000110e+01 1.127849999999999966e+02 1.449970000000000027e+03
7.499999999999999722e-02 5.052745000000000708e-01 3.822639999999999816e+01 1.150960000000000036e+02 1.450700000000000045e+03
7.599999999999999811e-02 5.058040000000000314e-01 3.885399999999999920e+01 1.174199999999999875e+02 1.451425000000000182e+03
7.699999999999999900e-02 5.063355000000000494e-01 3.945029999999999859e+01 1.197554999999999978e+02 1.452159999999999854e+03
7.799999999999999989e-02 5.068684999999999441e-01 4.001385000000000502e+01 1.220955000000000013e+02 1.452889999999999873e+03
7.900000000000000078e-02 5.073990000000000444e-01 4.054135000000000133e+01 1.244279999999999973e+02 1.453619999999999891e+03
8.000000000000000167e-02 5.079240000000000421e-01 4.102734999999999843e+01 1.267379999999999995e+02 1.454340000000000146e+03
8.100000000000000255e-02 5.084389999999999743e-01 4.146519999999999584e+01 1.290070000000000050e+02 1.455055000000000064e+03
8.200000000000000344e-02 5.089390000000000303e-01 4.184735000000000582e+01 1.312135000000000105e+02 1.455750000000000000e+03
8.300000000000000433e-02 5.094184999999999963e-01 4.216575000000000273e+01 1.333350000000000080e+02 1.456429999999999836e+03
8.400000000000000522e-02 5.098739999999999384e-01 4.241259999999999764e+01 1.353509999999999991e+02 1.457075000000000045e+03
8.500000000000000611e-02 5.102995000000000170e-01 4.258055000000000234e+01 1.372394999999999925e+02 1.457690000000000055e+03
8.600000000000000699e-02 5.106935000000000224e-01 4.266344999999999743e+01 1.389834999999999923e+02 1.458259999999999991e+03
8.700000000000000788e-02 5.110510000000000330e-01 4.265635000000000332e+01 1.405654999999999859e+02 1.458784999999999854e+03
8.800000000000000877e-02 5.113699999999999912e-01 4.255610000000000070e+01 1.419749999999999943e+02 1.459269999999999982e+03
8.899999999999999578e-02 5.116494999999999793e-01 4.236114999999999498e+01 1.432024999999999864e+02 1.459694999999999936e+03
8.999999999999999667e-02 5.118884999999999685e-01 4.207220000000000226e+01 1.442445000000000164e+02 1.460065000000000055e+03
9.099999999999999756e-02 5.120875000000000288e-01 4.169134999999999991e+01 1.451009999999999991e+02 1.460384999999999991e+03
9.199999999999999845e-02 5.122470000000000079e-01 4.122310000000000230e+01 1.457764999999999986e+02 1.460644999999999982e+03
9.299999999999999933e-02 5.123694999999999222e-01 4.067320000000000135e+01 1.462789999999999964e+02 1.460860000000000127e+03
9.400000000000000022e-02 5.124575000000000102e-01 4.004930000000000234e+01 1.466195000000000164e+02 1.461019999999999982e+03
9.500000000000000111e-02 5.125140000000000251e-01 3.936015000000000441e+01 1.468129999999999882e+02 1.461134999999999991e+03
9.600000000000000200e-02 5.125429999999999708e-01 3.861570000000000391e+01 1.468750000000000000e+02 1.461200000000000045e+03
9.700000000000000289e-02 5.125480000000000036e-01 3.782659999999999911e+01 1.468245000000000005e+02 1.461235000000000127e+03
9.800000000000000377e-02 5.125325000000000575e-01 3.700400000000000489e+01 1.466809999999999832e+02 1.461240000000000009e+03
9.900000000000000466e-02 5.125024999999999720e-01 3.615905000000000058e+01 1.464629999999999939e+02 1.461215000000000146e+03
1.000000000000000056e-01 5.124604999999999855e-01 3.530264999999999986e+01 1.461904999999999859e+02 1.461164999999999964e+03
1.010000000000000064e-01 5.124109999999999498e-01 3.444530000000000314e+01 1.458824999999999932e+02 1.461099999999999909e+03
1.020000000000000073e-01 5.123575000000000212e-01 3.359635000000000105e+01 1.455545000000000186e+02 1.461025000000000091e+03
1.030000000000000082e-01 5.123020000000000351e-01 3.276400000000000290e+01 1.452225000000000250e+02 1.460940000000000055e+03
1.040000000000000091e-01 5.122484999999999955e-01 3.195504999999999995e+01 1.448990000000000009e+02 1.460855000000000018e+03
1.050000000000000100e-01 5.121980000000000421e-01 3.117470000000000141e+01 1.445930000000000177e+02 1.460775000000000091e+03
1.059999999999999970e-01 5.121520000000000516e-01 3.042625000000000313e+01 1.443104999999999905e+02 1.460690000000000055e+03
1.069999999999999979e-01 5.121105000000000240e-01 2.971150000000000091e+01 1.440564999999999998e+02 1.460610000000000127e+03
1.079999999999999988e-01 5.120740000000000292e-01 2.903024999999999878e+01 1.438310000000000173e+02 1.460539999999999964e+03
1.089999999999999997e-01 5.120409999999999684e-01 2.838080000000000069e+01 1.436304999999999836e+02 1.460474999999999909e+03
1.100000000000000006e-01 5.120115000000000638e-01 2.776014999999999944e+01 1.434515000000000100e+02 1.460414999999999964e+03
1.110000000000000014e-01 5.119829999999999659e-01 2.716389999999999816e+01 1.432870000000000061e+02 1.460359999999999900e+03
1.120000000000000023e-01 5.119540000000000202e-01 2.658689999999999998e+01 1.431270000000000095e+02 1.460305000000000064e+03
1.130000000000000032e-01 5.119219999999999882e-01 2.602329999999999899e+01 1.429629999999999939e+02 1.460250000000000000e+03
1.140000000000000041e-01 5.118850000000000344e-01 2.546695000000000064e+01 1.427839999999999918e+02 1.460190000000000055e+03
1.150000000000000050e-01 5.118409999999999904e-01 2.491169999999999973e+01 1.425805000000000007e+02 1.460125000000000000e+03
1.160000000000000059e-01 5.117880000000000207e-01 2.435170000000000101e+01 1.423414999999999964e+02 1.460049999999999955e+03
1.170000000000000068e-01 5.117239999999999567e-01 2.378155000000000285e+01 1.420595000000000141e+02 1.459970000000000027e+03
1.180000000000000077e-01 5.116479999999999917e-01 2.319669999999999987e+01 1.417259999999999991e+02 1.459869999999999891e+03
1.190000000000000085e-01 5.115585000000000271e-01 2.259349999999999881e+01 1.413365000000000009e+02 1.459755000000000109e+03
1.200000000000000094e-01 5.114560000000000217e-01 2.196950000000000003e+01 1.408865000000000123e+02 1.459625000000000000e+03
1.209999999999999964e-01 5.113389999999999880e-01 2.132325000000000159e+01 1.403750000000000000e+02 1.459485000000000127e+03
1.219999999999999973e-01 5.112084999999999546e-01 2.065474999999999994e+01 1.398025000000000091e+02 1.459319999999999936e+03
1.229999999999999982e-01 5.110660000000000203e-01 1.996519999999999939e+01 1.391725000000000136e+02 1.459134999999999991e+03
1.239999999999999991e-01 5.109120000000000328e-01 1.925704999999999956e+01 1.384894999999999925e+02 1.458944999999999936e+03
1.250000000000000000e-01 5.107490000000000085e-01 1.853389999999999915e+01 1.377605000000000075e+02 1.458730000000000018e+03
1.260000000000000009e-01 5.105779999999999763e-01 1.780024999999999835e+01 1.369950000000000045e+02 1.458509999999999991e+03
1.270000000000000018e-01 5.104024999999999812e-01 1.706165000000000020e+01 1.362030000000000030e+02 1.458279999999999973e+03
1.280000000000000027e-01 5.102244999999999697e-01 1.632419999999999760e+01 1.353954999999999984e+02 1.458039999999999964e+03
1.290000000000000036e-01 5.100465000000000693e-01 1.559440000000000026e+01 1.345840000000000032e+02 1.457805000000000064e+03
1.300000000000000044e-01 5.098715000000000330e-01 1.487921500000000030e+01 1.337814999999999941e+02 1.457565000000000055e+03
1.310000000000000053e-01 5.097019999999999884e-01 1.418527999999999878e+01 1.330004999999999882e+02 1.457329999999999927e+03
1.320000000000000062e-01 5.095399999999999929e-01 1.351930000000000121e+01 1.322510000000000048e+02 1.457099999999999909e+03
1.330000000000000071e-01 5.093885000000000218e-01 1.288725999999999949e+01 1.315455000000000041e+02 1.456880000000000109e+03
1.340000000000000080e-01 5.092489999999999517e-01 1.229466500000000018e+01 1.308915000000000077e+02 1.456670000000000073e+03
1.350000000000000089e-01 5.091229999999999922e-01 1.174615999999999971e+01 1.302975000000000136e+02 1.456485000000000127e+03
1.360000000000000098e-01 5.090120000000000200e-01 1.124523500000000098e+01 1.297700000000000102e+02 1.456309999999999945e+03
1.370000000000000107e-01 5.089159999999999240e-01 1.079446499999999887e+01 1.293125000000000000e+02 1.456154999999999973e+03
1.380000000000000115e-01 5.088359999999999550e-01 1.039526000000000039e+01 1.289269999999999925e+02 1.456019999999999982e+03
1.390000000000000124e-01 5.087714999999999321e-01 1.004782499999999956e+01 1.286134999999999877e+02 1.455904999999999973e+03
1.400000000000000133e-01 5.087220000000000075e-01 9.751279999999999504e+00 1.283709999999999809e+02 1.455815000000000055e+03
1.410000000000000142e-01 5.086865000000000414e-01 9.503655000000000186e+00 1.281940000000000168e+02 1.455740000000000009e+03
1.420000000000000151e-01 5.086640000000000050e-01 9.301999999999999602e+00 1.280785000000000196e+02 1.455680000000000064e+03
1.430000000000000160e-01 5.086524999999999519e-01 9.142680000000000362e+00 1.280175000000000125e+02 1.455639999999999873e+03
1.440000000000000169e-01 5.086499999999999355e-01 9.021369999999999223e+00 1.280029999999999859e+02 1.455615000000000009e+03
1.450000000000000178e-01 5.086555000000000382e-01 8.933115000000000805e+00 1.280269999999999868e+02 1.455605000000000018e+03
1.459999999999999909e-01 5.086665000000000214e-01 8.872920000000000584e+00 1.280810000000000173e+02 1.455605000000000018e+03
1.469999999999999918e-01 5.086815000000000087e-01 8.835535000000000139e+00 1.281560000000000059e+02 1.455610000000000127e+03
1.479999999999999927e-01 5.086979999999999835e-01 8.815754999999999342e+00 1.282429999999999950e+02 1.455619999999999891e+03
1.489999999999999936e-01 5.087154999999999871e-01 8.808624999999999261e+00 1.283354999999999961e+02 1.455639999999999873e+03
1.499999999999999944e-01 5.087325000000000319e-01 8.809509999999999508e+00 1.284254999999999995e+02 1.455654999999999973e+03
1.509999999999999953e-01 5.087464999999999904e-01 8.814225000000000421e+00 1.285065000000000168e+02 1.455674999999999955e+03
1.519999999999999962e-01 5.087570000000000148e-01 8.819115000000000038e+00 1.285740000000000123e+02 1.455684999999999945e+03
1.529999999999999971e-01 5.087639999999999940e-01 8.821085000000000065e+00 1.286239999999999952e+02 1.455700000000000045e+03
1.539999999999999980e-01 5.087669999999999693e-01 8.817730000000000956e+00 1.286539999999999964e+02 1.455704999999999927e+03
1.549999999999999989e-01 5.087644999999999529e-01 8.807145000000000223e+00 1.286625000000000227e+02 1.455710000000000036e+03
1.559999999999999998e-01 5.087580000000000435e-01 8.788159999999999528e+00 1.286485000000000127e+02 1.455700000000000045e+03
1.570000000000000007e-01 5.087470000000000603e-01 8.760165000000000646e+00 1.286129999999999995e+02 1.455695000000000164e+03
1.580000000000000016e-01 5.087315000000000031e-01 8.723034999999999428e+00 1.285570000000000164e+02 1.455679999999999836e+03
1.590000000000000024e-01 5.087129999999999708e-01 8.677140000000001407e+00 1.284834999999999923e+02 1.455659999999999854e+03
