# t [s], A [cm^2], U [cm/s], P [cPa], c [cm/s]
1.000000000000000021e-03 1.202860000000000040e-01 2.202850000000000086e-01 8.827619999999998868e+01 1.860670000000000073e+03
2.000000000000000042e-03 1.202674999999999994e-01 1.519063000000000052e+00 8.573014999999999475e+01 1.860400000000000091e+03
3.000000000000000062e-03 1.201979999999999993e-01 3.135035500000000308e+00 8.233275000000000432e+01 1.859454999999999927e+03
4.000000000000000083e-03 1.200939999999999924e-01 4.937591149999999374e+00 7.846545000000000414e+01 1.858049999999999955e+03
5.000000000000000104e-03 1.199729999999999963e-01 6.883214999999999861e+00 7.475730000000000075e+01 1.856434999999999945e+03
6.000000000000000125e-03 1.198490000000000111e-01 8.885664999999999480e+00 7.157399999999999807e+01 1.854804999999999836e+03
7.000000000000000146e-03 1.197304999999999897e-01 1.080278999999999812e+01 6.891710000000000491e+01 1.853250000000000000e+03
8.000000000000000167e-03 1.196185000000000026e-01 1.251142500000000091e+01 6.659170000000000300e+01 1.851809999999999945e+03
9.000000000000001055e-03 1.195144999999999957e-01 1.398050999999999888e+01 6.448975000000000080e+01 1.850494999999999891e+03
1.000000000000000194e-02 1.194215000000000138e-01 1.523714999999999975e+01 6.264754999999999541e+01 1.849335000000000036e+03
1.099999999999999936e-02 1.193410000000000026e-01 1.630444999999999922e+01 6.110750000000000171e+01 1.848335000000000036e+03
1.200000000000000025e-02 1.192720000000000030e-01 1.719350000000000023e+01 5.985855000000000814e+01 1.847500000000000000e+03
1.300000000000000114e-02 1.192155000000000020e-01 1.791329999999999956e+01 5.886379999999999768e+01 1.846815000000000055e+03
1.400000000000000203e-02 1.191689999999999972e-01 1.846845000000000070e+01 5.806915000000000049e+01 1.846259999999999991e+03
1.499999999999999944e-02 1.191309999999999869e-01 1.886064999999999969e+01 5.740129999999999910e+01 1.845809999999999945e+03
1.600000000000000033e-02 1.190984999999999960e-01 1.910914999999999964e+01 5.680974999999999397e+01 1.845440000000000055e+03
1.700000000000000122e-02 1.190719999999999973e-01 1.927074999999999960e+01 5.633270000000000266e+01 1.845144999999999982e+03
1.800000000000000211e-02 1.190539999999999932e-01 1.943534999999999968e+01 5.611854999999999905e+01 1.844944999999999936e+03
1.900000000000000300e-02 1.190480000000000149e-01 1.969449999999999790e+01 5.636769999999999925e+01 1.844889999999999873e+03
2.000000000000000042e-02 1.190579999999999972e-01 2.010275000000000034e+01 5.722764999999999702e+01 1.845019999999999982e+03
2.100000000000000130e-02 1.190854999999999969e-01 2.065399999999999991e+01 5.870475000000000421e+01 1.845364999999999782e+03
2.200000000000000219e-02 1.191280000000000117e-01 2.128304999999999936e+01 6.063674999999999926e+01 1.845894999999999982e+03
2.299999999999999961e-02 1.191805000000000087e-01 2.188909999999999911e+01 6.273449999999999704e+01 1.846550000000000182e+03
2.400000000000000050e-02 1.192364999999999953e-01 2.236809999999999832e+01 6.466660000000000252e+01 1.847244999999999891e+03
2.500000000000000139e-02 1.192865000000000036e-01 2.264305000000000234e+01 6.615254999999999086e+01 1.847889999999999873e+03
2.600000000000000228e-02 1.193265000000000020e-01 2.268169999999999931e+01 6.703135000000000332e+01 1.848409999999999854e+03
2.700000000000000316e-02 1.193525000000000003e-01 2.249944999999999951e+01 6.728894999999999982e+01 1.848759999999999991e+03
2.800000000000000058e-02 1.193649999999999989e-01 2.214789999999999992e+01 6.704005000000000791e+01 1.848940000000000055e+03
2.900000000000000147e-02 1.193665000000000004e-01 2.169510000000000005e+01 6.647765000000001123e+01 1.848974999999999909e+03
3.000000000000000236e-02 1.193605000000000083e-01 2.120475000000000065e+01 6.580799999999999272e+01 1.848924999999999955e+03
3.099999999999999978e-02 1.193514999999999993e-01 2.071989999999999910e+01 6.519325000000000614e+01 1.848819999999999936e+03
3.200000000000000067e-02 1.193420000000000036e-01 2.025609999999999999e+01 6.471620000000000061e+01 1.848704999999999927e+03
3.300000000000000155e-02 1.193339999999999956e-01 1.980290000000000106e+01 6.437404999999999688e+01 1.848599999999999909e+03
3.400000000000000244e-02 1.193265000000000020e-01 1.933339999999999748e+01 6.409680000000000177e+01 1.848509999999999991e+03
3.500000000000000333e-02 1.193180000000000074e-01 1.881660000000000110e+01 6.378255000000000052e+01 1.848404999999999973e+03
3.600000000000000422e-02 1.193075000000000108e-01 1.823069999999999879e+01 6.333749999999999858e+01 1.848279999999999973e+03
3.700000000000000511e-02 1.192924999999999958e-01 1.757229999999999848e+01 6.271034999999999826e+01 1.848105000000000018e+03
3.799999999999999906e-02 1.192730000000000040e-01 1.686079999999999757e+01 6.191295000000000215e+01 1.847865000000000009e+03
3.899999999999999994e-02 1.192499999999999949e-01 1.613650000000000162e+01 6.102294999999999447e+01 1.847585000000000036e+03
4.000000000000000083e-02 1.192259999999999986e-01 1.545340000000000025e+01 6.016849999999999454e+01 1.847295000000000073e+03
4.100000000000000172e-02 1.192040000000000044e-01 1.486764999999999937e+01 5.949930000000000518e+01 1.847019999999999982e+03
4.200000000000000261e-02 1.191875000000000018e-01 1.442624999999999957e+01 5.915209999999999724e+01 1.846815000000000055e+03
4.300000000000000350e-02 1.191799999999999943e-01 1.415719999999999956e+01 5.921949999999999648e+01 1.846710000000000036e+03
4.400000000000000439e-02 1.191830000000000112e-01 1.406414999999999971e+01 5.972944999999999993e+01 1.846730000000000018e+03
4.499999999999999833e-02 1.191975000000000118e-01 1.412604999999999933e+01 6.063854999999999507e+01 1.846894999999999982e+03
4.599999999999999922e-02 1.192215000000000080e-01 1.430109999999999992e+01 6.184009999999999962e+01 1.847179999999999836e+03
4.700000000000000011e-02 1.192524999999999974e-01 1.453395000000000081e+01 6.318314999999999770e+01 1.847549999999999955e+03
4.800000000000000100e-02 1.192870000000000041e-01 1.476409999999999911e+01 6.449745000000000061e+01 1.847974999999999909e+03
4.900000000000000189e-02 1.193210000000000104e-01 1.493430000000000035e+01 6.561889999999999645e+01 1.848389999999999873e+03
5.000000000000000278e-02 1.193500000000000116e-01 1.499684999999999846e+01 6.641089999999999804e+01 1.848755000000000109e+03
5.100000000000000366e-02 1.193710000000000049e-01 1.491789999999999949e+01 6.677880000000000393e+01 1.849019999999999982e+03
5.200000000000000455e-02 1.193810000000000010e-01 1.467879999999999896e+01 6.667605000000000359e+01 1.849150000000000091e+03
5.300000000000000544e-02 1.193794999999999995e-01 1.427554999999999907e+01 6.610214999999999463e+01 1.849134999999999991e+03
5.399999999999999939e-02 1.193644999999999984e-01 1.371620000000000061e+01 6.509499999999999886e+01 1.848965000000000146e+03
5.500000000000000028e-02 1.193385000000000001e-01 1.301759999999999984e+01 6.371934999999999860e+01 1.848650000000000091e+03
5.600000000000000117e-02 1.193015000000000048e-01 1.220195000000000007e+01 6.205460000000000065e+01 1.848204999999999927e+03
5.700000000000000205e-02 1.192565000000000014e-01 1.129418000000000077e+01 6.018404999999999916e+01 1.847650000000000091e+03
5.800000000000000294e-02 1.192044999999999910e-01 1.031973499999999966e+01 5.818715000000000259e+01 1.847009999999999991e+03
5.900000000000000383e-02 1.191475000000000034e-01 9.303805000000000547e+00 5.613540000000000418e+01 1.846304999999999836e+03
6.000000000000000472e-02 1.190879999999999994e-01 8.271079999999999544e+00 5.409145000000000181e+01 1.845570000000000164e+03
6.099999999999999867e-02 1.190275000000000083e-01 7.246069999999999567e+00 5.211050000000000182e+01 1.844819999999999936e+03
6.199999999999999956e-02 1.189680000000000043e-01 6.253669999999999618e+00 5.024325000000000330e+01 1.844074999999999818e+03
6.300000000000000044e-02 1.189105000000000023e-01 5.319594999999999629e+00 4.853860000000000241e+01 1.843365000000000009e+03
6.400000000000000133e-02 1.188575000000000048e-01 4.470499999999999474e+00 4.704574999999999818e+01 1.842699999999999818e+03
6.500000000000000222e-02 1.188105000000000133e-01 3.733589999999999964e+00 4.581524999999999892e+01 1.842105000000000018e+03
6.600000000000000311e-02 1.187700000000000006e-01 3.135895000000000099e+00 4.489825000000000443e+01 1.841599999999999909e+03
6.700000000000000400e-02 1.187394999999999978e-01 2.703089999999999993e+00 4.434425000000000239e+01 1.841204999999999927e+03
6.800000000000000488e-02 1.187185000000000046e-01 2.458165000000000155e+00 4.419839999999999947e+01 1.840934999999999945e+03
6.900000000000000577e-02 1.187099999999999961e-01 2.420069999999999943e+00 4.449824999999999875e+01 1.840819999999999936e+03
7.000000000000000666e-02 1.187145000000000006e-01 2.602510000000000101e+00 4.527029999999999887e+01 1.840860000000000127e+03
7.100000000000000755e-02 1.187330000000000052e-01 3.013034999999999908e+00 4.652769999999999584e+01 1.841070000000000164e+03
7.200000000000000844e-02 1.187664999999999971e-01 3.652504999999999669e+00 4.826865000000000094e+01 1.841454999999999927e+03
7.300000000000000933e-02 1.188134999999999886e-01 4.515035000000000132e+00 5.047625000000000028e+01 1.842025000000000091e+03
7.399999999999999634e-02 1.188754999999999951e-01 5.588300000000000267e+00 5.311880000000000024e+01 1.842775000000000091e+03
7.499999999999999722e-02 1.189505000000000007e-01 6.854264999999999830e+00 5.615229999999999677e+01 1.843690000000000055e+03
7.599999999999999811e-02 1.190375000000000044e-01 8.290099999999998914e+00 5.952244999999999919e+01 1.844755000000000109e+03
7.699999999999999900e-02 1.191355000000000053e-01 9.869374999999999787e+00 6.316795000000000471e+01 1.845960000000000036e+03
7.799999999999999989e-02 1.192425000000000013e-01 1.156324000000000041e+01 6.702379999999999427e+01 1.847284999999999854e+03
7.900000000000000078e-02 1.193569999999999909e-01 1.334183499999999967e+01 7.102439999999999998e+01 1.848699999999999818e+03
8.000000000000000167e-02 1.194764999999999994e-01 1.517544999999999966e+01 7.510679999999999268e+01 1.850190000000000055e+03
8.100000000000000255e-02 1.196004999999999985e-01 1.703565000000000040e+01 7.921340000000000714e+01 1.851735000000000127e+03
8.200000000000000344e-02 1.197259999999999991e-01 1.889645000000000152e+01 8.329399999999999693e+01 1.853309999999999945e+03
8.300000000000000433e-02 1.198520000000000141e-01 2.073495000000000132e+01 8.730764999999999532e+01 1.854894999999999982e+03
8.400000000000000522e-02 1.199775000000000147e-01 2.253200000000000003e+01 9.122350000000000136e+01 1.856480000000000018e+03
8.500000000000000611e-02 1.201004999999999989e-01 2.427254999999999896e+01 9.502125000000000909e+01 1.858045000000000073e+03
8.600000000000000699e-02 1.202214999999999950e-01 2.594565000000000055e+01 9.869085000000001173e+01 1.859574999999999818e+03
8.700000000000000788e-02 1.203400000000000025e-01 2.754435000000000144e+01 1.022313499999999920e+02 1.861079999999999927e+03
8.800000000000000877e-02 1.204544999999999921e-01 2.906524999999999892e+01 1.056491500000000059e+02 1.862549999999999955e+03
8.899999999999999578e-02 1.205664999999999931e-01 3.050789999999999935e+01 1.089555000000000007e+02 1.863980000000000018e+03
8.999999999999999667e-02 1.206754999999999911e-01 3.187405000000000399e+01 1.121664999999999992e+02 1.865375000000000000e+03
9.099999999999999756e-02 1.207815000000000139e-01 3.316705000000000325e+01 1.152984999999999900e+02 1.866740000000000009e+03
9.199999999999999845e-02 1.208849999999999925e-01 3.439099999999999824e+01 1.183679999999999950e+02 1.868079999999999927e+03
9.299999999999999933e-02 1.209869999999999973e-01 3.555015000000000214e+01 1.213884999999999934e+02 1.869394999999999982e+03
9.400000000000000022e-02 1.210875000000000007e-01 3.664815000000000111e+01 1.243694999999999879e+02 1.870694999999999936e+03
9.500000000000000111e-02 1.211865000000000026e-01 3.768795000000000073e+01 1.273180000000000121e+02 1.871974999999999909e+03
9.600000000000000200e-02 1.212845000000000034e-01 3.867119999999999891e+01 1.302330000000000041e+02 1.873240000000000009e+03
9.700000000000000289e-02 1.213810000000000028e-01 3.959814999999999685e+01 1.331105000000000018e+02 1.874494999999999891e+03
9.800000000000000377e-02 1.214764999999999873e-01 4.046774999999999523e+01 1.359424999999999955e+02 1.875735000000000127e+03
9.900000000000000466e-02 1.215694999999999970e-01 4.127760000000000673e+01 1.387155000000000200e+02 1.876945000000000164e+03
1.000000000000000056e-01 1.216615000000000058e-01 4.202405000000000257e+01 1.414150000000000205e+02 1.878144999999999982e+03
1.010000000000000064e-01 1.217509999999999981e-01 4.270260000000000389e+01 1.440210000000000150e+02 1.879309999999999945e+03
1.020000000000000073e-01 1.218374999999999875e-01 4.330809999999999604e+01 1.465159999999999911e+02 1.880440000000000055e+03
1.030000000000000082e-01 1.219205000000000150e-01 4.383500000000000085e+01 1.488795000000000073e+02 1.881525000000000091e+03
1.040000000000000091e-01 1.219995000000000107e-01 4.427759999999999962e+01 1.510925000000000011e+02 1.882559999999999945e+03
1.050000000000000100e-01 1.220739999999999881e-01 4.463044999999999618e+01 1.531374999999999886e+02 1.883534999999999854e+03
1.059999999999999970e-01 1.221440000000000026e-01 4.488859999999999673e+01 1.549975000000000023e+02 1.884449999999999818e+03
1.069999999999999979e-01 1.222079999999999972e-01 4.504770000000000607e+01 1.566599999999999966e+02 1.885295000000000073e+03
1.079999999999999988e-01 1.222654999999999992e-01 4.510460000000000491e+01 1.581129999999999995e+02 1.886054999999999836e+03
1.089999999999999997e-01 1.223170000000000091e-01 4.505725000000000335e+01 1.593489999999999895e+02 1.886740000000000009e+03
1.100000000000000006e-01 1.223614999999999980e-01 4.490489999999999782e+01 1.603645000000000209e+02 1.887335000000000036e+03
1.110000000000000014e-01 1.223999999999999949e-01 4.464844999999999686e+01 1.611595000000000084e+02 1.887845000000000027e+03
1.120000000000000023e-01 1.224309999999999843e-01 4.429044999999999987e+01 1.617365000000000066e+02 1.888269999999999982e+03
1.130000000000000032e-01 1.224554999999999949e-01 4.383489999999999753e+01 1.621039999999999850e+02 1.888599999999999909e+03
1.140000000000000041e-01 1.224735000000000129e-01 4.328770000000000095e+01 1.622724999999999795e+02 1.888845000000000027e+03
1.150000000000000050e-01 1.224850000000000105e-01 4.265610000000000213e+01 1.622565000000000168e+02 1.889009999999999991e+03
1.160000000000000059e-01 1.224910000000000027e-01 4.194875000000000398e+01 1.620740000000000123e+02 1.889099999999999909e+03
1.170000000000000068e-01 1.224915000000000032e-01 4.117539999999999623e+01 1.617450000000000045e+02 1.889115000000000009e+03
1.180000000000000077e-01 1.224870000000000125e-01 4.034664999999999679e+01 1.612899999999999920e+02 1.889065000000000055e+03
1.190000000000000085e-01 1.224784999999999902e-01 3.947360000000000468e+01 1.607314999999999827e+02 1.888960000000000036e+03
1.200000000000000094e-01 1.224659999999999915e-01 3.856754999999999711e+01 1.600925000000000011e+02 1.888805000000000064e+03
1.209999999999999964e-01 1.224505000000000038e-01 3.763949999999999818e+01 1.593949999999999818e+02 1.888615000000000009e+03
1.219999999999999973e-01 1.224330000000000140e-01 3.670004999999999740e+01 1.586585000000000036e+02 1.888389999999999873e+03
1.229999999999999982e-01 1.224134999999999945e-01 3.575905000000000200e+01 1.579025000000000034e+02 1.888139999999999873e+03
1.239999999999999991e-01 1.223930000000000018e-01 3.482515000000000072e+01 1.571415000000000077e+02 1.887875000000000000e+03
1.250000000000000000e-01 1.223714999999999942e-01 3.390590000000000259e+01 1.563894999999999982e+02 1.887599999999999909e+03
1.260000000000000009e-01 1.223500000000000004e-01 3.300730000000000075e+01 1.556550000000000011e+02 1.887320000000000164e+03
1.270000000000000018e-01 1.223289999999999933e-01 3.213400000000000034e+01 1.549454999999999814e+02 1.887039999999999964e+03
1.280000000000000027e-01 1.223080000000000001e-01 3.128894999999999982e+01 1.542640000000000100e+02 1.886759999999999991e+03
1.290000000000000036e-01 1.222869999999999929e-01 3.047375000000000256e+01 1.536105000000000018e+02 1.886485000000000127e+03
1.300000000000000044e-01 1.222665000000000002e-01 2.968849999999999767e+01 1.529830000000000041e+02 1.886220000000000027e+03
1.310000000000000053e-01 1.222469999999999946e-01 2.893195000000000050e+01 1.523750000000000000e+02 1.885960000000000036e+03
1.320000000000000062e-01 1.222274999999999889e-01 2.820175000000000054e+01 1.517805000000000177e+02 1.885699999999999818e+03
1.330000000000000071e-01 1.222084999999999977e-01 2.749445000000000050e+01 1.511899999999999977e+02 1.885449999999999818e+03
1.340000000000000080e-01 1.221890000000000059e-01 2.680594999999999928e+01 1.505935000000000059e+02 1.885195000000000164e+03
1.350000000000000089e-01 1.221695000000000003e-01 2.613155000000000072e+01 1.499805000000000064e+02 1.884934999999999945e+03
1.360000000000000098e-01 1.221494999999999942e-01 2.546610000000000085e+01 1.493389999999999986e+02 1.884670000000000073e+03
1.370000000000000107e-01 1.221285000000000009e-01 2.480470000000000041e+01 1.486594999999999800e+02 1.884400000000000091e+03
1.380000000000000115e-01 1.221064999999999928e-01 2.414229999999999876e+01 1.479320000000000164e+02 1.884110000000000127e+03
1.390000000000000124e-01 1.220834999999999976e-01 2.347425000000000139e+01 1.471480000000000246e+02 1.883805000000000064e+03
1.400000000000000133e-01 1.220579999999999998e-01 2.279664999999999964e+01 1.462994999999999948e+02 1.883480000000000018e+03
1.410000000000000142e-01 1.220315000000000011e-01 2.210620000000000118e+01 1.453824999999999932e+02 1.883125000000000000e+03
1.420000000000000151e-01 1.220024999999999998e-01 2.140050000000000097e+01 1.443940000000000055e+02 1.882750000000000000e+03
1.430000000000000160e-01 1.219714999999999966e-01 2.067814999999999870e+01 1.433324999999999818e+02 1.882345000000000027e+03
1.440000000000000169e-01 1.219380000000000047e-01 1.993885000000000218e+01 1.422004999999999768e+02 1.881914999999999964e+03
1.450000000000000178e-01 1.219029999999999975e-01 1.918339999999999890e+01 1.410024999999999977e+02 1.881460000000000036e+03
1.459999999999999909e-01 1.218655000000000155e-01 1.841365000000000052e+01 1.397445000000000164e+02 1.880974999999999909e+03
1.469999999999999918e-01 1.218265000000000042e-01 1.763269999999999982e+01 1.384354999999999905e+02 1.880470000000000027e+03
1.479999999999999927e-01 1.217855000000000049e-01 1.684445000000000192e+01 1.370865000000000009e+02 1.879940000000000055e+03
1.489999999999999936e-01 1.217439999999999911e-01 1.605369999999999919e+01 1.357094999999999914e+02 1.879400000000000091e+03
1.499999999999999944e-01 1.217005000000000031e-01 1.526595000000000013e+01 1.343185000000000002e+02 1.878840000000000146e+03
1.509999999999999953e-01 1.216570000000000012e-01 1.448724999999999952e+01 1.329279999999999973e+02 1.878280000000000200e+03
1.519999999999999962e-01 1.216134999999999855e-01 1.372380000000000067e+01 1.315519999999999925e+02 1.877715000000000146e+03
1.529999999999999971e-01 1.215694999999999970e-01 1.298189999999999955e+01 1.302059999999999889e+02 1.877150000000000091e+03
1.539999999999999980e-01 1.215269999999999961e-01 1.226771499999999904e+01 1.289029999999999916e+02 1.876595000000000027e+03
1.549999999999999989e-01 1.214854999999999963e-01 1.158709999999999951e+01 1.276564999999999941e+02 1.876059999999999945e+03
1.559999999999999998e-01 1.214449999999999974e-01 1.094511999999999929e+01 1.264764999999999873e+02 1.875534999999999854e+03
1.570000000000000007e-01 1.214070000000000010e-01 1.034621999999999886e+01 1.253729999999999905e+02 1.875039999999999964e+03
1.580000000000000016e-01 1.213704999999999923e-01 9.794039999999998969e+00 1.243524999999999920e+02 1.874565000000000055e+03
1.590000000000000024e-01 1.213364999999999860e-01 9.291085000000000704e+00 1.234200000000000017e+02 1.874125000000000000e+03
