# t [s], A [cm^2], U [cm/s], P [cPa], c [cm/s]
1.000000000000000021e-03 1.246374999999999983e-01 2.288844999999999907e-01 1.026032500000000027e+02 1.799250000000000000e+03
2.000000000000000042e-03 1.246189999999999937e-01 1.718990000000000018e+00 9.978374999999999773e+01 1.799025000000000091e+03
3.000000000000000062e-03 1.245394999999999974e-01 3.587687499999999918e+00 9.607460000000000377e+01 1.798115000000000009e+03
4.000000000000000083e-03 1.244164999999999993e-01 5.671804500000000360e+00 9.178969999999999629e+01 1.796730000000000018e+03
5.000000000000000104e-03 1.242695000000000050e-01 7.919049999999999478e+00 8.758070000000000732e+01 1.795099999999999909e+03
6.000000000000000125e-03 1.241165000000000046e-01 1.024340499999999921e+01 8.386275000000000546e+01 1.793414999999999964e+03
7.000000000000000146e-03 1.239665000000000072e-01 1.250642999999999994e+01 8.070394999999999186e+01 1.791784999999999854e+03
8.000000000000000167e-03 1.238235000000000030e-01 1.457482500000000059e+01 7.794870000000000232e+01 1.790250000000000000e+03
9.000000000000001055e-03 1.236899999999999944e-01 1.639274999999999949e+01 7.546365000000000123e+01 1.788839999999999918e+03
1.000000000000000194e-02 1.235680000000000112e-01 1.797350000000000136e+01 7.324875000000000114e+01 1.787569999999999936e+03
1.099999999999999936e-02 1.234600000000000142e-01 1.934185000000000088e+01 7.134579999999999700e+01 1.786450000000000045e+03
1.200000000000000025e-02 1.233670000000000044e-01 2.051194999999999879e+01 6.975759999999999650e+01 1.785494999999999891e+03
1.300000000000000114e-02 1.232874999999999943e-01 2.149465000000000003e+01 6.845525000000000659e+01 1.784690000000000055e+03
1.400000000000000203e-02 1.232209999999999972e-01 2.229879999999999995e+01 6.739584999999999582e+01 1.784025000000000091e+03
1.499999999999999944e-02 1.231659999999999977e-01 2.292924999999999969e+01 6.652004999999999768e+01 1.783480000000000018e+03
1.600000000000000033e-02 1.231195000000000067e-01 2.339695000000000036e+01 6.576839999999999975e+01 1.783030000000000200e+03
1.700000000000000122e-02 1.230799999999999950e-01 2.373704999999999998e+01 6.512834999999999752e+01 1.782655000000000200e+03
1.800000000000000211e-02 1.230495000000000061e-01 2.401574999999999704e+01 6.467239999999999611e+01 1.782365000000000009e+03
1.900000000000000300e-02 1.230300000000000005e-01 2.431589999999999918e+01 6.454465000000000430e+01 1.782184999999999945e+03
2.000000000000000042e-02 1.230245000000000088e-01 2.470785000000000053e+01 6.489685000000000059e+01 1.782150000000000091e+03
2.100000000000000130e-02 1.230360000000000065e-01 2.522220000000000084e+01 6.580870000000000175e+01 1.782279999999999973e+03
2.200000000000000219e-02 1.230655000000000082e-01 2.583924999999999983e+01 6.723689999999999145e+01 1.782579999999999927e+03
2.299999999999999961e-02 1.231085000000000096e-01 2.649580000000000268e+01 6.901295000000000357e+01 1.783029999999999973e+03
2.400000000000000050e-02 1.231609999999999927e-01 2.710689999999999955e+01 7.088634999999999309e+01 1.783579999999999927e+03
2.500000000000000139e-02 1.232149999999999912e-01 2.759074999999999989e+01 7.259184999999999377e+01 1.784150000000000091e+03
2.600000000000000228e-02 1.232650000000000134e-01 2.789020000000000010e+01 7.391575000000000273e+01 1.784680000000000064e+03
2.700000000000000316e-02 1.233055000000000123e-01 2.798440000000000083e+01 7.474215000000000941e+01 1.785119999999999891e+03
2.800000000000000058e-02 1.233339999999999992e-01 2.788925000000000054e+01 7.506745000000000800e+01 1.785434999999999945e+03
2.900000000000000147e-02 1.233510000000000023e-01 2.764770000000000039e+01 7.498399999999999466e+01 1.785625000000000000e+03
3.000000000000000236e-02 1.233575000000000088e-01 2.731470000000000198e+01 7.464109999999999445e+01 1.785715000000000146e+03
3.099999999999999978e-02 1.233569999999999944e-01 2.694085000000000107e+01 7.419655000000000200e+01 1.785724999999999909e+03
3.200000000000000067e-02 1.233535000000000048e-01 2.656074999999999875e+01 7.377479999999999905e+01 1.785695000000000164e+03
3.300000000000000155e-02 1.233484999999999998e-01 2.618724999999999881e+01 7.344095000000000084e+01 1.785650000000000091e+03
3.400000000000000244e-02 1.233440000000000092e-01 2.581300000000000239e+01 7.319525000000000148e+01 1.785610000000000127e+03
3.500000000000000333e-02 1.233394999999999908e-01 2.541730000000000089e+01 7.298689999999999145e+01 1.785565000000000055e+03
3.600000000000000422e-02 1.233339999999999992e-01 2.497610000000000241e+01 7.273914999999999509e+01 1.785509999999999991e+03
3.700000000000000511e-02 1.233255000000000046e-01 2.447165000000000035e+01 7.237964999999999804e+01 1.785430000000000064e+03
3.799999999999999906e-02 1.233134999999999926e-01 2.390060000000000073e+01 7.186639999999999873e+01 1.785305000000000064e+03
3.899999999999999994e-02 1.232965000000000033e-01 2.327765000000000128e+01 7.120474999999999000e+01 1.785139999999999873e+03
4.000000000000000083e-02 1.232759999999999967e-01 2.263469999999999871e+01 7.045150000000001000e+01 1.784930000000000064e+03
4.100000000000000172e-02 1.232540000000000024e-01 2.201579999999999870e+01 6.970519999999999072e+01 1.784704999999999927e+03
4.200000000000000261e-02 1.232324999999999948e-01 2.146884999999999977e+01 6.908615000000000350e+01 1.784489999999999782e+03
4.300000000000000350e-02 1.232155000000000056e-01 2.103650000000000020e+01 6.871099999999999852e+01 1.784315000000000055e+03
4.400000000000000439e-02 1.232060000000000100e-01 2.074779999999999802e+01 6.866759999999999309e+01 1.784210000000000036e+03
4.499999999999999833e-02 1.232059999999999961e-01 2.061299999999999955e+01 6.899715000000000487e+01 1.784195000000000164e+03
4.599999999999999922e-02 1.232160000000000061e-01 2.062194999999999823e+01 6.968520000000000891e+01 1.784289999999999964e+03
4.700000000000000011e-02 1.232359999999999983e-01 2.074620000000000175e+01 7.066419999999999391e+01 1.784489999999999782e+03
4.800000000000000100e-02 1.232640000000000124e-01 2.094330000000000069e+01 7.182505000000000450e+01 1.784764999999999873e+03
4.900000000000000189e-02 1.232970000000000038e-01 2.116400000000000148e+01 7.303454999999999586e+01 1.785099999999999909e+03
5.000000000000000278e-02 1.233319999999999972e-01 2.135839999999999961e+01 7.415514999999999191e+01 1.785450000000000045e+03
5.100000000000000366e-02 1.233640000000000014e-01 2.148179999999999978e+01 7.506305000000000405e+01 1.785784999999999854e+03
5.200000000000000455e-02 1.233910000000000007e-01 2.149920000000000186e+01 7.566185000000000116e+01 1.786065000000000055e+03
5.300000000000000544e-02 1.234089999999999909e-01 2.138739999999999952e+01 7.589060000000000628e+01 1.786259999999999991e+03
5.399999999999999939e-02 1.234174999999999994e-01 2.113534999999999897e+01 7.572560000000000002e+01 1.786349999999999909e+03
5.500000000000000028e-02 1.234145000000000103e-01 2.074320000000000164e+01 7.517695000000000505e+01 1.786325000000000045e+03
5.600000000000000117e-02 1.234005000000000102e-01 2.021965000000000146e+01 7.428159999999999741e+01 1.786184999999999945e+03
5.700000000000000205e-02 1.233749999999999986e-01 1.957965000000000089e+01 7.309399999999999409e+01 1.785934999999999945e+03
5.800000000000000294e-02 1.233410000000000062e-01 1.884185000000000088e+01 7.167780000000000484e+01 1.785589999999999918e+03
5.900000000000000383e-02 1.232990000000000058e-01 1.802669999999999817e+01 7.009794999999999732e+01 1.785164999999999964e+03
6.000000000000000472e-02 1.232504999999999989e-01 1.715500000000000114e+01 6.841624999999999091e+01 1.784670000000000073e+03
6.099999999999999867e-02 1.231980000000000020e-01 1.624780000000000157e+01 6.668895000000000550e+01 1.784130000000000109e+03
6.199999999999999956e-02 1.231435000000000030e-01 1.532584999999999908e+01 6.496649999999999636e+01 1.783559999999999945e+03
6.300000000000000044e-02 1.230870000000000020e-01 1.441060000000000052e+01 6.329515000000000668e+01 1.782980000000000018e+03
6.400000000000000133e-02 1.230315000000000158e-01 1.352420000000000044e+01 6.171914999999999907e+01 1.782409999999999854e+03
6.500000000000000222e-02 1.229780000000000040e-01 1.268996999999999886e+01 6.028305000000000291e+01 1.781855000000000018e+03
6.600000000000000311e-02 1.229284999999999961e-01 1.193256000000000050e+01 5.903275000000000006e+01 1.781340000000000146e+03
6.700000000000000400e-02 1.228844999999999937e-01 1.127734999999999843e+01 5.801614999999999611e+01 1.780884999999999991e+03
6.800000000000000488e-02 1.228480000000000127e-01 1.074992999999999910e+01 5.728224999999999767e+01 1.780494999999999891e+03
6.900000000000000577e-02 1.228199999999999986e-01 1.037508500000000033e+01 5.687954999999999472e+01 1.780200000000000045e+03
7.000000000000000666e-02 1.228020000000000084e-01 1.017546000000000106e+01 5.685300000000000153e+01 1.780014999999999873e+03
7.100000000000000755e-02 1.227969999999999895e-01 1.017059500000000050e+01 5.724179999999999779e+01 1.779944999999999936e+03
7.200000000000000844e-02 1.228049999999999975e-01 1.037565000000000026e+01 5.807600000000000051e+01 1.780009999999999991e+03
7.300000000000000933e-02 1.228275000000000061e-01 1.080055000000000121e+01 5.937470000000000425e+01 1.780230000000000018e+03
7.399999999999999634e-02 1.228650000000000020e-01 1.144960000000000022e+01 6.114405000000000001e+01 1.780599999999999909e+03
7.499999999999999722e-02 1.229179999999999995e-01 1.232085000000000008e+01 6.337704999999999700e+01 1.781134999999999991e+03
7.599999999999999811e-02 1.229864999999999986e-01 1.340664999999999907e+01 6.605349999999999966e+01 1.781829999999999927e+03
7.699999999999999900e-02 1.230704999999999993e-01 1.469389999999999930e+01 6.914124999999999943e+01 1.782675000000000182e+03
7.799999999999999989e-02 1.231685000000000002e-01 1.616469999999999985e+01 7.259794999999999732e+01 1.783670000000000073e+03
7.900000000000000078e-02 1.232784999999999992e-01 1.779729999999999990e+01 7.637369999999999948e+01 1.784804999999999836e+03
8.000000000000000167e-02 1.234009999999999968e-01 1.956725000000000136e+01 8.041315000000000168e+01 1.786065000000000055e+03
8.100000000000000255e-02 1.235330000000000039e-01 2.144814999999999827e+01 8.465860000000000696e+01 1.787425000000000182e+03
8.200000000000000344e-02 1.236734999999999918e-01 2.341310000000000002e+01 8.905244999999999322e+01 1.788875000000000000e+03
8.300000000000000433e-02 1.238199999999999995e-01 2.543545000000000300e+01 9.353985000000000127e+01 1.790400000000000091e+03
8.400000000000000522e-02 1.239715000000000122e-01 2.748979999999999890e+01 9.807019999999999982e+01 1.791970000000000027e+03
8.500000000000000611e-02 1.241249999999999853e-01 2.955304999999999893e+01 1.026002000000000010e+02 1.793579999999999927e+03
8.600000000000000699e-02 1.242810000000000026e-01 3.160444999999999993e+01 1.070931999999999960e+02 1.795204999999999927e+03
8.700000000000000788e-02 1.244359999999999911e-01 3.362680000000000291e+01 1.115220000000000056e+02 1.796845000000000027e+03
8.800000000000000877e-02 1.245910000000000073e-01 3.560600000000000165e+01 1.158659999999999997e+02 1.798480000000000018e+03
8.899999999999999578e-02 1.247445000000000082e-01 3.753144999999999953e+01 1.201144999999999925e+02 1.800095000000000027e+03
8.999999999999999667e-02 1.248950000000000060e-01 3.939565000000000339e+01 1.242634999999999934e+02 1.801699999999999818e+03
9.099999999999999756e-02 1.250439999999999885e-01 4.119405000000000427e+01 1.283139999999999930e+02 1.803275000000000091e+03
9.199999999999999845e-02 1.251895000000000091e-01 4.292430000000000234e+01 1.322725000000000080e+02 1.804829999999999927e+03
9.299999999999999933e-02 1.253334999999999866e-01 4.458584999999999354e+01 1.361460000000000150e+02 1.806355000000000018e+03
9.400000000000000022e-02 1.254744999999999888e-01 4.617925000000000324e+01 1.399435000000000002e+02 1.807865000000000009e+03
9.500000000000000111e-02 1.256125000000000158e-01 4.770570000000000022e+01 1.436750000000000114e+02 1.809349999999999909e+03
9.600000000000000200e-02 1.257489999999999997e-01 4.916644999999999754e+01 1.473460000000000036e+02 1.810815000000000055e+03
9.700000000000000289e-02 1.258839999999999959e-01 5.056224999999999881e+01 1.509594999999999914e+02 1.812259999999999991e+03
9.800000000000000377e-02 1.260165000000000035e-01 5.189329999999999643e+01 1.545165000000000077e+02 1.813684999999999945e+03
9.900000000000000466e-02 1.261470000000000091e-01 5.315890000000000271e+01 1.580120000000000005e+02 1.815089999999999918e+03
1.000000000000000056e-01 1.262749999999999984e-01 5.435724999999999341e+01 1.614395000000000095e+02 1.816474999999999909e+03
1.010000000000000064e-01 1.264010000000000133e-01 5.548584999999999923e+01 1.647880000000000109e+02 1.817835000000000036e+03
1.020000000000000073e-01 1.265239999999999976e-01 5.654110000000000014e+01 1.680434999999999945e+02 1.819164999999999964e+03
1.030000000000000082e-01 1.266440000000000066e-01 5.751874999999999716e+01 1.711920000000000073e+02 1.820470000000000027e+03
1.040000000000000091e-01 1.267600000000000116e-01 5.841415000000000646e+01 1.742155000000000200e+02 1.821730000000000018e+03
1.050000000000000100e-01 1.268719999999999848e-01 5.922214999999999918e+01 1.770974999999999966e+02 1.822945000000000164e+03
1.059999999999999970e-01 1.269794999999999952e-01 5.993789999999999907e+01 1.798199999999999932e+02 1.824115000000000009e+03
1.069999999999999979e-01 1.270809999999999995e-01 6.055630000000000024e+01 1.823684999999999832e+02 1.825230000000000018e+03
1.079999999999999988e-01 1.271774999999999989e-01 6.107285000000000252e+01 1.847264999999999873e+02 1.826275000000000091e+03
1.089999999999999997e-01 1.272665000000000046e-01 6.148380000000000223e+01 1.868820000000000050e+02 1.827259999999999991e+03
1.100000000000000006e-01 1.273495000000000044e-01 6.178575000000000017e+01 1.888235000000000241e+02 1.828164999999999964e+03
1.110000000000000014e-01 1.274254999999999971e-01 6.197664999999999935e+01 1.905425000000000182e+02 1.829005000000000109e+03
1.120000000000000023e-01 1.274929999999999952e-01 6.205525000000000091e+01 1.920345000000000084e+02 1.829750000000000000e+03
1.130000000000000032e-01 1.275534999999999863e-01 6.202165000000000106e+01 1.932959999999999923e+02 1.830420000000000073e+03
1.140000000000000041e-01 1.276059999999999972e-01 6.187720000000000198e+01 1.943279999999999745e+02 1.831000000000000000e+03
1.150000000000000050e-01 1.276505000000000001e-01 6.162454999999999927e+01 1.951324999999999932e+02 1.831500000000000000e+03
1.160000000000000059e-01 1.276875000000000093e-01 6.126780000000000115e+01 1.957180000000000177e+02 1.831909999999999854e+03
1.170000000000000068e-01 1.277159999999999962e-01 6.081244999999999834e+01 1.960925000000000011e+02 1.832240000000000009e+03
1.180000000000000077e-01 1.277375000000000038e-01 6.026520000000000010e+01 1.962699999999999818e+02 1.832484999999999900e+03
1.190000000000000085e-01 1.277519999999999767e-01 5.963400000000000034e+01 1.962640000000000100e+02 1.832655000000000200e+03
1.200000000000000094e-01 1.277600000000000124e-01 5.892770000000000152e+01 1.960930000000000177e+02 1.832750000000000000e+03
1.209999999999999964e-01 1.277619999999999867e-01 5.815614999999999668e+01 1.957754999999999939e+02 1.832779999999999973e+03
1.219999999999999973e-01 1.277584999999999971e-01 5.732945000000000135e+01 1.953305000000000007e+02 1.832750000000000000e+03
1.229999999999999982e-01 1.277500000000000024e-01 5.645830000000000126e+01 1.947800000000000011e+02 1.832664999999999964e+03
1.239999999999999991e-01 1.277369999999999894e-01 5.555299999999999727e+01 1.941435000000000173e+02 1.832529999999999973e+03
1.250000000000000000e-01 1.277205000000000146e-01 5.462385000000000446e+01 1.934404999999999859e+02 1.832360000000000127e+03
1.260000000000000009e-01 1.277014999999999956e-01 5.368040000000000589e+01 1.926895000000000095e+02 1.832159999999999854e+03
1.270000000000000018e-01 1.276800000000000157e-01 5.273149999999999693e+01 1.919060000000000059e+02 1.831925000000000182e+03
1.280000000000000027e-01 1.276570000000000205e-01 5.178484999999999872e+01 1.911055000000000064e+02 1.831675000000000182e+03
1.290000000000000036e-01 1.276325000000000098e-01 5.084725000000000250e+01 1.902984999999999900e+02 1.831409999999999854e+03
1.300000000000000044e-01 1.276069999999999982e-01 4.992395000000000493e+01 1.894939999999999998e+02 1.831134999999999991e+03
1.310000000000000053e-01 1.275805000000000133e-01 4.901905000000000001e+01 1.886979999999999791e+02 1.830849999999999909e+03
1.320000000000000062e-01 1.275550000000000017e-01 4.813519999999999754e+01 1.879145000000000039e+02 1.830569999999999936e+03
1.330000000000000071e-01 1.275284999999999891e-01 4.727384999999999593e+01 1.871440000000000055e+02 1.830284999999999854e+03
1.340000000000000080e-01 1.275020000000000042e-01 4.643515000000000015e+01 1.863845000000000027e+02 1.829994999999999891e+03
1.350000000000000089e-01 1.274759999999999782e-01 4.561804999999999666e+01 1.856334999999999980e+02 1.829704999999999927e+03
1.360000000000000098e-01 1.274500000000000077e-01 4.482070000000000221e+01 1.848845000000000027e+02 1.829420000000000073e+03
1.370000000000000107e-01 1.274239999999999817e-01 4.404014999999999702e+01 1.841310000000000002e+02 1.829130000000000109e+03
1.380000000000000115e-01 1.273969999999999825e-01 4.327304999999999779e+01 1.833654999999999973e+02 1.828835000000000036e+03
1.390000000000000124e-01 1.273694999999999966e-01 4.251539999999999964e+01 1.825790000000000077e+02 1.828539999999999964e+03
1.400000000000000133e-01 1.273414999999999964e-01 4.176295000000000357e+01 1.817624999999999886e+02 1.828230000000000018e+03
1.410000000000000142e-01 1.273124999999999951e-01 4.101135000000000019e+01 1.809085000000000036e+02 1.827910000000000082e+03
1.420000000000000151e-01 1.272820000000000062e-01 4.025650000000000261e+01 1.800084999999999980e+02 1.827585000000000036e+03
1.430000000000000160e-01 1.272500000000000020e-01 3.949434999999999718e+01 1.790554999999999950e+02 1.827235000000000127e+03
1.440000000000000169e-01 1.272165000000000101e-01 3.872135000000000105e+01 1.780434999999999945e+02 1.826869999999999891e+03
1.450000000000000178e-01 1.271815000000000029e-01 3.793469999999999942e+01 1.769685000000000059e+02 1.826490000000000009e+03
1.459999999999999909e-01 1.271439999999999793e-01 3.713210000000000122e+01 1.758260000000000218e+02 1.826075000000000045e+03
1.469999999999999918e-01 1.271039999999999948e-01 3.631204999999999927e+01 1.746169999999999902e+02 1.825650000000000091e+03
1.479999999999999927e-01 1.270620000000000083e-01 3.547404999999999831e+01 1.733410000000000082e+02 1.825194999999999936e+03
1.489999999999999936e-01 1.270175000000000054e-01 3.461845000000000283e+01 1.720010000000000048e+02 1.824720000000000027e+03
1.499999999999999944e-01 1.269714999999999872e-01 3.374649999999999750e+01 1.706019999999999754e+02 1.824215000000000146e+03
1.509999999999999953e-01 1.269230000000000080e-01 3.286045000000000016e+01 1.691499999999999773e+02 1.823695000000000164e+03
1.519999999999999962e-01 1.268724999999999992e-01 3.196340000000000003e+01 1.676535000000000082e+02 1.823154999999999973e+03
1.529999999999999971e-01 1.268205000000000027e-01 3.105930000000000035e+01 1.661229999999999905e+02 1.822595000000000027e+03
1.539999999999999980e-01 1.267675000000000052e-01 3.015265000000000128e+01 1.645690000000000168e+02 1.822025000000000091e+03
1.549999999999999989e-01 1.267139999999999933e-01 2.924864999999999782e+01 1.630035000000000025e+02 1.821440000000000055e+03
1.559999999999999998e-01 1.266589999999999938e-01 2.835294999999999987e+01 1.614404999999999859e+02 1.820855000000000018e+03
1.570000000000000007e-01 1.266045000000000087e-01 2.747129999999999939e+01 1.598924999999999841e+02 1.820264999999999873e+03
1.580000000000000016e-01 1.265499999999999958e-01 2.660970000000000013e+01 1.583725000000000023e+02 1.819674999999999955e+03
1.590000000000000024e-01 1.264959999999999973e-01 2.577374999999999972e+01 1.568924999999999841e+02 1.819095000000000027e+03
