# t [s], A [cm^2], U [cm/s], P [cPa], c [cm/s]
1.000000000000000021e-03 2.162300000000000055e-01 2.536829999999999918e-01 8.779669999999998709e+01 2.061105000000000018e+03
2.000000000000000042e-03 2.161830000000000140e-01 1.578013000000000110e+00 8.494979999999999620e+01 2.060760000000000218e+03
3.000000000000000062e-03 2.160475000000000034e-01 3.219353499999999979e+00 8.100354999999998995e+01 2.059800000000000182e+03
4.000000000000000083e-03 2.158585000000000087e-01 5.065173999999999843e+00 7.665975000000000250e+01 2.058480000000000018e+03
5.000000000000000104e-03 2.156534999999999980e-01 7.059029999999999916e+00 7.273040000000000305e+01 2.057059999999999945e+03
6.000000000000000125e-03 2.154544999999999932e-01 9.052064999999998918e+00 6.952564999999999884e+01 2.055704999999999927e+03
7.000000000000000146e-03 2.152689999999999881e-01 1.084453500000000048e+01 6.684244999999999948e+01 2.054454999999999927e+03
8.000000000000000167e-03 2.150980000000000114e-01 1.234447999999999901e+01 6.444100000000000250e+01 2.053335000000000036e+03
9.000000000000001055e-03 2.149469999999999992e-01 1.358106500000000061e+01 6.234785000000000110e+01 2.052355000000000018e+03
1.000000000000000194e-02 2.148194999999999966e-01 1.459124999999999872e+01 6.064709999999999468e+01 2.051539999999999964e+03
1.099999999999999936e-02 2.147160000000000180e-01 1.539039999999999964e+01 5.933039999999999736e+01 2.050880000000000109e+03
1.200000000000000025e-02 2.146345000000000058e-01 1.598959999999999937e+01 5.833990000000000009e+01 2.050369999999999891e+03
1.300000000000000114e-02 2.145704999999999973e-01 1.639164999999999850e+01 5.758235000000000525e+01 2.049980000000000018e+03
1.400000000000000203e-02 2.145194999999999741e-01 1.660094999999999743e+01 5.694069999999999965e+01 2.049670000000000073e+03
1.499999999999999944e-02 2.144770000000000010e-01 1.666550000000000153e+01 5.638325000000000387e+01 2.049430000000000291e+03
1.600000000000000033e-02 2.144479999999999997e-01 1.669964999999999833e+01 5.607460000000000377e+01 2.049265000000000327e+03
1.700000000000000122e-02 2.144409999999999927e-01 1.684790000000000276e+01 5.633785000000000309e+01 2.049239999999999782e+03
1.800000000000000211e-02 2.144675000000000054e-01 1.721314999999999884e+01 5.746689999999999543e+01 2.049409999999999854e+03
1.900000000000000300e-02 2.145309999999999995e-01 1.780075000000000074e+01 5.952429999999999666e+01 2.049820000000000164e+03
2.000000000000000042e-02 2.146270000000000122e-01 1.851265000000000072e+01 6.225825000000000387e+01 2.050440000000000055e+03
2.100000000000000130e-02 2.147409999999999874e-01 1.918804999999999694e+01 6.517525000000000546e+01 2.051179999999999836e+03
2.200000000000000219e-02 2.148545000000000038e-01 1.966564999999999941e+01 6.771549999999999159e+01 2.051925000000000182e+03
2.299999999999999961e-02 2.149484999999999868e-01 1.983820000000000050e+01 6.944149999999999068e+01 2.052559999999999945e+03
2.400000000000000050e-02 2.150124999999999953e-01 1.968064999999999998e+01 7.016394999999999982e+01 2.052994999999999891e+03
2.500000000000000139e-02 2.150414999999999965e-01 1.924540000000000006e+01 6.996750000000000114e+01 2.053215000000000146e+03
2.600000000000000228e-02 2.150414999999999965e-01 1.863175000000000026e+01 6.913990000000001146e+01 2.053235000000000127e+03
2.700000000000000316e-02 2.150215000000000043e-01 1.794519999999999982e+01 6.804390000000000782e+01 2.053119999999999891e+03
2.800000000000000058e-02 2.149929999999999897e-01 1.726180000000000092e+01 6.698685000000000400e+01 2.052944999999999709e+03
2.900000000000000147e-02 2.149635000000000018e-01 1.661045000000000016e+01 6.613394999999999868e+01 2.052750000000000000e+03
3.000000000000000236e-02 2.149369999999999892e-01 1.597470000000000212e+01 6.548619999999999663e+01 2.052579999999999927e+03
3.099999999999999978e-02 2.149119999999999919e-01 1.531064999999999898e+01 6.491949999999999932e+01 2.052420000000000073e+03
3.200000000000000067e-02 2.148839999999999917e-01 1.457194999999999929e+01 6.426010000000000844e+01 2.052235000000000127e+03
3.300000000000000155e-02 2.148494999999999988e-01 1.373414999999999964e+01 6.336945000000000050e+01 2.052015000000000327e+03
3.400000000000000244e-02 2.148045000000000093e-01 1.280969999999999942e+01 6.220879999999999654e+01 2.051734999999999673e+03
3.500000000000000333e-02 2.147514999999999841e-01 1.185105500000000056e+01 6.086714999999999520e+01 2.051394999999999982e+03
3.600000000000000422e-02 2.146954999999999836e-01 1.094011500000000048e+01 5.954519999999999413e+01 2.051034999999999854e+03
3.700000000000000511e-02 2.146450000000000025e-01 1.016806500000000035e+01 5.850119999999999720e+01 2.050704999999999927e+03
3.799999999999999906e-02 2.146089999999999942e-01 9.612030000000000740e+00 5.797794999999999987e+01 2.050465000000000146e+03
3.899999999999999994e-02 2.145954999999999946e-01 9.315409999999999968e+00 5.813459999999999894e+01 2.050365000000000236e+03
4.000000000000000083e-02 2.146089999999999942e-01 9.277515000000001066e+00 5.900150000000000006e+01 2.050434999999999945e+03
4.100000000000000172e-02 2.146485000000000198e-01 9.453870000000000218e+00 6.047025000000000006e+01 2.050670000000000073e+03
4.200000000000000261e-02 2.147084999999999966e-01 9.765989999999998616e+00 6.231640000000000157e+01 2.051045000000000073e+03
4.300000000000000350e-02 2.147809999999999997e-01 1.011704999999999899e+01 6.424665000000000248e+01 2.051505000000000109e+03
4.400000000000000439e-02 2.148539999999999894e-01 1.040870500000000121e+01 6.595420000000000016e+01 2.051974999999999909e+03
4.499999999999999833e-02 2.149165000000000103e-01 1.055585999999999913e+01 6.717114999999999725e+01 2.052385000000000218e+03
4.599999999999999922e-02 2.149590000000000112e-01 1.049690000000000012e+01 6.770595000000000141e+01 2.052664999999999964e+03
4.700000000000000011e-02 2.149745000000000128e-01 1.019748999999999839e+01 6.746129999999999427e+01 2.052775000000000091e+03
4.800000000000000100e-02 2.149599999999999844e-01 9.650135000000000574e+00 6.643299999999999272e+01 2.052690000000000055e+03
4.900000000000000189e-02 2.149139999999999939e-01 8.869049999999999656e+00 6.469325000000000614e+01 2.052404999999999745e+03
5.000000000000000278e-02 2.148395000000000166e-01 7.883649999999999380e+00 6.236524999999999608e+01 2.051934999999999945e+03
5.100000000000000366e-02 2.147415000000000018e-01 6.731790000000000163e+00 5.959635000000000105e+01 2.051304999999999836e+03
5.200000000000000455e-02 2.146235000000000226e-01 5.454375000000000639e+00 5.653570000000000562e+01 2.050550000000000182e+03
5.300000000000000544e-02 2.144929999999999892e-01 4.092197500000000154e+00 5.331929999999999836e+01 2.049704999999999927e+03
5.399999999999999939e-02 2.143535000000000024e-01 2.684561999999999671e+00 5.006380000000000052e+01 2.048800000000000182e+03
5.500000000000000028e-02 2.142109999999999848e-01 1.269535000000000080e+00 4.686730000000000018e+01 2.047880000000000109e+03
5.600000000000000117e-02 2.140695000000000237e-01 -1.151499999999998636e-01 4.381450000000000244e+01 2.046954999999999927e+03
5.700000000000000205e-02 2.139324999999999977e-01 -1.431140000000000079e+00 4.098304999999999865e+01 2.046069999999999936e+03
5.800000000000000294e-02 2.138045000000000084e-01 -2.639133100000000010e+00 3.844870000000000232e+01 2.045230000000000018e+03
5.900000000000000383e-02 2.136894999999999767e-01 -3.699405000000000054e+00 3.628784999999999883e+01 2.044474999999999909e+03
6.000000000000000472e-02 2.135905000000000165e-01 -4.573224999999999874e+00 3.457614999999999839e+01 2.043819999999999936e+03
6.099999999999999867e-02 2.135110000000000063e-01 -5.224980000000000402e+00 3.338530000000000086e+01 2.043294999999999845e+03
6.199999999999999956e-02 2.134550000000000058e-01 -5.624570000000000292e+00 3.277655000000000030e+01 2.042910000000000082e+03
6.300000000000000044e-02 2.134240000000000026e-01 -5.749745000000000772e+00 3.279475000000000051e+01 2.042695000000000164e+03
6.400000000000000133e-02 2.134209999999999996e-01 -5.587909999999999933e+00 3.346269999999999811e+01 2.042650000000000091e+03
6.500000000000000222e-02 2.134459999999999968e-01 -5.137274999999999814e+00 3.477785000000000082e+01 2.042795000000000073e+03
6.600000000000000311e-02 2.134995000000000087e-01 -4.407029999999999781e+00 3.671084999999999354e+01 2.043119999999999891e+03
6.700000000000000400e-02 2.135805000000000065e-01 -3.416795000000000027e+00 3.920725000000000193e+01 2.043625000000000000e+03
6.800000000000000488e-02 2.136859999999999871e-01 -2.195254499999999886e+00 4.219095000000000084e+01 2.044289999999999964e+03
6.900000000000000577e-02 2.138134999999999897e-01 -7.783100000000000573e-01 4.556990000000000407e+01 2.045099999999999909e+03
7.000000000000000666e-02 2.139590000000000103e-01 7.931000000000001382e-01 4.924200000000000443e+01 2.046025000000000091e+03
7.100000000000000755e-02 2.141184999999999894e-01 2.475375000000000103e+00 5.310190000000000055e+01 2.047049999999999955e+03
7.200000000000000844e-02 2.142870000000000053e-01 4.224590000000000067e+00 5.704734999999999445e+01 2.048135000000000218e+03
7.300000000000000933e-02 2.144600000000000117e-01 5.998755000000000059e+00 6.098494999999999777e+01 2.049260000000000218e+03
7.399999999999999634e-02 2.146349999999999925e-01 7.759795000000000442e+00 6.483535000000000537e+01 2.050400000000000091e+03
7.499999999999999722e-02 2.148079999999999989e-01 9.475060000000000926e+00 6.853640000000000043e+01 2.051529999999999745e+03
7.599999999999999811e-02 2.149754999999999860e-01 1.111873500000000092e+01 7.204564999999999486e+01 2.052630000000000109e+03
7.699999999999999900e-02 2.151365000000000083e-01 1.267228000000000065e+01 7.534114999999999895e+01 2.053684999999999945e+03
7.799999999999999989e-02 2.152899999999999814e-01 1.412449999999999939e+01 7.842009999999999081e+01 2.054695000000000164e+03
7.900000000000000078e-02 2.154349999999999876e-01 1.547139999999999915e+01 8.129704999999999870e+01 2.055659999999999854e+03
8.000000000000000167e-02 2.155725000000000002e-01 1.671475000000000222e+01 8.400004999999998745e+01 2.056569999999999709e+03
8.100000000000000255e-02 2.157030000000000058e-01 1.786135000000000161e+01 8.656624999999999659e+01 2.057440000000000055e+03
8.200000000000000344e-02 2.158279999999999921e-01 1.892129999999999868e+01 8.903755000000001019e+01 2.058274999999999636e+03
8.300000000000000433e-02 2.159490000000000021e-01 1.990654999999999930e+01 9.145584999999999809e+01 2.059085000000000036e+03
8.400000000000000522e-02 2.160684999999999967e-01 2.082945000000000135e+01 9.385925000000000296e+01 2.059880000000000109e+03
8.500000000000000611e-02 2.161869999999999903e-01 2.170145000000000124e+01 9.627854999999999563e+01 2.060670000000000073e+03
8.600000000000000699e-02 2.163059999999999983e-01 2.253229999999999933e+01 9.873560000000000514e+01 2.061465000000000146e+03
8.700000000000000788e-02 2.164264999999999939e-01 2.332889999999999731e+01 1.012415000000000020e+02 2.062264999999999873e+03
8.800000000000000877e-02 2.165485000000000049e-01 2.409544999999999959e+01 1.037965000000000089e+02 2.063079999999999927e+03
8.899999999999999578e-02 2.166719999999999757e-01 2.483279999999999887e+01 1.063915000000000077e+02 2.063904999999999745e+03
8.999999999999999667e-02 2.167970000000000175e-01 2.553894999999999982e+01 1.090079999999999956e+02 2.064739999999999782e+03
9.099999999999999756e-02 2.169224999999999903e-01 2.620895000000000152e+01 1.116200000000000045e+02 2.065574999999999818e+03
9.199999999999999845e-02 2.170475000000000043e-01 2.683569999999999922e+01 1.141974999999999909e+02 2.066404999999999745e+03
9.299999999999999933e-02 2.171699999999999742e-01 2.741019999999999968e+01 1.167060000000000031e+02 2.067229999999999563e+03
9.400000000000000022e-02 2.172899999999999832e-01 2.792235000000000156e+01 1.191105000000000018e+02 2.068029999999999745e+03
9.500000000000000111e-02 2.174045000000000005e-01 2.836144999999999783e+01 1.213750000000000000e+02 2.068800000000000182e+03
9.600000000000000200e-02 2.175134999999999985e-01 2.871699999999999875e+01 1.234669999999999987e+02 2.069530000000000200e+03
9.700000000000000289e-02 2.176144999999999885e-01 2.897894999999999754e+01 1.253559999999999945e+02 2.070204999999999927e+03
9.800000000000000377e-02 2.177060000000000106e-01 2.913870000000000005e+01 1.270174999999999983e+02 2.070819999999999709e+03
9.900000000000000466e-02 2.177874999999999950e-01 2.918939999999999912e+01 1.284325000000000045e+02 2.071375000000000000e+03
1.000000000000000056e-01 2.178579999999999961e-01 2.912639999999999674e+01 1.295880000000000223e+02 2.071855000000000018e+03
1.010000000000000064e-01 2.179169999999999996e-01 2.894760000000000133e+01 1.304774999999999920e+02 2.072255000000000109e+03
1.020000000000000073e-01 2.179639999999999911e-01 2.865395000000000181e+01 1.311025000000000205e+02 2.072579999999999927e+03
1.030000000000000082e-01 2.179989999999999983e-01 2.824909999999999854e+01 1.314730000000000132e+02 2.072824999999999818e+03
1.040000000000000091e-01 2.180230000000000223e-01 2.773975000000000080e+01 1.316040000000000134e+02 2.072989999999999782e+03
1.050000000000000100e-01 2.180354999999999932e-01 2.713510000000000133e+01 1.315169999999999959e+02 2.073090000000000146e+03
1.059999999999999970e-01 2.180385000000000240e-01 2.644675000000000153e+01 1.312404999999999973e+02 2.073114999999999782e+03
1.069999999999999979e-01 2.180324999999999902e-01 2.568809999999999860e+01 1.308040000000000020e+02 2.073085000000000036e+03
1.079999999999999988e-01 2.180185000000000040e-01 2.487379999999999924e+01 1.302409999999999854e+02 2.073005000000000109e+03
1.089999999999999997e-01 2.179989999999999983e-01 2.401939999999999742e+01 1.295859999999999843e+02 2.072880000000000109e+03
1.100000000000000006e-01 2.179750000000000021e-01 2.314030000000000342e+01 1.288714999999999975e+02 2.072720000000000255e+03
1.110000000000000014e-01 2.179474999999999885e-01 2.225150000000000006e+01 1.281290000000000191e+02 2.072545000000000073e+03
1.120000000000000023e-01 2.179180000000000006e-01 2.136684999999999945e+01 1.273870000000000005e+02 2.072349999999999909e+03
1.130000000000000032e-01 2.178879999999999983e-01 2.049889999999999901e+01 1.266680000000000064e+02 2.072150000000000091e+03
1.140000000000000041e-01 2.178579999999999961e-01 1.965800000000000125e+01 1.259915000000000020e+02 2.071949999999999818e+03
1.150000000000000050e-01 2.178295000000000092e-01 1.885249999999999915e+01 1.253710000000000093e+02 2.071760000000000218e+03
1.160000000000000059e-01 2.178025000000000100e-01 1.808814999999999884e+01 1.248135000000000048e+02 2.071585000000000036e+03
1.170000000000000068e-01 2.177779999999999994e-01 1.736834999999999951e+01 1.243205000000000098e+02 2.071414999999999964e+03
1.180000000000000077e-01 2.177560000000000051e-01 1.669385000000000119e+01 1.238884999999999934e+02 2.071265000000000327e+03
1.190000000000000085e-01 2.177359999999999851e-01 1.606315000000000026e+01 1.235084999999999980e+02 2.071125000000000000e+03
1.200000000000000094e-01 2.177175000000000082e-01 1.547259999999999991e+01 1.231670000000000016e+02 2.071000000000000000e+03
1.209999999999999964e-01 2.177010000000000056e-01 1.491670000000000051e+01 1.228485000000000014e+02 2.070885000000000218e+03
1.219999999999999973e-01 2.176850000000000174e-01 1.438850000000000051e+01 1.225335000000000036e+02 2.070774999999999636e+03
1.229999999999999982e-01 2.176690000000000014e-01 1.388020000000000032e+01 1.222019999999999982e+02 2.070664999999999964e+03
1.239999999999999991e-01 2.176514999999999977e-01 1.338325000000000031e+01 1.218329999999999984e+02 2.070545000000000073e+03
1.250000000000000000e-01 2.176329999999999931e-01 1.288925000000000054e+01 1.214070000000000107e+02 2.070420000000000073e+03
1.260000000000000009e-01 2.176115000000000133e-01 1.239029999999999987e+01 1.209074999999999989e+02 2.070274999999999636e+03
1.270000000000000018e-01 2.175870000000000026e-01 1.187945000000000029e+01 1.203195000000000050e+02 2.070110000000000127e+03
1.280000000000000027e-01 2.175590000000000024e-01 1.135091500000000053e+01 1.196334999999999980e+02 2.069920000000000073e+03
1.290000000000000036e-01 2.175259999999999971e-01 1.080086000000000013e+01 1.188435000000000059e+02 2.069699999999999818e+03
1.300000000000000044e-01 2.174889999999999879e-01 1.022736000000000089e+01 1.179489999999999981e+02 2.069454999999999927e+03
1.310000000000000053e-01 2.174474999999999880e-01 9.630414999999999281e+00 1.169549999999999983e+02 2.069180000000000291e+03
1.320000000000000062e-01 2.174014999999999975e-01 9.012314999999999188e+00 1.158714999999999975e+02 2.068875000000000000e+03
1.330000000000000071e-01 2.173514999999999753e-01 8.377334999999998644e+00 1.147134999999999962e+02 2.068550000000000182e+03
1.340000000000000080e-01 2.172985000000000055e-01 7.731704999999999828e+00 1.134994999999999976e+02 2.068194999999999709e+03
1.350000000000000089e-01 2.172430000000000194e-01 7.083045000000000258e+00 1.122530000000000001e+02 2.067824999999999818e+03
1.360000000000000098e-01 2.171855000000000036e-01 6.440234999999999488e+00 1.109970000000000141e+02 2.067444999999999709e+03
1.370000000000000107e-01 2.171285000000000021e-01 5.812845000000000262e+00 1.097574999999999932e+02 2.067065000000000055e+03
1.380000000000000115e-01 2.170715000000000006e-01 5.210704999999999920e+00 1.085600000000000023e+02 2.066690000000000055e+03
1.390000000000000124e-01 2.170165000000000011e-01 4.643415000000000070e+00 1.074284999999999997e+02 2.066320000000000164e+03
1.400000000000000133e-01 2.169639999999999902e-01 4.119864999999999888e+00 1.063834999999999980e+02 2.065970000000000255e+03
1.410000000000000142e-01 2.169154999999999833e-01 3.647895000000000110e+00 1.054435000000000002e+02 2.065645000000000437e+03
1.420000000000000151e-01 2.168709999999999805e-01 3.233919999999999906e+00 1.046235000000000070e+02 2.065345000000000255e+03
1.430000000000000160e-01 2.168319999999999970e-01 2.882690000000000197e+00 1.039309999999999974e+02 2.065085000000000036e+03
1.440000000000000169e-01 2.167979999999999907e-01 2.597154999999999880e+00 1.033729999999999905e+02 2.064860000000000127e+03
1.450000000000000178e-01 2.167705000000000048e-01 2.378404999999999880e+00 1.029489999999999981e+02 2.064664999999999964e+03
1.459999999999999909e-01 2.167485000000000106e-01 2.225684999999999913e+00 1.026550000000000011e+02 2.064514999999999873e+03
1.469999999999999918e-01 2.167320000000000080e-01 2.136525000000000230e+00 1.024835000000000065e+02 2.064400000000000091e+03
1.479999999999999927e-01 2.167215000000000114e-01 2.106894999999999740e+00 1.024234999999999900e+02 2.064324999999999818e+03
1.489999999999999936e-01 2.167155000000000054e-01 2.131434999999999746e+00 1.024615000000000009e+02 2.064279999999999745e+03
1.499999999999999944e-01 2.167144999999999766e-01 2.203730000000000189e+00 1.025825000000000102e+02 2.064260000000000218e+03
1.509999999999999953e-01 2.167165000000000064e-01 2.316564999999999763e+00 1.027690000000000055e+02 2.064269999999999982e+03
1.519999999999999962e-01 2.167224999999999846e-01 2.462220000000000297e+00 1.030049999999999955e+02 2.064304999999999836e+03
1.529999999999999971e-01 2.167300000000000060e-01 2.632760000000000211e+00 1.032734999999999985e+02 2.064355000000000018e+03
1.539999999999999980e-01 2.167395000000000016e-01 2.820265000000000022e+00 1.035575000000000045e+02 2.064409999999999854e+03
1.549999999999999989e-01 2.167499999999999982e-01 3.017104999999999926e+00 1.038435000000000059e+02 2.064480000000000018e+03
1.559999999999999998e-01 2.167610000000000092e-01 3.216134999999999966e+00 1.041179999999999950e+02 2.064555000000000291e+03
1.570000000000000007e-01 2.167719999999999925e-01 3.410870000000000068e+00 1.043685000000000116e+02 2.064625000000000000e+03
1.580000000000000016e-01 2.167820000000000025e-01 3.595639999999999947e+00 1.045865000000000009e+02 2.064684999999999945e+03
1.590000000000000024e-01 2.167910000000000115e-01 3.765690000000000204e+00 1.047650000000000006e+02 2.064744999999999891e+03
