# t [s], A [cm^2], U [cm/s], P [cPa], c [cm/s]
1.000000000000000021e-03 1.940224999999999866e-01 1.290028000000000008e-01 9.089584999999999582e+01 2.038105000000000018e+03
2.000000000000000042e-03 1.939885000000000081e-01 1.334084999999999965e+00 8.840794999999999959e+01 2.037824999999999818e+03
3.000000000000000062e-03 1.938765000000000072e-01 2.899950500000000098e+00 8.484645000000000437e+01 2.036940000000000055e+03
4.000000000000000083e-03 1.937125000000000097e-01 4.685334000000000110e+00 8.065354999999999563e+01 2.035680000000000064e+03
5.000000000000000104e-03 1.935260000000000036e-01 6.639134999999999565e+00 7.655969999999999231e+01 2.034250000000000000e+03
6.000000000000000125e-03 1.933409999999999851e-01 8.659970000000001278e+00 7.301470000000000482e+01 2.032845000000000027e+03
7.000000000000000146e-03 1.931654999999999900e-01 1.057357000000000014e+01 7.002909999999999968e+01 2.031539999999999964e+03
8.000000000000000167e-03 1.930020000000000069e-01 1.223620000000000019e+01 6.738485000000000014e+01 2.030340000000000146e+03
9.000000000000001055e-03 1.928539999999999976e-01 1.362554499999999891e+01 6.500755000000000905e+01 2.029279999999999973e+03
1.000000000000000194e-02 1.927254999999999940e-01 1.477635000000000076e+01 6.297329999999999472e+01 2.028360000000000127e+03
1.099999999999999936e-02 1.926180000000000114e-01 1.571354999999999968e+01 6.132829999999999870e+01 2.027605000000000018e+03
1.200000000000000025e-02 1.925315000000000221e-01 1.645370000000000132e+01 6.005750000000000455e+01 2.027005000000000109e+03
1.300000000000000114e-02 1.924639999999999962e-01 1.700894999999999868e+01 5.911184999999999690e+01 2.026545000000000073e+03
1.400000000000000203e-02 1.924109999999999987e-01 1.737914999999999921e+01 5.839714999999999634e+01 2.026195000000000164e+03
1.499999999999999944e-02 1.923690000000000122e-01 1.757049999999999912e+01 5.780414999999999992e+01 2.025920000000000073e+03
1.600000000000000033e-02 1.923360000000000070e-01 1.763285000000000124e+01 5.731300000000000239e+01 2.025710000000000036e+03
1.700000000000000122e-02 1.923144999999999993e-01 1.767105000000000103e+01 5.706950000000000500e+01 2.025585000000000036e+03
1.800000000000000211e-02 1.923130000000000117e-01 1.781005000000000038e+01 5.733809999999999718e+01 2.025579999999999927e+03
1.900000000000000300e-02 1.923380000000000090e-01 1.813625000000000043e+01 5.835159999999999769e+01 2.025764999999999873e+03
2.000000000000000042e-02 1.923929999999999807e-01 1.865585000000000093e+01 6.016060000000000230e+01 2.026159999999999854e+03
2.100000000000000130e-02 1.924740000000000062e-01 1.929110000000000014e+01 6.257245000000000346e+01 2.026730000000000018e+03
2.200000000000000219e-02 1.925695000000000046e-01 1.991205000000000069e+01 6.520324999999999704e+01 2.027414999999999964e+03
2.299999999999999961e-02 1.926660000000000039e-01 2.038575000000000159e+01 6.760620000000000118e+01 2.028119999999999891e+03
2.400000000000000050e-02 1.927494999999999903e-01 2.061894999999999811e+01 6.941304999999999836e+01 2.028735000000000127e+03
2.500000000000000139e-02 1.928114999999999968e-01 2.058205000000000240e+01 7.043520000000000891e+01 2.029199999999999818e+03
2.600000000000000228e-02 1.928469999999999906e-01 2.030865000000000009e+01 7.069419999999999504e+01 2.029484999999999900e+03
2.700000000000000316e-02 1.928604999999999903e-01 1.987464999999999904e+01 7.038179999999999836e+01 2.029599999999999909e+03
2.800000000000000058e-02 1.928575000000000150e-01 1.936704999999999899e+01 6.977260000000001128e+01 2.029599999999999909e+03
2.900000000000000147e-02 1.928469999999999906e-01 1.885455000000000325e+01 6.912444999999999595e+01 2.029529999999999973e+03
3.000000000000000236e-02 1.928340000000000054e-01 1.836899999999999977e+01 6.860130000000000905e+01 2.029445000000000164e+03
3.099999999999999978e-02 1.928234999999999810e-01 1.790220000000000056e+01 6.823890000000000100e+01 2.029360000000000127e+03
3.200000000000000067e-02 1.928130000000000122e-01 1.741584999999999894e+01 6.795715000000001282e+01 2.029284999999999854e+03
3.300000000000000155e-02 1.928010000000000002e-01 1.686090000000000089e+01 6.760840000000000316e+01 2.029200000000000045e+03
3.400000000000000244e-02 1.927814999999999945e-01 1.619875000000000043e+01 6.704314999999999714e+01 2.029065000000000055e+03
3.500000000000000333e-02 1.927524999999999933e-01 1.541895000000000060e+01 6.617270000000000607e+01 2.028869999999999891e+03
3.600000000000000422e-02 1.927125000000000088e-01 1.454795000000000016e+01 6.501090000000000657e+01 2.028595000000000027e+03
3.700000000000000511e-02 1.926650000000000029e-01 1.364714999999999989e+01 6.368319999999999936e+01 2.028259999999999991e+03
3.799999999999999906e-02 1.926154999999999951e-01 1.279945000000000022e+01 6.240064999999999884e+01 2.027904999999999973e+03
3.899999999999999994e-02 1.925715000000000066e-01 1.209014999999999951e+01 6.140755000000000052e+01 2.027585000000000036e+03
4.000000000000000083e-02 1.925419999999999909e-01 1.158670000000000044e+01 6.091864999999999952e+01 2.027364999999999782e+03
4.100000000000000172e-02 1.925330000000000097e-01 1.132349999999999923e+01 6.106529999999999347e+01 2.027279999999999973e+03
4.200000000000000261e-02 1.925459999999999949e-01 1.129534999999999911e+01 6.186419999999999675e+01 2.027360000000000127e+03
4.300000000000000350e-02 1.925820000000000032e-01 1.146000000000000085e+01 6.321475000000000222e+01 2.027595000000000027e+03
4.400000000000000439e-02 1.926350000000000007e-01 1.174800000000000111e+01 6.492240000000001032e+01 2.027960000000000036e+03
4.499999999999999833e-02 1.926984999999999948e-01 1.207634999999999970e+01 6.673869999999999436e+01 2.028404999999999973e+03
4.599999999999999922e-02 1.927630000000000177e-01 1.236309999999999931e+01 6.840745000000001141e+01 2.028864999999999782e+03
4.700000000000000011e-02 1.928199999999999914e-01 1.253845000000000098e+01 6.970619999999999550e+01 2.029279999999999973e+03
4.800000000000000100e-02 1.928630000000000067e-01 1.255320000000000036e+01 7.047579999999999245e+01 2.029595000000000027e+03
4.900000000000000189e-02 1.928860000000000019e-01 1.238084999999999880e+01 7.063389999999999702e+01 2.029769999999999982e+03
5.000000000000000278e-02 1.928874999999999895e-01 1.201650000000000063e+01 7.017320000000000846e+01 2.029795000000000073e+03
5.100000000000000366e-02 1.928670000000000107e-01 1.147200000000000131e+01 6.914734999999998877e+01 2.029655000000000200e+03
5.200000000000000455e-02 1.928249999999999964e-01 1.076972999999999914e+01 6.764965000000000828e+01 2.029365000000000009e+03
5.300000000000000544e-02 1.927659999999999929e-01 9.937255000000000393e+00 6.579059999999999775e+01 2.028949999999999818e+03
5.399999999999999939e-02 1.926930000000000032e-01 9.002320000000000988e+00 6.367909999999999116e+01 2.028434999999999945e+03
5.500000000000000028e-02 1.926094999999999891e-01 7.990680000000000227e+00 6.141049999999999898e+01 2.027840000000000146e+03
5.600000000000000117e-02 1.925189999999999957e-01 6.925444999999999851e+00 5.906175000000000352e+01 2.027195000000000164e+03
5.700000000000000205e-02 1.924239999999999839e-01 5.828305000000000291e+00 5.669344999999999857e+01 2.026509999999999991e+03
5.800000000000000294e-02 1.923269999999999980e-01 4.721090000000000231e+00 5.435554999999999382e+01 2.025815000000000055e+03
5.900000000000000383e-02 1.922304999999999986e-01 3.627683999999999909e+00 5.209510000000000218e+01 2.025125000000000000e+03
6.000000000000000472e-02 1.921370000000000022e-01 2.575231849999999767e+00 4.996289999999999765e+01 2.024450000000000045e+03
6.099999999999999867e-02 1.920485000000000109e-01 1.594447500000000240e+00 4.801754999999999995e+01 2.023809999999999945e+03
6.199999999999999956e-02 1.919679999999999997e-01 7.188950000000000617e-01 4.632620000000000005e+01 2.023230000000000018e+03
6.300000000000000044e-02 1.918984999999999996e-01 -1.666999999999996263e-02 4.496189999999999998e+01 2.022719999999999800e+03
6.400000000000000133e-02 1.918424999999999991e-01 -5.785259999999999847e-01 4.399880000000000280e+01 2.022304999999999836e+03
6.500000000000000222e-02 1.918040000000000023e-01 -9.364930000000000199e-01 4.350515000000000043e+01 2.022014999999999873e+03
6.600000000000000311e-02 1.917844999999999966e-01 -1.066269000000000133e+00 4.353679999999999950e+01 2.021855000000000018e+03
6.700000000000000400e-02 1.917864999999999986e-01 -9.512619999999999409e-01 4.413159999999999883e+01 2.021849999999999909e+03
6.800000000000000488e-02 1.918115000000000236e-01 -5.837795000000000067e-01 4.530535000000000423e+01 2.022014999999999873e+03
6.900000000000000577e-02 1.918600000000000028e-01 3.454499999999993687e-02 4.705055000000000121e+01 2.022340000000000146e+03
7.000000000000000666e-02 1.919315000000000049e-01 8.930500000000000105e-01 4.933660000000000423e+01 2.022829999999999927e+03
7.100000000000000755e-02 1.920244999999999869e-01 1.972937500000000011e+00 5.211275000000000546e+01 2.023480000000000018e+03
7.200000000000000844e-02 1.921375000000000166e-01 3.248613999999999891e+00 5.531175000000000352e+01 2.024275000000000091e+03
7.300000000000000933e-02 1.922685000000000088e-01 4.689379999999999882e+00 5.885495000000000232e+01 2.025199999999999818e+03
7.399999999999999634e-02 1.924130000000000007e-01 6.261244999999999727e+00 6.265760000000000218e+01 2.026224999999999909e+03
7.499999999999999722e-02 1.925680000000000169e-01 7.928885000000001071e+00 6.663415000000000532e+01 2.027335000000000036e+03
7.599999999999999811e-02 1.927315000000000000e-01 9.657339999999999591e+00 7.070329999999999870e+01 2.028505000000000109e+03
7.699999999999999900e-02 1.928995000000000015e-01 1.141387500000000088e+01 7.479249999999998977e+01 2.029710000000000036e+03
7.799999999999999989e-02 1.930695000000000050e-01 1.316937500000000050e+01 7.884119999999998640e+01 2.030940000000000055e+03
7.900000000000000078e-02 1.932385000000000075e-01 1.489914999999999878e+01 8.280330000000000723e+01 2.032164999999999964e+03
8.000000000000000167e-02 1.934049999999999936e-01 1.658380000000000010e+01 8.664834999999999354e+01 2.033375000000000000e+03
8.100000000000000255e-02 1.935680000000000178e-01 1.820935000000000059e+01 9.036070000000000846e+01 2.034565000000000055e+03
8.200000000000000344e-02 1.937264999999999959e-01 1.976664999999999850e+01 9.393824999999999648e+01 2.035724999999999909e+03
8.300000000000000433e-02 1.938809999999999978e-01 2.125114999999999910e+01 9.738954999999999984e+01 2.036860000000000127e+03
8.400000000000000522e-02 1.940310000000000090e-01 2.266165000000000163e+01 1.007305000000000064e+02 2.037954999999999927e+03
8.500000000000000611e-02 1.941769999999999885e-01 2.399934999999999974e+01 1.039814499999999953e+02 2.039029999999999973e+03
8.600000000000000699e-02 1.943205000000000071e-01 2.526679999999999993e+01 1.071620000000000061e+02 2.040090000000000146e+03
8.700000000000000788e-02 1.944609999999999950e-01 2.646705000000000041e+01 1.102895000000000039e+02 2.041125000000000000e+03
8.800000000000000877e-02 1.945989999999999942e-01 2.760294999999999987e+01 1.133780000000000001e+02 2.042144999999999982e+03
8.899999999999999578e-02 1.947359999999999924e-01 2.867634999999999934e+01 1.164344999999999999e+02 2.043160000000000082e+03
8.999999999999999667e-02 1.948710000000000164e-01 2.968815000000000026e+01 1.194590000000000032e+02 2.044154999999999973e+03
9.099999999999999756e-02 1.950049999999999839e-01 3.063799999999999812e+01 1.224474999999999909e+02 2.045144999999999982e+03
9.199999999999999845e-02 1.951370000000000049e-01 3.152454999999999785e+01 1.253900000000000006e+02 2.046130000000000109e+03
9.299999999999999933e-02 1.952665000000000095e-01 3.234505000000000052e+01 1.282719999999999914e+02 2.047090000000000146e+03
9.400000000000000022e-02 1.953940000000000121e-01 3.309624999999999773e+01 1.310765000000000100e+02 2.048034999999999854e+03
9.500000000000000111e-02 1.955175000000000107e-01 3.377405000000000257e+01 1.337844999999999800e+02 2.048949999999999818e+03
9.600000000000000200e-02 1.956364999999999910e-01 3.437375000000000114e+01 1.363754999999999882e+02 2.049840000000000146e+03
9.700000000000000289e-02 1.957510000000000083e-01 3.489055000000000462e+01 1.388305000000000007e+02 2.050694999999999709e+03
9.800000000000000377e-02 1.958594999999999919e-01 3.531929999999999836e+01 1.411284999999999741e+02 2.051500000000000000e+03
9.900000000000000466e-02 1.959609999999999963e-01 3.565505000000000280e+01 1.432509999999999764e+02 2.052260000000000218e+03
1.000000000000000056e-01 1.960554999999999937e-01 3.589300000000000068e+01 1.451800000000000068e+02 2.052970000000000255e+03
1.010000000000000064e-01 1.961414999999999964e-01 3.602904999999999802e+01 1.469010000000000105e+02 2.053615000000000236e+03
1.020000000000000073e-01 1.962190000000000045e-01 3.605979999999999563e+01 1.483999999999999773e+02 2.054199999999999818e+03
1.030000000000000082e-01 1.962869999999999893e-01 3.598319999999999652e+01 1.496675000000000182e+02 2.054710000000000036e+03
1.040000000000000091e-01 1.963445000000000051e-01 3.579850000000000421e+01 1.506980000000000075e+02 2.055150000000000091e+03
1.050000000000000100e-01 1.963929999999999843e-01 3.550690000000000168e+01 1.514895000000000209e+02 2.055519999999999982e+03
1.059999999999999970e-01 1.964310000000000223e-01 3.511135000000000161e+01 1.520459999999999923e+02 2.055809999999999945e+03
1.069999999999999979e-01 1.964595000000000091e-01 3.461699999999999733e+01 1.523770000000000095e+02 2.056034999999999854e+03
1.079999999999999988e-01 1.964779999999999860e-01 3.403090000000000259e+01 1.524959999999999809e+02 2.056179999999999836e+03
1.089999999999999997e-01 1.964879999999999960e-01 3.336190000000000566e+01 1.524214999999999804e+02 2.056269999999999982e+03
1.100000000000000006e-01 1.964894999999999836e-01 3.262064999999999770e+01 1.521759999999999877e+02 2.056289999999999964e+03
1.110000000000000014e-01 1.964839999999999920e-01 3.181869999999999976e+01 1.517839999999999918e+02 2.056255000000000109e+03
1.120000000000000023e-01 1.964724999999999944e-01 3.096865000000000023e+01 1.512735000000000127e+02 2.056175000000000182e+03
1.130000000000000032e-01 1.964549999999999907e-01 3.008319999999999794e+01 1.506709999999999923e+02 2.056054999999999836e+03
1.140000000000000041e-01 1.964335000000000109e-01 2.917520000000000024e+01 1.500035000000000025e+02 2.055905000000000200e+03
1.150000000000000050e-01 1.964095000000000146e-01 2.825675000000000026e+01 1.492959999999999923e+02 2.055724999999999909e+03
1.160000000000000059e-01 1.963830000000000020e-01 2.733910000000000196e+01 1.485720000000000027e+02 2.055534999999999854e+03
1.170000000000000068e-01 1.963555000000000161e-01 2.643225000000000335e+01 1.478495000000000061e+02 2.055329999999999927e+03
1.180000000000000077e-01 1.963280000000000025e-01 2.554459999999999908e+01 1.471444999999999936e+02 2.055125000000000000e+03
1.190000000000000085e-01 1.963000000000000023e-01 2.468305000000000149e+01 1.464680000000000177e+02 2.054920000000000073e+03
1.200000000000000094e-01 1.962730000000000030e-01 2.385244999999999749e+01 1.458269999999999982e+02 2.054720000000000255e+03
1.209999999999999964e-01 1.962470000000000048e-01 2.305584999999999951e+01 1.452250000000000227e+02 2.054525000000000091e+03
1.219999999999999973e-01 1.962225000000000219e-01 2.229435000000000144e+01 1.446589999999999918e+02 2.054335000000000036e+03
1.229999999999999982e-01 1.961984999999999979e-01 2.156745000000000090e+01 1.441250000000000000e+02 2.054159999999999854e+03
1.239999999999999991e-01 1.961755000000000027e-01 2.087279999999999802e+01 1.436145000000000209e+02 2.053985000000000127e+03
1.250000000000000000e-01 1.961535000000000084e-01 2.020664999999999978e+01 1.431159999999999854e+02 2.053815000000000055e+03
1.260000000000000009e-01 1.961315000000000142e-01 1.956425000000000125e+01 1.426159999999999854e+02 2.053654999999999745e+03
1.270000000000000018e-01 1.961094999999999922e-01 1.893975000000000009e+01 1.420999999999999943e+02 2.053480000000000018e+03
1.280000000000000027e-01 1.960859999999999825e-01 1.832704999999999984e+01 1.415529999999999973e+02 2.053304999999999836e+03
1.290000000000000036e-01 1.960614999999999997e-01 1.771969999999999956e+01 1.409599999999999795e+02 2.053119999999999891e+03
1.300000000000000044e-01 1.960345000000000004e-01 1.711155000000000115e+01 1.403075000000000045e+02 2.052925000000000182e+03
1.310000000000000053e-01 1.960054999999999992e-01 1.649690000000000012e+01 1.395835000000000150e+02 2.052704999999999927e+03
1.320000000000000062e-01 1.959735000000000227e-01 1.587095000000000056e+01 1.387789999999999964e+02 2.052465000000000146e+03
1.330000000000000071e-01 1.959380000000000011e-01 1.523014999999999830e+01 1.378879999999999768e+02 2.052204999999999927e+03
1.340000000000000080e-01 1.958989999999999898e-01 1.457209999999999894e+01 1.369075000000000273e+02 2.051920000000000073e+03
1.350000000000000089e-01 1.958564999999999889e-01 1.389600000000000080e+01 1.358394999999999868e+02 2.051605000000000018e+03
1.360000000000000098e-01 1.958104999999999984e-01 1.320274999999999999e+01 1.346890000000000214e+02 2.051265000000000327e+03
1.370000000000000107e-01 1.957609999999999906e-01 1.249474999999999980e+01 1.334650000000000034e+02 2.050900000000000091e+03
1.380000000000000115e-01 1.957089999999999941e-01 1.177584500000000034e+01 1.321800000000000068e+02 2.050519999999999982e+03
1.390000000000000124e-01 1.956534999999999802e-01 1.105149000000000115e+01 1.308505000000000109e+02 2.050115000000000236e+03
1.400000000000000133e-01 1.955975000000000075e-01 1.032816000000000045e+01 1.294939999999999998e+02 2.049699999999999818e+03
1.410000000000000142e-01 1.955395000000000050e-01 9.613260000000000360e+00 1.281299999999999955e+02 2.049275000000000091e+03
1.420000000000000151e-01 1.954819999999999891e-01 8.914564999999999628e+00 1.267809999999999917e+02 2.048849999999999909e+03
1.430000000000000160e-01 1.954250000000000154e-01 8.240165000000001072e+00 1.254659999999999940e+02 2.048420000000000073e+03
1.440000000000000169e-01 1.953690000000000149e-01 7.597899999999999210e+00 1.242049999999999983e+02 2.048010000000000218e+03
1.450000000000000178e-01 1.953150000000000164e-01 6.994960000000000733e+00 1.230155000000000030e+02 2.047615000000000009e+03
1.459999999999999909e-01 1.952645000000000075e-01 6.437730000000000175e+00 1.219120000000000061e+02 2.047235000000000127e+03
1.469999999999999918e-01 1.952169999999999739e-01 5.931449999999999889e+00 1.209070000000000107e+02 2.046880000000000109e+03
1.479999999999999927e-01 1.951734999999999998e-01 5.480050000000000310e+00 1.200084999999999980e+02 2.046554999999999836e+03
1.489999999999999936e-01 1.951340000000000019e-01 5.086039999999999672e+00 1.192210000000000036e+02 2.046265000000000100e+03
1.499999999999999944e-01 1.950989999999999946e-01 4.750465000000000160e+00 1.185455000000000041e+02 2.046000000000000000e+03
1.509999999999999953e-01 1.950689999999999924e-01 4.472974999999999923e+00 1.179800000000000040e+02 2.045774999999999864e+03
1.519999999999999962e-01 1.950434999999999808e-01 4.251890000000000391e+00 1.175190000000000055e+02 2.045579999999999927e+03
1.529999999999999971e-01 1.950215000000000143e-01 4.084360000000000213e+00 1.171539999999999964e+02 2.045409999999999854e+03
1.539999999999999980e-01 1.950034999999999963e-01 3.966534999999999922e+00 1.168769999999999953e+02 2.045274999999999864e+03
1.549999999999999989e-01 1.949899999999999967e-01 3.893774999999999764e+00 1.166754999999999995e+02 2.045170000000000073e+03
1.559999999999999998e-01 1.949790000000000134e-01 3.860850000000000115e+00 1.165380000000000109e+02 2.045079999999999927e+03
1.570000000000000007e-01 1.949704999999999910e-01 3.862150000000000194e+00 1.164519999999999982e+02 2.045014999999999873e+03
1.580000000000000016e-01 1.949649999999999994e-01 3.891865000000000130e+00 1.164060000000000059e+02 2.044970000000000027e+03
1.590000000000000024e-01 1.949604999999999810e-01 3.944195000000000118e+00 1.163880000000000052e+02 2.044929999999999836e+03
