# t [s], A [cm^2], U [cm/s], P [cPa], c [cm/s]
1.000000000000000021e-03 7.304474999999999163e-01 5.371800000000002961e-03 9.435110000000000241e+01 1.618900000000000091e+03
2.000000000000000042e-03 7.304340000000000277e-01 -5.184310000000000133e-03 9.432380000000000564e+01 1.618894999999999982e+03
3.000000000000000062e-03 7.304755000000000553e-01 5.675064999999999971e-02 9.438830000000000098e+01 1.618909999999999854e+03
4.000000000000000083e-03 7.305375000000000618e-01 1.566160999999999803e-01 9.451285000000000025e+01 1.618940000000000055e+03
5.000000000000000104e-03 7.305355000000000043e-01 1.739350000000000063e-01 9.452150000000000318e+01 1.618945000000000164e+03
6.000000000000000125e-03 7.304684999999999651e-01 9.554750000000000743e-02 9.436144999999999072e+01 1.618909999999999854e+03
7.000000000000000146e-03 7.304100000000000037e-01 2.249999999999996447e-02 9.414879999999999427e+01 1.618859999999999900e+03
8.000000000000000167e-03 7.303475000000000383e-01 -6.304999999999999494e-02 9.388630000000000564e+01 1.618795000000000073e+03
9.000000000000001055e-03 7.302364999999999551e-01 -2.371424999999999783e-01 9.348165000000000191e+01 1.618694999999999936e+03
1.000000000000000194e-02 7.300689999999999680e-01 -5.147749999999998716e-01 9.289119999999999777e+01 1.618559999999999945e+03
1.099999999999999936e-02 7.298359999999999292e-01 -9.057549999999999768e-01 9.207415000000000305e+01 1.618365000000000009e+03
1.200000000000000025e-02 7.295149999999999135e-01 -1.434435000000000127e+00 9.096604999999999563e+01 1.618099999999999909e+03
1.300000000000000114e-02 7.291104999999999947e-01 -2.081529999999999880e+00 8.955055000000000121e+01 1.617759999999999991e+03
1.400000000000000203e-02 7.286694999999999700e-01 -2.751780000000000115e+00 8.791765000000000896e+01 1.617349999999999909e+03
1.499999999999999944e-02 7.282595000000000596e-01 -3.312769000000000297e+00 8.623399999999999466e+01 1.616914999999999964e+03
1.600000000000000033e-02 7.279275000000000606e-01 -3.659778500000000268e+00 8.466075000000000728e+01 1.616494999999999891e+03
1.700000000000000122e-02 7.276819999999999400e-01 -3.753696499999999769e+00 8.328874999999999318e+01 1.616105000000000018e+03
1.800000000000000211e-02 7.274970000000000603e-01 -3.620344499999999854e+00 8.211920000000000641e+01 1.615755000000000109e+03
1.900000000000000300e-02 7.273290000000000033e-01 -3.325858999999999899e+00 8.108330000000000837e+01 1.615424999999999955e+03
2.000000000000000042e-02 7.271369999999999223e-01 -2.945448499999999914e+00 8.008064999999999145e+01 1.615105000000000018e+03
2.100000000000000130e-02 7.268935000000000812e-01 -2.537121549999999726e+00 7.901940000000000452e+01 1.614769999999999982e+03
2.200000000000000219e-02 7.265934999999998922e-01 -2.126771999999999885e+00 7.784645000000000437e+01 1.614409999999999854e+03
2.299999999999999961e-02 7.262505000000000210e-01 -1.707139999999999880e+00 7.655934999999999491e+01 1.614025000000000091e+03
2.400000000000000050e-02 7.258895000000000763e-01 -1.249304999999999888e+00 7.519875000000000398e+01 1.613614999999999782e+03
2.500000000000000139e-02 7.255354999999999999e-01 -7.211549999999997684e-01 7.382595000000000596e+01 1.613204999999999927e+03
2.600000000000000228e-02 7.252050000000000995e-01 -1.053700000000001857e-01 7.249584999999999013e+01 1.612800000000000182e+03
2.700000000000000316e-02 7.248980000000000423e-01 5.891849999999998477e-01 7.123484999999999445e+01 1.612404999999999973e+03
2.800000000000000058e-02 7.246015000000000095e-01 1.325159999999999894e+00 7.002974999999999284e+01 1.612025000000000091e+03
2.900000000000000147e-02 7.242895000000000305e-01 2.042555000000000121e+00 6.882880000000000109e+01 1.611654999999999973e+03
3.000000000000000236e-02 7.239329999999999377e-01 2.670639999999999681e+00 6.755360000000000298e+01 1.611260000000000218e+03
3.099999999999999978e-02 7.235059999999999825e-01 3.142815000000000136e+00 6.611884999999999479e+01 1.610840000000000146e+03
3.200000000000000067e-02 7.229935000000000667e-01 3.411305000000000476e+00 6.445444999999999425e+01 1.610360000000000127e+03
3.300000000000000155e-02 7.223950000000000093e-01 3.457824999999999704e+00 6.252590000000000714e+01 1.609829999999999927e+03
3.400000000000000244e-02 7.217260000000000897e-01 3.297115000000000240e+00 6.034584999999999866e+01 1.609235000000000127e+03
3.500000000000000333e-02 7.210170000000000190e-01 2.972410000000000441e+00 5.797395000000000209e+01 1.608599999999999909e+03
3.600000000000000422e-02 7.203029999999999156e-01 2.544595000000000162e+00 5.550615000000000521e+01 1.607929999999999836e+03
3.700000000000000511e-02 7.196204999999999963e-01 2.079440000000000399e+00 5.305689999999999884e+01 1.607259999999999991e+03
3.799999999999999906e-02 7.189995000000000136e-01 1.636244999999999727e+00 5.074129999999999541e+01 1.606619999999999891e+03
3.899999999999999994e-02 7.184625000000000039e-01 1.260830000000000339e+00 4.865980000000000416e+01 1.606025000000000091e+03
4.000000000000000083e-02 7.180225000000000080e-01 9.830749999999999211e-01 4.688935000000000031e+01 1.605505000000000109e+03
4.100000000000000172e-02 7.176850000000000174e-01 8.180999999999998273e-01 4.548015000000000185e+01 1.605074999999999818e+03
4.200000000000000261e-02 7.174490000000000034e-01 7.700499999999999012e-01 4.445730000000000359e+01 1.604744999999999891e+03
4.300000000000000350e-02 7.173114999999999908e-01 8.369500000000000828e-01 4.382614999999999839e+01 1.604519999999999982e+03
4.400000000000000439e-02 7.172680000000000167e-01 1.015493449999999909e+00 4.357920000000000016e+01 1.604394999999999982e+03
4.499999999999999833e-02 7.173134999999999373e-01 1.304564999999999975e+00 4.370345000000000368e+01 1.604369999999999891e+03
4.599999999999999922e-02 7.174475000000000158e-01 1.707020500000000052e+00 4.418524999999999636e+01 1.604454999999999927e+03
4.700000000000000011e-02 7.176694999999999602e-01 2.229350499999999791e+00 4.501359999999999673e+01 1.604630000000000109e+03
4.800000000000000100e-02 7.179789999999999228e-01 2.879692499999999988e+00 4.617994999999999806e+01 1.604905000000000200e+03
4.900000000000000189e-02 7.183755000000000557e-01 3.664914999999999701e+00 4.767595000000000027e+01 1.605269999999999982e+03
5.000000000000000278e-02 7.188570000000000793e-01 4.587720499999999646e+00 4.949049999999999727e+01 1.605730000000000018e+03
5.100000000000000366e-02 7.194175000000000431e-01 5.644460500000000103e+00 5.160620000000000118e+01 1.606269999999999982e+03
5.200000000000000455e-02 7.200489999999999391e-01 6.824201799999999984e+00 5.399729999999999563e+01 1.606889999999999873e+03
5.300000000000000544e-02 7.207399999999999363e-01 8.109115499999999699e+00 5.662909999999999400e+01 1.607579999999999927e+03
5.399999999999999939e-02 7.214769999999999239e-01 9.475614999999999455e+00 5.945860000000000412e+01 1.608335000000000036e+03
5.500000000000000028e-02 7.222459999999999436e-01 1.089688499999999927e+01 6.243720000000000425e+01 1.609134999999999991e+03
5.600000000000000117e-02 7.230324999999999669e-01 1.234479499999999952e+01 6.551354999999999507e+01 1.609974999999999909e+03
5.700000000000000205e-02 7.238240000000000229e-01 1.379247999999999941e+01 6.863724999999999454e+01 1.610829999999999927e+03
5.800000000000000294e-02 7.246090000000000586e-01 1.521616000000000035e+01 7.176200000000000045e+01 1.611704999999999927e+03
5.900000000000000383e-02 7.253789999999999960e-01 1.659629500000000135e+01 7.484854999999998881e+01 1.612569999999999936e+03
6.000000000000000472e-02 7.261279999999999957e-01 1.791819999999999879e+01 7.786605000000000132e+01 1.613434999999999945e+03
6.099999999999999867e-02 7.268520000000000536e-01 1.917190000000000083e+01 8.079314999999999714e+01 1.614275000000000091e+03
6.199999999999999956e-02 7.275509999999999478e-01 2.035200000000000031e+01 8.361735000000000184e+01 1.615090000000000146e+03
6.300000000000000044e-02 7.282254999999999701e-01 2.145660000000000167e+01 8.633449999999999136e+01 1.615885000000000218e+03
6.400000000000000133e-02 7.288765000000000382e-01 2.248640000000000327e+01 8.894695000000000107e+01 1.616650000000000091e+03
6.500000000000000222e-02 7.295065000000000577e-01 2.344409999999999883e+01 9.146224999999999739e+01 1.617394999999999982e+03
6.600000000000000311e-02 7.301195000000000324e-01 2.433360000000000056e+01 9.389125000000001364e+01 1.618115000000000009e+03
6.700000000000000400e-02 7.307179999999999787e-01 2.515899999999999892e+01 9.624545000000000528e+01 1.618815000000000055e+03
6.800000000000000488e-02 7.313049999999999828e-01 2.592439999999999856e+01 9.853770000000000095e+01 1.619494999999999891e+03
6.900000000000000577e-02 7.318824999999999914e-01 2.663309999999999889e+01 1.007776499999999942e+02 1.620164999999999964e+03
7.000000000000000666e-02 7.324509999999999632e-01 2.728739999999999810e+01 1.029735000000000014e+02 1.620820000000000164e+03
7.100000000000000755e-02 7.330109999999999681e-01 2.788824999999999932e+01 1.051289999999999907e+02 1.621465000000000146e+03
7.200000000000000844e-02 7.335620000000000474e-01 2.843529999999999802e+01 1.072445000000000022e+02 1.622095000000000027e+03
7.300000000000000933e-02 7.341020000000000323e-01 2.892665000000000219e+01 1.093149999999999977e+02 1.622715000000000146e+03
7.399999999999999634e-02 7.346280000000000587e-01 2.935965000000000202e+01 1.113340000000000032e+02 1.623320000000000164e+03
7.499999999999999722e-02 7.351360000000000117e-01 2.973055000000000092e+01 1.132895000000000039e+02 1.623905000000000200e+03
7.599999999999999811e-02 7.356240000000000556e-01 3.003540000000000276e+01 1.151690000000000111e+02 1.624470000000000027e+03
7.699999999999999900e-02 7.360875000000000057e-01 3.027049999999999841e+01 1.169585000000000008e+02 1.625014999999999873e+03
7.799999999999999989e-02 7.365220000000000100e-01 3.043240000000000123e+01 1.186435000000000031e+02 1.625529999999999973e+03
7.900000000000000078e-02 7.369255000000000111e-01 3.051854999999999762e+01 1.202109999999999985e+02 1.626009999999999991e+03
8.000000000000000167e-02 7.372950000000000337e-01 3.052740000000000009e+01 1.216495000000000033e+02 1.626454999999999927e+03
8.100000000000000255e-02 7.376289999999999791e-01 3.045834999999999937e+01 1.229495000000000005e+02 1.626865000000000009e+03
8.200000000000000344e-02 7.379259999999999708e-01 3.031190000000000140e+01 1.241034999999999968e+02 1.627234999999999900e+03
8.300000000000000433e-02 7.381839999999999513e-01 3.008950000000000102e+01 1.251080000000000041e+02 1.627565000000000055e+03
8.400000000000000522e-02 7.384045000000000192e-01 2.979364999999999952e+01 1.259600000000000080e+02 1.627845000000000027e+03
8.500000000000000611e-02 7.385865000000000347e-01 2.942760000000000176e+01 1.266610000000000014e+02 1.628085000000000036e+03
8.600000000000000699e-02 7.387314999999999854e-01 2.899569999999999936e+01 1.272139999999999986e+02 1.628279999999999973e+03
8.700000000000000788e-02 7.388409999999999700e-01 2.850294999999999845e+01 1.276234999999999928e+02 1.628434999999999945e+03
8.800000000000000877e-02 7.389170000000000460e-01 2.795544999999999902e+01 1.278979999999999961e+02 1.628554999999999836e+03
8.899999999999999578e-02 7.389624999999999666e-01 2.735985000000000156e+01 1.280465000000000089e+02 1.628625000000000000e+03
8.999999999999999667e-02 7.389790000000000525e-01 2.672380000000000067e+01 1.280805000000000007e+02 1.628670000000000073e+03
9.099999999999999756e-02 7.389715000000000034e-01 2.605559999999999832e+01 1.280124999999999886e+02 1.628679999999999836e+03
9.199999999999999845e-02 7.389430000000000165e-01 2.536390000000000100e+01 1.278575000000000017e+02 1.628659999999999854e+03
9.299999999999999933e-02 7.388974999999999849e-01 2.465764999999999674e+01 1.276305000000000121e+02 1.628625000000000000e+03
9.400000000000000022e-02 7.388390000000000235e-01 2.394565000000000055e+01 1.273470000000000084e+02 1.628559999999999945e+03
9.500000000000000111e-02 7.387710000000000665e-01 2.323635000000000161e+01 1.270229999999999961e+02 1.628485000000000127e+03
9.600000000000000200e-02 7.386975000000000069e-01 2.253744999999999976e+01 1.266719999999999970e+02 1.628400000000000091e+03
9.700000000000000289e-02 7.386209999999999720e-01 2.185559999999999903e+01 1.263079999999999927e+02 1.628305000000000064e+03
9.800000000000000377e-02 7.385444999999999371e-01 2.119594999999999985e+01 1.259414999999999907e+02 1.628200000000000045e+03
9.900000000000000466e-02 7.384699999999999598e-01 2.056235000000000213e+01 1.255824999999999960e+02 1.628099999999999909e+03
1.000000000000000056e-01 7.383975000000000399e-01 1.995690000000000097e+01 1.252365000000000066e+02 1.628000000000000000e+03
1.010000000000000064e-01 7.383284999999999432e-01 1.938009999999999877e+01 1.249074999999999989e+02 1.627905000000000200e+03
1.020000000000000073e-01 7.382625000000000437e-01 1.883089999999999975e+01 1.245960000000000036e+02 1.627815000000000055e+03
1.030000000000000082e-01 7.381979999999999098e-01 1.830715000000000003e+01 1.243004999999999995e+02 1.627724999999999909e+03
1.040000000000000091e-01 7.381349999999999856e-01 1.780529999999999902e+01 1.240169999999999959e+02 1.627634999999999991e+03
1.050000000000000100e-01 7.380714999999999915e-01 1.732110000000000127e+01 1.237409999999999997e+02 1.627550000000000182e+03
1.059999999999999970e-01 7.380050000000000221e-01 1.684965000000000046e+01 1.234650000000000034e+02 1.627464999999999918e+03
1.069999999999999979e-01 7.379344999999999377e-01 1.638584999999999781e+01 1.231820000000000022e+02 1.627375000000000000e+03
1.079999999999999988e-01 7.378575000000000550e-01 1.592439999999999856e+01 1.228849999999999909e+02 1.627289999999999964e+03
1.089999999999999997e-01 7.377735000000000820e-01 1.546039999999999992e+01 1.225664999999999907e+02 1.627190000000000055e+03
1.100000000000000006e-01 7.376800000000000024e-01 1.498930000000000007e+01 1.222194999999999965e+02 1.627089999999999918e+03
1.110000000000000014e-01 7.375764999999999683e-01 1.450720000000000098e+01 1.218395000000000010e+02 1.626985000000000127e+03
1.120000000000000023e-01 7.374614999999999920e-01 1.401105000000000089e+01 1.214230000000000018e+02 1.626865000000000009e+03
1.130000000000000032e-01 7.373359999999999914e-01 1.349868999999999986e+01 1.209670000000000130e+02 1.626740000000000009e+03
1.140000000000000041e-01 7.371999999999999664e-01 1.296921000000000035e+01 1.204714999999999918e+02 1.626595000000000027e+03
1.150000000000000050e-01 7.370539999999999869e-01 1.242268500000000131e+01 1.199385000000000048e+02 1.626450000000000045e+03
1.160000000000000059e-01 7.368999999999999995e-01 1.186047500000000099e+01 1.193714999999999975e+02 1.626289999999999964e+03
1.170000000000000068e-01 7.367395000000001026e-01 1.128497999999999912e+01 1.187764999999999986e+02 1.626125000000000000e+03
1.180000000000000077e-01 7.365745000000000209e-01 1.069979499999999994e+01 1.181610000000000014e+02 1.625949999999999818e+03
1.190000000000000085e-01 7.364079999999999515e-01 1.010916999999999888e+01 1.175339999999999918e+02 1.625775000000000091e+03
1.200000000000000094e-01 7.362424999999999109e-01 9.518394999999999939e+00 1.169060000000000059e+02 1.625595000000000027e+03
1.209999999999999964e-01 7.360815000000000552e-01 8.932980000000000587e+00 1.162874999999999943e+02 1.625420000000000073e+03
1.219999999999999973e-01 7.359274999999999567e-01 8.358880000000000976e+00 1.156899999999999977e+02 1.625250000000000000e+03
1.229999999999999982e-01 7.357839999999999936e-01 7.802070000000000505e+00 1.151250000000000000e+02 1.625085000000000036e+03
1.239999999999999991e-01 7.356530000000000014e-01 7.268275000000000929e+00 1.146039999999999992e+02 1.624929999999999836e+03
1.250000000000000000e-01 7.355374999999999552e-01 6.762789999999999857e+00 1.141345000000000027e+02 1.624789999999999964e+03
1.260000000000000009e-01 7.354384999999999950e-01 6.290210000000000079e+00 1.137264999999999873e+02 1.624664999999999964e+03
1.270000000000000018e-01 7.353585000000000260e-01 5.854289999999999772e+00 1.133859999999999957e+02 1.624559999999999945e+03
1.280000000000000027e-01 7.352970000000000894e-01 5.457819999999999894e+00 1.131169999999999902e+02 1.624470000000000027e+03
1.290000000000000036e-01 7.352559999999999096e-01 5.102475000000000094e+00 1.129224999999999994e+02 1.624400000000000091e+03
1.300000000000000044e-01 7.352335000000000953e-01 4.788825000000000109e+00 1.128024999999999949e+02 1.624355000000000018e+03
1.310000000000000053e-01 7.352290000000000214e-01 4.516339999999999577e+00 1.127540000000000049e+02 1.624329999999999927e+03
1.320000000000000062e-01 7.352419999999999511e-01 4.283459999999999823e+00 1.127734999999999985e+02 1.624319999999999936e+03
1.330000000000000071e-01 7.352699999999999791e-01 4.087730000000000530e+00 1.128545000000000016e+02 1.624325000000000045e+03
1.340000000000000080e-01 7.353110000000000479e-01 3.925939999999999763e+00 1.129904999999999973e+02 1.624349999999999909e+03
1.350000000000000089e-01 7.353625000000000300e-01 3.794305000000000039e+00 1.131715000000000089e+02 1.624390000000000100e+03
1.360000000000000098e-01 7.354220000000000201e-01 3.688670000000000115e+00 1.133894999999999982e+02 1.624444999999999936e+03
1.370000000000000107e-01 7.354875000000000718e-01 3.604700000000000237e+00 1.136340000000000003e+02 1.624500000000000000e+03
1.380000000000000115e-01 7.355564999999999465e-01 3.538044999999999884e+00 1.138969999999999914e+02 1.624565000000000055e+03
1.390000000000000124e-01 7.356264999999999610e-01 3.484485000000000277e+00 1.141675000000000040e+02 1.624639999999999873e+03
1.400000000000000133e-01 7.356955000000000577e-01 3.440080000000000027e+00 1.144395000000000095e+02 1.624710000000000036e+03
1.410000000000000142e-01 7.357624999999999860e-01 3.401234999999999786e+00 1.147040000000000077e+02 1.624779999999999973e+03
1.420000000000000151e-01 7.358260000000000911e-01 3.364799999999999791e+00 1.149565000000000055e+02 1.624849999999999909e+03
1.430000000000000160e-01 7.358839999999999826e-01 3.328064999999999607e+00 1.151910000000000025e+02 1.624920000000000073e+03
1.440000000000000169e-01 7.359364999999999934e-01 3.288804999999999978e+00 1.154035000000000082e+02 1.624980000000000018e+03
1.450000000000000178e-01 7.359830000000000538e-01 3.245255000000000223e+00 1.155925000000000011e+02 1.625034999999999854e+03
1.459999999999999909e-01 7.360225000000000239e-01 3.196130000000000138e+00 1.157545000000000073e+02 1.625085000000000036e+03
1.469999999999999918e-01 7.360554999999999737e-01 3.140545000000000364e+00 1.158899999999999864e+02 1.625125000000000000e+03
1.479999999999999927e-01 7.360820000000000141e-01 3.078014999999999723e+00 1.159989999999999952e+02 1.625159999999999854e+03
1.489999999999999936e-01 7.361024999999999929e-01 3.008424999999999905e+00 1.160819999999999936e+02 1.625190000000000055e+03
1.499999999999999944e-01 7.361165000000000624e-01 2.931929999999999925e+00 1.161394999999999982e+02 1.625210000000000036e+03
1.509999999999999953e-01 7.361254999999999882e-01 2.848974999999999813e+00 1.161749999999999972e+02 1.625224999999999909e+03
1.519999999999999962e-01 7.361290000000000333e-01 2.760200000000000209e+00 1.161885000000000048e+02 1.625235000000000127e+03
1.529999999999999971e-01 7.361284999999999634e-01 2.666364999999999874e+00 1.161825000000000045e+02 1.625235000000000127e+03
1.539999999999999980e-01 7.361234999999999307e-01 2.568349999999999689e+00 1.161589999999999918e+02 1.625230000000000018e+03
1.549999999999999989e-01 7.361154999999999227e-01 2.467039999999999900e+00 1.161210000000000093e+02 1.625230000000000018e+03
1.559999999999999998e-01 7.361040000000000916e-01 2.363309999999999800e+00 1.160690000000000026e+02 1.625215000000000146e+03
1.570000000000000007e-01 7.360895000000000632e-01 2.257965000000000000e+00 1.160049999999999955e+02 1.625200000000000045e+03
1.580000000000000016e-01 7.360725000000000184e-01 2.151695000000000135e+00 1.159300000000000068e+02 1.625184999999999945e+03
1.590000000000000024e-01 7.360535000000000272e-01 2.045059999999999878e+00 1.158444999999999965e+02 1.625159999999999854e+03
