# t [s], A [cm^2], U [cm/s], P [cPa], c [cm/s]
1.000000000000000021e-03 1.819145000000000068e-01 4.303913999999999795e-01 8.569755000000000678e+01 2.217960000000000036e+03
2.000000000000000042e-03 1.818549999999999889e-01 1.948833999999999733e+00 8.192464999999999975e+01 2.217449999999999818e+03
3.000000000000000062e-03 1.817190000000000194e-01 3.777917500000000040e+00 7.691239999999999100e+01 2.216319999999999709e+03
4.000000000000000083e-03 1.815490000000000159e-01 5.845720000000000027e+00 7.201740000000000919e+01 2.214929999999999836e+03
5.000000000000000104e-03 1.813815000000000011e-01 8.021209999999999951e+00 6.812999999999999545e+01 2.213559999999999945e+03
6.000000000000000125e-03 1.812259999999999982e-01 1.000905500000000004e+01 6.504684999999999206e+01 2.212315000000000055e+03
7.000000000000000146e-03 1.810825000000000073e-01 1.163374499999999934e+01 6.225534999999999997e+01 2.211190000000000055e+03
8.000000000000000167e-03 1.809560000000000057e-01 1.295062499999999872e+01 5.979554999999999865e+01 2.210220000000000255e+03
9.000000000000001055e-03 1.808514999999999984e-01 1.401545000000000130e+01 5.782080000000000553e+01 2.209414999999999964e+03
1.000000000000000194e-02 1.807659999999999823e-01 1.484045000000000059e+01 5.628114999999999668e+01 2.208775000000000091e+03
1.099999999999999936e-02 1.806999999999999995e-01 1.544245000000000090e+01 5.508634999999999593e+01 2.208279999999999745e+03
1.200000000000000025e-02 1.806460000000000010e-01 1.582349999999999923e+01 5.409704999999999586e+01 2.207900000000000091e+03
1.300000000000000114e-02 1.806010000000000115e-01 1.600935000000000130e+01 5.318075000000000330e+01 2.207574999999999818e+03
1.400000000000000203e-02 1.805654999999999899e-01 1.613669999999999760e+01 5.250110000000000099e+01 2.207319999999999709e+03
1.499999999999999944e-02 1.805499999999999883e-01 1.643570000000000064e+01 5.261025000000000063e+01 2.207224999999999909e+03
1.600000000000000033e-02 1.805709999999999815e-01 1.708674999999999855e+01 5.408805000000000263e+01 2.207385000000000218e+03
1.700000000000000122e-02 1.806349999999999900e-01 1.808310000000000173e+01 5.703490000000000038e+01 2.207869999999999891e+03
1.800000000000000211e-02 1.807324999999999904e-01 1.921189999999999998e+01 6.085880000000000223e+01 2.208609999999999673e+03
1.900000000000000300e-02 1.808410000000000017e-01 2.015484999999999971e+01 6.449540000000000362e+01 2.209449999999999818e+03
2.000000000000000042e-02 1.809324999999999961e-01 2.063584999999999781e+01 6.688374999999999204e+01 2.210175000000000182e+03
2.100000000000000130e-02 1.809854999999999936e-01 2.053394999999999726e+01 6.741694999999999993e+01 2.210605000000000018e+03
2.200000000000000219e-02 1.809899999999999842e-01 1.991525000000000034e+01 6.615049999999999386e+01 2.210675000000000182e+03
2.299999999999999961e-02 1.809540000000000037e-01 1.897915000000000063e+01 6.369825000000000159e+01 2.210425000000000182e+03
2.400000000000000050e-02 1.808939999999999992e-01 1.795640000000000214e+01 6.090250000000000341e+01 2.209974999999999909e+03
2.500000000000000139e-02 1.808279999999999887e-01 1.701320000000000121e+01 5.846184999999999832e+01 2.209474999999999909e+03
2.600000000000000228e-02 1.807694999999999996e-01 1.620289999999999964e+01 5.669075000000000131e+01 2.209019999999999982e+03
2.700000000000000316e-02 1.807219999999999938e-01 1.547575000000000145e+01 5.548825000000000074e+01 2.208649999999999636e+03
2.800000000000000058e-02 1.806820000000000093e-01 1.473015000000000008e+01 5.448479999999999990e+01 2.208335000000000036e+03
2.900000000000000147e-02 1.806399999999999950e-01 1.387750000000000128e+01 5.327420000000000044e+01 2.208015000000000327e+03
3.000000000000000236e-02 1.805900000000000005e-01 1.289434999999999931e+01 5.162784999999999513e+01 2.207635000000000218e+03
3.099999999999999978e-02 1.805300000000000238e-01 1.184437499999999943e+01 4.961509999999999820e+01 2.207175000000000182e+03
3.200000000000000067e-02 1.804655000000000009e-01 1.086330999999999847e+01 4.759244999999999948e+01 2.206684999999999945e+03
3.300000000000000155e-02 1.804089999999999860e-01 1.011420999999999992e+01 4.607394999999999641e+01 2.206239999999999782e+03
3.400000000000000244e-02 1.803719999999999768e-01 9.730760000000000076e+00 4.553744999999999976e+01 2.205944999999999709e+03
3.500000000000000333e-02 1.803665000000000129e-01 9.770340000000000913e+00 4.624445000000000050e+01 2.205885000000000218e+03
3.600000000000000422e-02 1.803949999999999998e-01 1.019328499999999948e+01 4.813859999999999673e+01 2.206085000000000036e+03
3.700000000000000511e-02 1.804534999999999889e-01 1.087129999999999974e+01 5.084994999999999976e+01 2.206510000000000218e+03
3.799999999999999906e-02 1.805299999999999960e-01 1.161929999999999907e+01 5.379139999999999588e+01 2.207085000000000036e+03
3.899999999999999994e-02 1.806079999999999908e-01 1.223765000000000036e+01 5.630414999999999992e+01 2.207685000000000400e+03
4.000000000000000083e-02 1.806699999999999973e-01 1.255175000000000018e+01 5.780509999999999593e+01 2.208159999999999854e+03
4.100000000000000172e-02 1.807010000000000005e-01 1.244000000000000128e+01 5.789515000000000100e+01 2.208409999999999854e+03
4.200000000000000261e-02 1.806909999999999905e-01 1.184590000000000032e+01 5.641110000000000468e+01 2.208349999999999909e+03
4.300000000000000350e-02 1.806369999999999920e-01 1.077561999999999998e+01 5.341700000000000159e+01 2.207949999999999818e+03
4.400000000000000439e-02 1.805390000000000050e-01 9.284675000000000011e+00 4.915234999999999843e+01 2.207215000000000146e+03
4.499999999999999833e-02 1.804054999999999964e-01 7.460020000000000095e+00 4.395844999999999914e+01 2.206204999999999927e+03
4.599999999999999922e-02 1.802440000000000153e-01 5.402727999999999753e+00 3.820669999999999789e+01 2.204970000000000255e+03
4.700000000000000011e-02 1.800650000000000028e-01 3.215749999999999442e+00 3.224504999999999910e+01 2.203605000000000018e+03
4.800000000000000100e-02 1.798779999999999824e-01 9.967250000000003052e-01 2.637089999999999890e+01 2.202164999999999964e+03
4.900000000000000189e-02 1.796915000000000040e-01 -1.163855000000000306e+00 2.082639999999999958e+01 2.200739999999999782e+03
5.000000000000000278e-02 1.795134999999999925e-01 -3.181824999999999903e+00 1.580890499999999932e+01 2.199364999999999782e+03
5.100000000000000366e-02 1.793509999999999827e-01 -4.977945000000000064e+00 1.148662500000000009e+01 2.198105000000000018e+03
5.200000000000000455e-02 1.792094999999999938e-01 -6.477700000000000458e+00 8.010215000000000529e+00 2.197005000000000109e+03
5.300000000000000544e-02 1.790940000000000032e-01 -7.613084999999999880e+00 5.516834249999999606e+00 2.196100000000000364e+03
5.399999999999999939e-02 1.790100000000000025e-01 -8.326330000000000453e+00 4.124660500000000063e+00 2.195434999999999945e+03
5.500000000000000028e-02 1.789610000000000090e-01 -8.574650000000000105e+00 3.921069999999999833e+00 2.195034999999999854e+03
5.600000000000000117e-02 1.789499999999999980e-01 -8.334849999999999426e+00 4.948834999999999873e+00 2.194925000000000182e+03
5.700000000000000205e-02 1.789784999999999848e-01 -7.606505000000000294e+00 7.194710000000000605e+00 2.195114999999999782e+03
5.800000000000000294e-02 1.790459999999999829e-01 -6.412919999999999732e+00 1.058437999999999946e+01 2.195599999999999909e+03
5.900000000000000383e-02 1.791495000000000171e-01 -4.799655000000000449e+00 1.498509999999999920e+01 2.196369999999999891e+03
6.000000000000000472e-02 1.792854999999999865e-01 -2.830849999999999866e+00 2.021610000000000085e+01 2.197389999999999873e+03
6.099999999999999867e-02 1.794485000000000108e-01 -5.841899999999997650e-01 2.606340000000000146e+01 2.198619999999999891e+03
6.199999999999999956e-02 1.796320000000000139e-01 1.854800000000000004e+00 3.229739999999999611e+01 2.200015000000000327e+03
6.300000000000000044e-02 1.798290000000000166e-01 4.398264999999999425e+00 3.868945000000000078e+01 2.201519999999999982e+03
6.400000000000000133e-02 1.800324999999999842e-01 6.961120000000000196e+00 4.502670000000000528e+01 2.203085000000000036e+03
6.500000000000000222e-02 1.802365000000000217e-01 9.465350000000000819e+00 5.112324999999999875e+01 2.204659999999999854e+03
6.600000000000000311e-02 1.804344999999999977e-01 1.184399999999999942e+01 5.682925000000000182e+01 2.206190000000000055e+03
6.700000000000000400e-02 1.806214999999999904e-01 1.404400000000000048e+01 6.203690000000000282e+01 2.207650000000000091e+03
6.800000000000000488e-02 1.807954999999999979e-01 1.602854999999999919e+01 6.668479999999999563e+01 2.209010000000000218e+03
6.900000000000000577e-02 1.809530000000000027e-01 1.777844999999999942e+01 7.075884999999999536e+01 2.210244999999999891e+03
7.000000000000000666e-02 1.810939999999999772e-01 1.929249999999999687e+01 7.429070000000000107e+01 2.211360000000000127e+03
7.100000000000000755e-02 1.812194999999999778e-01 2.058559999999999945e+01 7.735275000000000034e+01 2.212349999999999909e+03
7.200000000000000844e-02 1.813310000000000199e-01 2.168710000000000093e+01 8.004970000000000141e+01 2.213239999999999782e+03
7.300000000000000933e-02 1.814319999999999822e-01 2.263654999999999973e+01 8.250724999999999909e+01 2.214045000000000073e+03
7.399999999999999634e-02 1.815259999999999929e-01 2.347979999999999734e+01 8.485999999999999943e+01 2.214784999999999854e+03
7.499999999999999722e-02 1.816165000000000140e-01 2.426429999999999865e+01 8.723820000000000618e+01 2.215510000000000218e+03
7.599999999999999811e-02 1.817074999999999940e-01 2.503474999999999895e+01 8.975620000000000687e+01 2.216230000000000018e+03
7.699999999999999900e-02 1.818029999999999924e-01 2.582914999999999850e+01 9.250290000000001100e+01 2.216980000000000018e+03
7.799999999999999989e-02 1.819044999999999968e-01 2.667629999999999768e+01 9.553520000000000323e+01 2.217779999999999745e+03
7.900000000000000078e-02 1.820140000000000091e-01 2.759339999999999904e+01 9.887510000000000332e+01 2.218635000000000218e+03
8.000000000000000167e-02 1.821325000000000027e-01 2.858559999999999945e+01 1.025084999999999980e+02 2.219565000000000055e+03
8.100000000000000255e-02 1.822590000000000043e-01 2.964625000000000199e+01 1.063900000000000006e+02 2.220555000000000291e+03
8.200000000000000344e-02 1.823925000000000129e-01 3.075789999999999935e+01 1.104470000000000027e+02 2.221605000000000018e+03
8.300000000000000433e-02 1.825309999999999988e-01 3.189450000000000074e+01 1.145865000000000009e+02 2.222685000000000400e+03
8.400000000000000522e-02 1.826710000000000000e-01 3.302344999999999686e+01 1.187025000000000006e+02 2.223784999999999854e+03
8.500000000000000611e-02 1.828100000000000003e-01 3.410859999999999559e+01 1.226860000000000070e+02 2.224875000000000000e+03
8.600000000000000699e-02 1.829445000000000099e-01 3.511280000000000001e+01 1.264295000000000044e+02 2.225935000000000400e+03
8.700000000000000788e-02 1.830709999999999837e-01 3.600055000000000405e+01 1.298369999999999891e+02 2.226934999999999945e+03
8.800000000000000877e-02 1.831865000000000021e-01 3.674049999999999727e+01 1.328274999999999864e+02 2.227855000000000018e+03
8.899999999999999578e-02 1.832894999999999941e-01 3.730709999999999837e+01 1.353394999999999868e+02 2.228664999999999964e+03
8.999999999999999667e-02 1.833764999999999978e-01 3.768245000000000289e+01 1.373344999999999914e+02 2.229369999999999891e+03
9.099999999999999756e-02 1.834474999999999856e-01 3.785679999999999978e+01 1.387980000000000018e+02 2.229940000000000055e+03
9.199999999999999845e-02 1.835019999999999984e-01 3.782925000000000182e+01 1.397375000000000114e+02 2.230380000000000109e+03
9.299999999999999933e-02 1.835394999999999943e-01 3.760729999999999507e+01 1.401845000000000141e+02 2.230689999999999600e+03
9.400000000000000022e-02 1.835610000000000019e-01 3.720635000000000048e+01 1.401885000000000048e+02 2.230869999999999891e+03
9.500000000000000111e-02 1.835690000000000099e-01 3.664835000000000065e+01 1.398125000000000000e+02 2.230944999999999709e+03
9.600000000000000200e-02 1.835634999999999906e-01 3.596054999999999779e+01 1.391324999999999932e+02 2.230920000000000073e+03
9.700000000000000289e-02 1.835485000000000033e-01 3.517369999999999663e+01 1.382295000000000016e+02 2.230805000000000291e+03
9.800000000000000377e-02 1.835255000000000081e-01 3.432050000000000267e+01 1.371859999999999786e+02 2.230635000000000218e+03
9.900000000000000466e-02 1.834975000000000078e-01 3.343359999999999843e+01 1.360829999999999984e+02 2.230425000000000182e+03
1.000000000000000056e-01 1.834664999999999768e-01 3.254410000000000025e+01 1.349939999999999998e+02 2.230185000000000400e+03
1.010000000000000064e-01 1.834355000000000013e-01 3.168019999999999925e+01 1.339830000000000041e+02 2.229944999999999709e+03
1.020000000000000073e-01 1.834054999999999991e-01 3.086570000000000036e+01 1.331014999999999873e+02 2.229710000000000036e+03
1.030000000000000082e-01 1.833799999999999875e-01 3.011909999999999954e+01 1.323865000000000123e+02 2.229505000000000109e+03
1.040000000000000091e-01 1.833580000000000210e-01 2.945275000000000176e+01 1.318594999999999970e+02 2.229329999999999927e+03
1.050000000000000100e-01 1.833414999999999906e-01 2.887270000000000181e+01 1.315254999999999939e+02 2.229199999999999818e+03
1.059999999999999970e-01 1.833305000000000073e-01 2.837839999999999918e+01 1.313740000000000236e+02 2.229105000000000018e+03
1.069999999999999979e-01 1.833250000000000157e-01 2.796330000000000027e+01 1.313795000000000073e+02 2.229055000000000291e+03
1.079999999999999988e-01 1.833239999999999870e-01 2.761540000000000106e+01 1.315039999999999907e+02 2.229039999999999964e+03
1.089999999999999997e-01 1.833259999999999890e-01 2.731799999999999784e+01 1.316979999999999791e+02 2.229050000000000182e+03
1.100000000000000006e-01 1.833299999999999930e-01 2.705150000000000077e+01 1.319094999999999800e+02 2.229074999999999818e+03
1.110000000000000014e-01 1.833339999999999970e-01 2.679410000000000025e+01 1.320794999999999959e+02 2.229105000000000018e+03
1.120000000000000023e-01 1.833370000000000000e-01 2.652380000000000138e+01 1.321519999999999868e+02 2.229125000000000000e+03
1.130000000000000032e-01 1.833365000000000133e-01 2.621954999999999814e+01 1.320745000000000005e+02 2.229119999999999891e+03
1.140000000000000041e-01 1.833314999999999806e-01 2.586280000000000001e+01 1.318045000000000186e+02 2.229079999999999927e+03
1.150000000000000050e-01 1.833204999999999973e-01 2.543874999999999886e+01 1.313090000000000259e+02 2.228994999999999891e+03
1.160000000000000059e-01 1.833025000000000071e-01 2.493715000000000259e+01 1.305685000000000002e+02 2.228859999999999673e+03
1.170000000000000068e-01 1.832769999999999955e-01 2.435309999999999775e+01 1.295784999999999911e+02 2.228659999999999854e+03
1.180000000000000077e-01 1.832435000000000036e-01 2.368735000000000213e+01 1.283489999999999895e+02 2.228399999999999636e+03
1.190000000000000085e-01 1.832030000000000047e-01 2.294620000000000104e+01 1.269044999999999987e+02 2.228085000000000036e+03
1.200000000000000094e-01 1.831554999999999989e-01 2.214110000000000156e+01 1.252830000000000013e+02 2.227715000000000146e+03
1.209999999999999964e-01 1.831025000000000014e-01 2.128790000000000049e+01 1.235310000000000059e+02 2.227300000000000182e+03
1.219999999999999973e-01 1.830454999999999999e-01 2.040574999999999761e+01 1.217040000000000077e+02 2.226860000000000127e+03
1.229999999999999982e-01 1.829860000000000098e-01 1.951624999999999943e+01 1.198619999999999948e+02 2.226394999999999982e+03
1.239999999999999991e-01 1.829264999999999919e-01 1.864155000000000229e+01 1.180630000000000024e+02 2.225925000000000182e+03
1.250000000000000000e-01 1.828675000000000161e-01 1.780369999999999919e+01 1.163640000000000043e+02 2.225460000000000036e+03
1.260000000000000009e-01 1.828114999999999879e-01 1.702304999999999779e+01 1.148160000000000025e+02 2.225019999999999982e+03
1.270000000000000018e-01 1.827599999999999780e-01 1.631714999999999804e+01 1.134610000000000127e+02 2.224614999999999782e+03
1.280000000000000027e-01 1.827145000000000019e-01 1.570019999999999882e+01 1.123310000000000031e+02 2.224255000000000109e+03
1.290000000000000036e-01 1.826765000000000194e-01 1.518234999999999957e+01 1.114465000000000003e+02 2.223949999999999818e+03
1.300000000000000044e-01 1.826455000000000162e-01 1.476909999999999812e+01 1.108165000000000049e+02 2.223694999999999709e+03
1.310000000000000053e-01 1.826224999999999932e-01 1.446180000000000021e+01 1.104385000000000048e+02 2.223510000000000218e+03
1.320000000000000062e-01 1.826075000000000059e-01 1.425720000000000098e+01 1.102990000000000066e+02 2.223389999999999873e+03
1.330000000000000071e-01 1.825999999999999845e-01 1.414845000000000041e+01 1.103755000000000024e+02 2.223319999999999709e+03
1.340000000000000080e-01 1.825994999999999979e-01 1.412519999999999953e+01 1.106390000000000100e+02 2.223310000000000400e+03
1.350000000000000089e-01 1.826049999999999895e-01 1.417464999999999975e+01 1.110540000000000020e+02 2.223345000000000255e+03
1.360000000000000098e-01 1.826154999999999862e-01 1.428204999999999991e+01 1.115825000000000102e+02 2.223425000000000182e+03
1.370000000000000107e-01 1.826295000000000002e-01 1.443165000000000120e+01 1.121854999999999905e+02 2.223529999999999745e+03
1.380000000000000115e-01 1.826470000000000038e-01 1.460749999999999993e+01 1.128239999999999981e+02 2.223659999999999854e+03
1.390000000000000124e-01 1.826654999999999807e-01 1.479400000000000048e+01 1.134609999999999985e+02 2.223800000000000182e+03
1.400000000000000133e-01 1.826844999999999997e-01 1.497684999999999889e+01 1.140644999999999953e+02 2.223949999999999818e+03
1.410000000000000142e-01 1.827024999999999899e-01 1.514329999999999998e+01 1.146075000000000017e+02 2.224085000000000036e+03
1.420000000000000151e-01 1.827190000000000203e-01 1.528284999999999982e+01 1.150674999999999955e+02 2.224220000000000255e+03
1.430000000000000160e-01 1.827334999999999932e-01 1.538755000000000095e+01 1.154309999999999974e+02 2.224329999999999927e+03
1.440000000000000169e-01 1.827449999999999908e-01 1.545210000000000150e+01 1.156889999999999930e+02 2.224420000000000073e+03
1.450000000000000178e-01 1.827535000000000132e-01 1.547400000000000020e+01 1.158410000000000082e+02 2.224494999999999891e+03
1.459999999999999909e-01 1.827590000000000048e-01 1.545335000000000036e+01 1.158915000000000077e+02 2.224534999999999854e+03
1.469999999999999918e-01 1.827610000000000068e-01 1.539284999999999926e+01 1.158509999999999991e+02 2.224559999999999945e+03
1.479999999999999927e-01 1.827604999999999924e-01 1.529710000000000036e+01 1.157349999999999994e+02 2.224555000000000291e+03
1.489999999999999936e-01 1.827580000000000038e-01 1.517265000000000086e+01 1.155610000000000070e+02 2.224539999999999964e+03
1.499999999999999944e-01 1.827535000000000132e-01 1.502704999999999913e+01 1.153514999999999873e+02 2.224505000000000109e+03
1.509999999999999953e-01 1.827480000000000215e-01 1.486844999999999928e+01 1.151255000000000024e+02 2.224465000000000146e+03
1.519999999999999962e-01 1.827415000000000012e-01 1.470509999999999984e+01 1.149044999999999987e+02 2.224414999999999964e+03
1.529999999999999971e-01 1.827354999999999952e-01 1.454479999999999862e+01 1.147069999999999936e+02 2.224369999999999891e+03
1.539999999999999980e-01 1.827294999999999892e-01 1.439454999999999885e+01 1.145474999999999994e+02 2.224329999999999927e+03
1.549999999999999989e-01 1.827249999999999985e-01 1.425999999999999979e+01 1.144379999999999882e+02 2.224289999999999964e+03
1.559999999999999998e-01 1.827225000000000099e-01 1.414525000000000077e+01 1.143855000000000075e+02 2.224264999999999873e+03
1.570000000000000007e-01 1.827210000000000223e-01 1.405294999999999916e+01 1.143934999999999889e+02 2.224255000000000109e+03
1.580000000000000016e-01 1.827215000000000089e-01 1.398395000000000010e+01 1.144600000000000080e+02 2.224260000000000218e+03
1.590000000000000024e-01 1.827235000000000109e-01 1.393775000000000119e+01 1.145805000000000007e+02 2.224275000000000091e+03
