# t [s], A [cm^2], U [cm/s], P [cPa], c [cm/s]
1.000000000000000021e-03 1.440104999999999857e-01 2.114844999999999919e-01 8.679430000000000689e+01 1.987735000000000127e+03
2.000000000000000042e-03 1.439854999999999885e-01 1.471023999999999887e+00 8.417339999999998668e+01 1.987454999999999927e+03
3.000000000000000062e-03 1.439015000000000155e-01 3.052009500000000042e+00 8.056850000000000023e+01 1.986590000000000146e+03
4.000000000000000083e-03 1.437805000000000055e-01 4.833412230000000420e+00 7.648099999999999454e+01 1.985349999999999909e+03
5.000000000000000104e-03 1.436434999999999795e-01 6.769549999999999734e+00 7.261695000000000277e+01 1.983960000000000036e+03
6.000000000000000125e-03 1.435069999999999957e-01 8.754080000000000084e+00 6.934234999999999616e+01 1.982590000000000146e+03
7.000000000000000146e-03 1.433780000000000054e-01 1.061768999999999963e+01 6.658504999999999541e+01 1.981304999999999836e+03
8.000000000000000167e-03 1.432554999999999801e-01 1.224146999999999963e+01 6.411140000000000327e+01 1.980115000000000009e+03
9.000000000000001055e-03 1.431445000000000078e-01 1.362155999999999878e+01 6.186865000000000236e+01 1.979050000000000182e+03
1.000000000000000194e-02 1.430464999999999931e-01 1.479404999999999859e+01 5.993534999999999968e+01 1.978119999999999891e+03
1.099999999999999936e-02 1.429624999999999924e-01 1.577740000000000009e+01 5.834244999999999948e+01 1.977335000000000036e+03
1.200000000000000025e-02 1.428929999999999922e-01 1.658119999999999905e+01 5.706090000000000373e+01 1.976684999999999945e+03
1.300000000000000114e-02 1.428360000000000185e-01 1.721144999999999925e+01 5.603435000000000343e+01 1.976164999999999964e+03
1.400000000000000203e-02 1.427889999999999993e-01 1.766665000000000063e+01 5.517494999999999550e+01 1.975744999999999891e+03
1.499999999999999944e-02 1.427495000000000014e-01 1.795799999999999841e+01 5.439914999999999878e+01 1.975389999999999873e+03
1.600000000000000033e-02 1.427160000000000095e-01 1.814070000000000249e+01 5.372225000000000250e+01 1.975095000000000027e+03
1.700000000000000122e-02 1.426910000000000123e-01 1.831844999999999857e+01 5.331354999999999933e+01 1.974884999999999991e+03
1.800000000000000211e-02 1.426810000000000023e-01 1.860594999999999999e+01 5.343495000000000061e+01 1.974805000000000064e+03
1.900000000000000300e-02 1.426914999999999989e-01 1.907540000000000191e+01 5.429415000000000191e+01 1.974909999999999854e+03
2.000000000000000042e-02 1.427240000000000175e-01 1.972090000000000032e+01 5.591094999999999970e+01 1.975214999999999918e+03
2.100000000000000130e-02 1.427749999999999853e-01 2.045974999999999966e+01 5.807394999999999641e+01 1.975700000000000045e+03
2.200000000000000219e-02 1.428385000000000071e-01 2.116485000000000127e+01 6.040115000000000123e+01 1.976295000000000073e+03
2.299999999999999961e-02 1.429020000000000012e-01 2.170969999999999800e+01 6.246495000000000175e+01 1.976910000000000082e+03
2.400000000000000050e-02 1.429564999999999864e-01 2.200815000000000055e+01 6.392405000000000115e+01 1.977450000000000045e+03
2.500000000000000139e-02 1.429949999999999832e-01 2.203509999999999991e+01 6.461359999999999104e+01 1.977835000000000036e+03
2.600000000000000228e-02 1.430150000000000032e-01 2.182495000000000118e+01 6.456884999999999764e+01 1.978049999999999955e+03
2.700000000000000316e-02 1.430184999999999929e-01 2.145139999999999958e+01 6.398314999999999486e+01 1.978105000000000018e+03
2.800000000000000058e-02 1.430099999999999982e-01 2.099814999999999898e+01 6.312284999999999968e+01 1.978039999999999964e+03
2.900000000000000147e-02 1.429949999999999832e-01 2.053159999999999741e+01 6.223399999999999466e+01 1.977900000000000091e+03
3.000000000000000236e-02 1.429779999999999940e-01 2.008404999999999774e+01 6.147119999999999607e+01 1.977744999999999891e+03
3.099999999999999978e-02 1.429620000000000057e-01 1.965140000000000242e+01 6.086950000000000216e+01 1.977595000000000027e+03
3.200000000000000067e-02 1.429464999999999764e-01 1.920260000000000034e+01 6.035840000000000316e+01 1.977444999999999936e+03
3.300000000000000155e-02 1.429300000000000015e-01 1.869744999999999990e+01 5.980845000000000056e+01 1.977289999999999964e+03
3.400000000000000244e-02 1.429099999999999815e-01 1.810555000000000092e+01 5.909189999999999543e+01 1.977105000000000018e+03
3.500000000000000333e-02 1.428840000000000110e-01 1.742089999999999961e+01 5.813689999999999714e+01 1.976865000000000009e+03
3.600000000000000422e-02 1.428514999999999924e-01 1.666959999999999908e+01 5.696264999999999645e+01 1.976569999999999936e+03
3.700000000000000511e-02 1.428149999999999975e-01 1.590675000000000061e+01 5.568415000000000248e+01 1.976220000000000027e+03
3.799999999999999906e-02 1.427775000000000016e-01 1.520485000000000042e+01 5.448744999999999550e+01 1.975869999999999891e+03
3.899999999999999994e-02 1.427450000000000108e-01 1.463755000000000095e+01 5.358329999999999416e+01 1.975555000000000064e+03
4.000000000000000083e-02 1.427220000000000155e-01 1.426164999999999949e+01 5.315279999999999916e+01 1.975325000000000045e+03
4.100000000000000172e-02 1.427130000000000065e-01 1.410444999999999993e+01 5.330165000000000219e+01 1.975230000000000018e+03
4.200000000000000261e-02 1.427194999999999991e-01 1.415840000000000032e+01 5.403369999999999607e+01 1.975275000000000091e+03
4.300000000000000350e-02 1.427415000000000211e-01 1.438264999999999993e+01 5.524954999999999927e+01 1.975465000000000146e+03
4.400000000000000439e-02 1.427754999999999996e-01 1.471194999999999986e+01 5.676770000000000493e+01 1.975779999999999973e+03
4.499999999999999833e-02 1.428165000000000129e-01 1.506884999999999941e+01 5.835949999999999704e+01 1.976159999999999854e+03
4.599999999999999922e-02 1.428590000000000138e-01 1.537620000000000076e+01 5.979044999999999987e+01 1.976559999999999945e+03
4.700000000000000011e-02 1.428959999999999952e-01 1.556775000000000020e+01 6.085665000000000191e+01 1.976910000000000082e+03
4.800000000000000100e-02 1.429239999999999955e-01 1.559554999999999936e+01 6.141105000000000302e+01 1.977175000000000182e+03
4.900000000000000189e-02 1.429369999999999807e-01 1.543294999999999995e+01 6.137640000000000384e+01 1.977309999999999945e+03
5.000000000000000278e-02 1.429345000000000199e-01 1.507345000000000113e+01 6.074394999999999811e+01 1.977299999999999955e+03
5.100000000000000366e-02 1.429150000000000142e-01 1.452730000000000032e+01 5.956199999999999761e+01 1.977130000000000109e+03
5.200000000000000455e-02 1.428805000000000214e-01 1.381649999999999956e+01 5.791785000000000139e+01 1.976805000000000064e+03
5.300000000000000544e-02 1.428320000000000145e-01 1.296910000000000096e+01 5.591814999999999714e+01 1.976359999999999900e+03
5.399999999999999939e-02 1.427724999999999966e-01 1.201581499999999991e+01 5.367244999999999777e+01 1.975800000000000182e+03
5.500000000000000028e-02 1.427054999999999851e-01 1.098656499999999880e+01 5.128119999999999834e+01 1.975164999999999964e+03
5.600000000000000117e-02 1.426324999999999954e-01 9.910064999999999458e+00 4.883119999999999550e+01 1.974474999999999909e+03
5.700000000000000205e-02 1.425565000000000027e-01 8.813639999999999475e+00 4.639509999999999934e+01 1.973759999999999991e+03
5.800000000000000294e-02 1.424799999999999955e-01 7.724505000000000621e+00 4.403549999999999898e+01 1.973029999999999973e+03
5.900000000000000383e-02 1.424044999999999894e-01 6.670740000000000336e+00 4.181054999999999922e+01 1.972315000000000055e+03
6.000000000000000472e-02 1.423329999999999873e-01 5.681995000000000573e+00 3.977850000000000108e+01 1.971630000000000109e+03
6.099999999999999867e-02 1.422670000000000046e-01 4.789804999999999424e+00 3.800095000000000312e+01 1.970994999999999891e+03
6.199999999999999956e-02 1.422085000000000155e-01 4.026804999999999524e+00 3.654364999999999952e+01 1.970440000000000055e+03
6.300000000000000044e-02 1.421594999999999942e-01 3.425410000000000288e+00 3.547395000000000209e+01 1.969965000000000146e+03
6.400000000000000133e-02 1.421229999999999993e-01 3.015965000000000007e+00 3.485705000000000098e+01 1.969610000000000127e+03
6.500000000000000222e-02 1.421010000000000051e-01 2.824699999999999989e+00 3.475045000000000073e+01 1.969384999999999991e+03
6.600000000000000311e-02 1.420945000000000125e-01 2.871890000000000054e+00 3.519904999999999973e+01 1.969309999999999945e+03
6.700000000000000400e-02 1.421054999999999957e-01 3.170309999999999739e+00 3.623010000000000019e+01 1.969400000000000091e+03
6.800000000000000488e-02 1.421350000000000113e-01 3.724364999999999704e+00 3.785079999999999956e+01 1.969654999999999973e+03
6.900000000000000577e-02 1.421830000000000038e-01 4.529825000000000657e+00 4.004689999999999372e+01 1.970089999999999918e+03
7.000000000000000666e-02 1.422490000000000143e-01 5.574164999999999814e+00 4.278359999999999985e+01 1.970700000000000045e+03
7.100000000000000755e-02 1.423329999999999873e-01 6.837509999999999977e+00 4.600840000000000174e+01 1.971474999999999909e+03
7.200000000000000844e-02 1.424320000000000030e-01 8.293924999999999770e+00 4.965409999999999968e+01 1.972400000000000091e+03
7.300000000000000933e-02 1.425445000000000184e-01 9.913009999999999877e+00 5.364414999999999623e+01 1.973465000000000146e+03
7.399999999999999634e-02 1.426689999999999903e-01 1.166156000000000148e+01 5.789670000000000272e+01 1.974634999999999991e+03
7.499999999999999722e-02 1.428030000000000133e-01 1.350542000000000087e+01 6.233004999999999995e+01 1.975905000000000200e+03
7.599999999999999811e-02 1.429440000000000155e-01 1.541119999999999912e+01 6.686669999999999447e+01 1.977240000000000009e+03
7.699999999999999900e-02 1.430885000000000074e-01 1.734765000000000157e+01 7.143755000000000166e+01 1.978625000000000000e+03
7.799999999999999989e-02 1.432364999999999888e-01 1.928734999999999999e+01 7.598499999999999943e+01 1.980039999999999964e+03
7.900000000000000078e-02 1.433844999999999981e-01 2.120710000000000051e+01 8.046504999999999086e+01 1.981454999999999927e+03
8.000000000000000167e-02 1.435319999999999929e-01 2.308919999999999817e+01 8.484839999999999804e+01 1.982875000000000000e+03
8.100000000000000255e-02 1.436775000000000135e-01 2.492130000000000223e+01 8.912030000000000030e+01 1.984279999999999973e+03
8.200000000000000344e-02 1.438210000000000044e-01 2.669604999999999961e+01 9.327949999999999875e+01 1.985664999999999964e+03
8.300000000000000433e-02 1.439615000000000200e-01 2.841069999999999851e+01 9.733504999999999541e+01 1.987025000000000091e+03
8.400000000000000522e-02 1.440994999999999915e-01 3.006630000000000180e+01 1.013051000000000101e+02 1.988369999999999891e+03
8.500000000000000611e-02 1.442355000000000165e-01 3.166635000000000133e+01 1.052115499999999884e+02 1.989695000000000164e+03
8.600000000000000699e-02 1.443699999999999983e-01 3.321594999999999942e+01 1.090780000000000030e+02 1.991005000000000109e+03
8.700000000000000788e-02 1.445035000000000069e-01 3.472060000000000457e+01 1.129254999999999995e+02 1.992309999999999945e+03
8.800000000000000877e-02 1.446365000000000012e-01 3.618540000000000134e+01 1.167719999999999914e+02 1.993609999999999900e+03
8.899999999999999578e-02 1.447694999999999954e-01 3.761419999999999675e+01 1.206280000000000001e+02 1.994909999999999854e+03
8.999999999999999667e-02 1.449024999999999896e-01 3.900919999999999987e+01 1.244975000000000023e+02 1.996210000000000036e+03
9.099999999999999756e-02 1.450359999999999983e-01 4.037059999999999604e+01 1.283774999999999977e+02 1.997514999999999873e+03
9.199999999999999845e-02 1.451689999999999925e-01 4.169655000000000200e+01 1.322579999999999814e+02 1.998820000000000164e+03
9.299999999999999933e-02 1.453019999999999867e-01 4.298345000000000482e+01 1.361225000000000023e+02 2.000130000000000109e+03
9.400000000000000022e-02 1.454345000000000221e-01 4.422574999999999790e+01 1.399505000000000052e+02 2.001425000000000182e+03
9.500000000000000111e-02 1.455660000000000009e-01 4.541655000000000086e+01 1.437164999999999964e+02 2.002715000000000146e+03
9.600000000000000200e-02 1.456950000000000189e-01 4.654775000000000063e+01 1.473940000000000055e+02 2.003984999999999900e+03
9.700000000000000289e-02 1.458209999999999784e-01 4.761064999999999969e+01 1.509544999999999959e+02 2.005235000000000127e+03
9.800000000000000377e-02 1.459429999999999894e-01 4.859600000000000364e+01 1.543700000000000045e+02 2.006445000000000164e+03
9.900000000000000466e-02 1.460609999999999964e-01 4.949470000000000169e+01 1.576134999999999877e+02 2.007605000000000018e+03
1.000000000000000056e-01 1.461735000000000118e-01 5.029789999999999850e+01 1.606589999999999918e+02 2.008720000000000027e+03
1.010000000000000064e-01 1.462789999999999924e-01 5.099750000000000227e+01 1.634845000000000255e+02 2.009765000000000100e+03
1.020000000000000073e-01 1.463780000000000081e-01 5.158660000000000423e+01 1.660704999999999814e+02 2.010750000000000000e+03
1.030000000000000082e-01 1.464690000000000158e-01 5.205969999999999942e+01 1.684005000000000223e+02 2.011659999999999854e+03
1.040000000000000091e-01 1.465520000000000156e-01 5.241310000000000002e+01 1.704654999999999916e+02 2.012490000000000009e+03
1.050000000000000100e-01 1.466260000000000063e-01 5.264520000000000266e+01 1.722595000000000027e+02 2.013235000000000127e+03
1.059999999999999970e-01 1.466919999999999891e-01 5.275659999999999883e+01 1.737824999999999989e+02 2.013894999999999982e+03
1.069999999999999979e-01 1.467490000000000183e-01 5.275015000000000498e+01 1.750409999999999968e+02 2.014470000000000027e+03
1.079999999999999988e-01 1.467970000000000108e-01 5.263119999999999976e+01 1.760459999999999923e+02 2.014960000000000036e+03
1.089999999999999997e-01 1.468369999999999953e-01 5.240720000000000312e+01 1.768149999999999977e+02 2.015365000000000009e+03
1.100000000000000006e-01 1.468694999999999862e-01 5.208740000000000236e+01 1.773679999999999950e+02 2.015699999999999818e+03
1.110000000000000014e-01 1.468939999999999968e-01 5.168280000000000030e+01 1.777305000000000064e+02 2.015954999999999927e+03
1.120000000000000023e-01 1.469130000000000158e-01 5.120535000000000281e+01 1.779279999999999973e+02 2.016150000000000091e+03
1.130000000000000032e-01 1.469254999999999867e-01 5.066779999999999973e+01 1.779900000000000091e+02 2.016279999999999973e+03
1.140000000000000041e-01 1.469334999999999947e-01 5.008289999999999509e+01 1.779429999999999836e+02 2.016369999999999891e+03
1.150000000000000050e-01 1.469374999999999987e-01 4.946330000000000382e+01 1.778154999999999859e+02 2.016420000000000073e+03
1.160000000000000059e-01 1.469380000000000130e-01 4.882075000000000387e+01 1.776310000000000002e+02 2.016430000000000064e+03
1.170000000000000068e-01 1.469364999999999977e-01 4.816594999999999516e+01 1.774105000000000132e+02 2.016420000000000073e+03
1.180000000000000077e-01 1.469334999999999947e-01 4.750815000000000055e+01 1.771730000000000018e+02 2.016389999999999873e+03
1.190000000000000085e-01 1.469289999999999763e-01 4.685500000000000398e+01 1.769309999999999832e+02 2.016345000000000027e+03
1.200000000000000094e-01 1.469239999999999990e-01 4.621245000000000402e+01 1.766954999999999814e+02 2.016295000000000073e+03
1.209999999999999964e-01 1.469185000000000074e-01 4.558429999999999893e+01 1.764699999999999989e+02 2.016240000000000009e+03
1.219999999999999973e-01 1.469125000000000014e-01 4.497279999999999944e+01 1.762574999999999932e+02 2.016184999999999945e+03
1.229999999999999982e-01 1.469064999999999954e-01 4.437814999999999799e+01 1.760534999999999854e+02 2.016130000000000109e+03
1.239999999999999991e-01 1.469010000000000038e-01 4.379905000000000115e+01 1.758530000000000086e+02 2.016070000000000164e+03
1.250000000000000000e-01 1.468944999999999834e-01 4.323279999999999745e+01 1.756465000000000032e+02 2.016005000000000109e+03
1.260000000000000009e-01 1.468880000000000186e-01 4.267530000000000001e+01 1.754230000000000018e+02 2.015940000000000055e+03
1.270000000000000018e-01 1.468804999999999972e-01 4.212160000000000082e+01 1.751689999999999827e+02 2.015860000000000127e+03
1.280000000000000027e-01 1.468725000000000169e-01 4.156634999999999991e+01 1.748714999999999975e+02 2.015775000000000091e+03
1.290000000000000036e-01 1.468625000000000069e-01 4.100355000000000416e+01 1.745165000000000077e+02 2.015680000000000064e+03
1.300000000000000044e-01 1.468504999999999949e-01 4.042764999999999986e+01 1.740910000000000082e+02 2.015559999999999945e+03
1.310000000000000053e-01 1.468364999999999809e-01 3.983320000000000505e+01 1.735835000000000150e+02 2.015420000000000073e+03
1.320000000000000062e-01 1.468194999999999917e-01 3.921564999999999657e+01 1.729850000000000136e+02 2.015255000000000109e+03
1.330000000000000071e-01 1.467994999999999994e-01 3.857115000000000293e+01 1.722870000000000061e+02 2.015054999999999836e+03
1.340000000000000080e-01 1.467765000000000042e-01 3.789740000000000464e+01 1.714875000000000114e+02 2.014829999999999927e+03
1.350000000000000089e-01 1.467505000000000059e-01 3.719310000000000116e+01 1.705854999999999961e+02 2.014579999999999927e+03
1.360000000000000098e-01 1.467209999999999903e-01 3.645865000000000578e+01 1.695844999999999914e+02 2.014285000000000082e+03
1.370000000000000107e-01 1.466884999999999994e-01 3.569589999999999463e+01 1.684904999999999973e+02 2.013969999999999800e+03
1.380000000000000115e-01 1.466530000000000056e-01 3.490820000000000078e+01 1.673145000000000095e+02 2.013619999999999891e+03
1.390000000000000124e-01 1.466149999999999953e-01 3.410029999999999717e+01 1.660705000000000098e+02 2.013244999999999891e+03
1.400000000000000133e-01 1.465750000000000108e-01 3.327835000000000321e+01 1.647735000000000127e+02 2.012849999999999909e+03
1.410000000000000142e-01 1.465329999999999966e-01 3.244924999999999926e+01 1.634435000000000002e+02 2.012434999999999945e+03
1.420000000000000151e-01 1.464894999999999947e-01 3.162095000000000056e+01 1.620995000000000061e+02 2.012009999999999991e+03
1.430000000000000160e-01 1.464455000000000062e-01 3.080165000000000219e+01 1.607624999999999886e+02 2.011579999999999927e+03
1.440000000000000169e-01 1.464015000000000177e-01 2.999980000000000047e+01 1.594524999999999864e+02 2.011150000000000091e+03
1.450000000000000178e-01 1.463585000000000025e-01 2.922344999999999970e+01 1.581899999999999977e+02 2.010720000000000027e+03
1.459999999999999909e-01 1.463170000000000026e-01 2.848029999999999973e+01 1.569915000000000020e+02 2.010304999999999836e+03
1.469999999999999918e-01 1.462769999999999904e-01 2.777710000000000079e+01 1.558734999999999786e+02 2.009914999999999964e+03
1.479999999999999927e-01 1.462394999999999945e-01 2.711959999999999837e+01 1.548485000000000014e+02 2.009535000000000082e+03
1.489999999999999936e-01 1.462045000000000150e-01 2.651219999999999999e+01 1.539265000000000043e+02 2.009190000000000055e+03
1.499999999999999944e-01 1.461729999999999974e-01 2.595805000000000007e+01 1.531119999999999948e+02 2.008875000000000000e+03
1.509999999999999953e-01 1.461439999999999961e-01 2.545880000000000010e+01 1.524089999999999918e+02 2.008590000000000146e+03
1.519999999999999962e-01 1.461195000000000133e-01 2.501474999999999937e+01 1.518149999999999977e+02 2.008335000000000036e+03
1.529999999999999971e-01 1.460974999999999913e-01 2.462480000000000047e+01 1.513279999999999745e+02 2.008119999999999891e+03
1.539999999999999980e-01 1.460790000000000144e-01 2.428679999999999950e+01 1.509414999999999907e+02 2.007930000000000064e+03
1.549999999999999989e-01 1.460639999999999994e-01 2.399750000000000227e+01 1.506469999999999914e+02 2.007775000000000091e+03
1.559999999999999998e-01 1.460515000000000008e-01 2.375290000000000035e+01 1.504335000000000093e+02 2.007654999999999973e+03
1.570000000000000007e-01 1.460425000000000195e-01 2.354845000000000255e+01 1.502914999999999850e+02 2.007554999999999836e+03
1.580000000000000016e-01 1.460354999999999848e-01 2.337894999999999968e+01 1.502094999999999914e+02 2.007480000000000018e+03
1.590000000000000024e-01 1.460299999999999931e-01 2.323930000000000007e+01 1.501759999999999877e+02 2.007424999999999955e+03
