# t [s], A [cm^2], U [cm/s], P [cPa], c [cm/s]
1.000000000000000021e-03 1.199655000000000027e-01 2.560020000000000073e-01 9.905634999999999479e+01 1.914615000000000009e+03
2.000000000000000042e-03 1.199444999999999956e-01 1.707627999999999924e+00 9.613550000000000750e+01 1.914329999999999927e+03
3.000000000000000062e-03 1.198694999999999899e-01 3.513487500000000097e+00 9.223584999999999923e+01 1.913365000000000009e+03
4.000000000000000083e-03 1.197570000000000023e-01 5.531107249999999809e+00 8.782150000000000034e+01 1.911934999999999945e+03
5.000000000000000104e-03 1.196270000000000111e-01 7.707394999999999996e+00 8.360675000000000523e+01 1.910300000000000182e+03
6.000000000000000125e-03 1.194945000000000035e-01 9.938035000000001062e+00 7.998060000000000969e+01 1.908650000000000091e+03
7.000000000000000146e-03 1.193664999999999865e-01 1.206337500000000063e+01 7.692024999999999579e+01 1.907079999999999927e+03
8.000000000000000167e-03 1.192455000000000043e-01 1.395780999999999850e+01 7.421320000000000050e+01 1.905615000000000009e+03
9.000000000000001055e-03 1.191335000000000033e-01 1.559725000000000072e+01 7.176545000000000130e+01 1.904284999999999854e+03
1.000000000000000194e-02 1.190335000000000143e-01 1.701085000000000136e+01 6.962449999999999761e+01 1.903099999999999909e+03
1.099999999999999936e-02 1.189459999999999962e-01 1.821999999999999886e+01 6.782650000000001000e+01 1.902085000000000036e+03
1.200000000000000025e-02 1.188719999999999916e-01 1.923545000000000016e+01 6.635150000000000148e+01 1.901230000000000018e+03
1.300000000000000114e-02 1.188099999999999989e-01 2.006544999999999845e+01 6.515240000000000009e+01 1.900519999999999982e+03
1.400000000000000203e-02 1.187585000000000029e-01 2.071304999999999907e+01 6.416030000000000655e+01 1.899940000000000055e+03
1.499999999999999944e-02 1.187150000000000011e-01 2.118440000000000012e+01 6.329619999999999891e+01 1.899454999999999927e+03
1.600000000000000033e-02 1.186779999999999918e-01 2.151274999999999693e+01 6.253070000000000306e+01 1.899055000000000064e+03
1.700000000000000122e-02 1.186480000000000035e-01 2.177189999999999870e+01 6.194590000000000174e+01 1.898730000000000018e+03
1.800000000000000211e-02 1.186284999999999978e-01 2.206080000000000041e+01 6.172825000000000273e+01 1.898525000000000091e+03
1.900000000000000300e-02 1.186230000000000062e-01 2.246464999999999890e+01 6.208050000000000068e+01 1.898474999999999909e+03
2.000000000000000042e-02 1.186345000000000038e-01 2.301845000000000141e+01 6.310779999999999745e+01 1.898619999999999891e+03
2.100000000000000130e-02 1.186635000000000051e-01 2.369219999999999970e+01 6.474514999999999532e+01 1.898960000000000036e+03
2.200000000000000219e-02 1.187060000000000060e-01 2.440314999999999657e+01 6.676019999999999754e+01 1.899460000000000036e+03
2.299999999999999961e-02 1.187560000000000004e-01 2.504565000000000197e+01 6.882165000000000532e+01 1.900049999999999955e+03
2.400000000000000050e-02 1.188065000000000093e-01 2.552489999999999881e+01 7.059754999999999825e+01 1.900644999999999982e+03
2.500000000000000139e-02 1.188494999999999968e-01 2.578324999999999889e+01 7.184604999999999109e+01 1.901175000000000182e+03
2.600000000000000228e-02 1.188820000000000016e-01 2.581099999999999994e+01 7.246805000000000518e+01 1.901574999999999818e+03
2.700000000000000316e-02 1.189010000000000067e-01 2.564175000000000182e+01 7.251255000000000450e+01 1.901829999999999927e+03
2.800000000000000058e-02 1.189085000000000003e-01 2.533579999999999899e+01 7.213819999999999766e+01 1.901934999999999945e+03
2.900000000000000147e-02 1.189074999999999993e-01 2.495839999999999748e+01 7.154910000000000991e+01 1.901940000000000055e+03
3.000000000000000236e-02 1.189015000000000072e-01 2.456030000000000157e+01 7.092879999999999541e+01 1.901880000000000109e+03
3.099999999999999978e-02 1.188934999999999992e-01 2.416680000000000206e+01 7.039195000000000846e+01 1.901784999999999854e+03
3.200000000000000067e-02 1.188855000000000051e-01 2.377595000000000169e+01 6.996569999999999823e+01 1.901695000000000164e+03
3.300000000000000155e-02 1.188769999999999966e-01 2.336605000000000132e+01 6.960085000000000832e+01 1.901599999999999909e+03
3.400000000000000244e-02 1.188680000000000014e-01 2.290805000000000291e+01 6.920429999999998927e+01 1.901500000000000000e+03
3.500000000000000333e-02 1.188559999999999894e-01 2.237914999999999921e+01 6.868165000000000475e+01 1.901365000000000009e+03
3.600000000000000422e-02 1.188404999999999878e-01 2.177384999999999948e+01 6.797585000000000832e+01 1.901190000000000055e+03
3.700000000000000511e-02 1.188199999999999951e-01 2.110965000000000202e+01 6.709290000000000020e+01 1.900954999999999927e+03
3.799999999999999906e-02 1.187960000000000127e-01 2.042605000000000004e+01 6.610835000000000150e+01 1.900680000000000064e+03
3.899999999999999994e-02 1.187710000000000016e-01 1.977734999999999843e+01 6.515285000000000082e+01 1.900389999999999873e+03
4.000000000000000083e-02 1.187470000000000053e-01 1.922119999999999962e+01 6.438264999999999816e+01 1.900110000000000127e+03
4.100000000000000172e-02 1.187290000000000012e-01 1.880644999999999811e+01 6.394249999999999545e+01 1.899894999999999982e+03
4.200000000000000261e-02 1.187194999999999917e-01 1.856259999999999977e+01 6.393149999999999977e+01 1.899769999999999982e+03
4.300000000000000350e-02 1.187199999999999922e-01 1.849399999999999977e+01 6.438020000000000209e+01 1.899764999999999873e+03
4.400000000000000439e-02 1.187310000000000032e-01 1.857945000000000135e+01 6.524340000000000828e+01 1.899889999999999873e+03
4.499999999999999833e-02 1.187519999999999964e-01 1.877649999999999864e+01 6.640940000000000509e+01 1.900125000000000000e+03
4.599999999999999922e-02 1.187799999999999967e-01 1.902935000000000088e+01 6.772055000000000291e+01 1.900440000000000055e+03
4.700000000000000011e-02 1.188115000000000143e-01 1.927759999999999962e+01 6.900114999999999554e+01 1.900800000000000182e+03
4.800000000000000100e-02 1.188420000000000032e-01 1.946499999999999986e+01 7.008429999999999893e+01 1.901154999999999973e+03
4.900000000000000189e-02 1.188680000000000014e-01 1.954599999999999937e+01 7.083480000000000132e+01 1.901460000000000036e+03
5.000000000000000278e-02 1.188864999999999922e-01 1.948930000000000007e+01 7.116280000000000427e+01 1.901679999999999836e+03
5.100000000000000366e-02 1.188944999999999863e-01 1.927949999999999875e+01 7.102895000000000891e+01 1.901785000000000082e+03
5.200000000000000455e-02 1.188919999999999977e-01 1.891489999999999938e+01 7.044034999999999513e+01 1.901759999999999991e+03
5.300000000000000544e-02 1.188780000000000114e-01 1.840545000000000186e+01 6.944129999999999825e+01 1.901605000000000018e+03
5.399999999999999939e-02 1.188535000000000008e-01 1.776859999999999928e+01 6.810005000000001019e+01 1.901324999999999818e+03
5.500000000000000028e-02 1.188200000000000089e-01 1.702635000000000076e+01 6.649639999999999418e+01 1.900940000000000055e+03
5.600000000000000117e-02 1.187789999999999957e-01 1.620220000000000127e+01 6.471124999999999261e+01 1.900460000000000036e+03
5.700000000000000205e-02 1.187320000000000042e-01 1.532025000000000148e+01 6.282014999999999816e+01 1.899920000000000073e+03
5.800000000000000294e-02 1.186814999999999953e-01 1.440440000000000076e+01 6.089059999999999917e+01 1.899329999999999927e+03
5.900000000000000383e-02 1.186284999999999978e-01 1.347855000000000025e+01 5.898290000000000077e+01 1.898704999999999927e+03
6.000000000000000472e-02 1.185749999999999998e-01 1.256741999999999848e+01 5.715264999999999418e+01 1.898085000000000036e+03
6.099999999999999867e-02 1.185230000000000034e-01 1.169728999999999886e+01 5.545459999999999923e+01 1.897474999999999909e+03
6.199999999999999956e-02 1.184739999999999960e-01 1.089630000000000010e+01 5.394525000000000148e+01 1.896900000000000091e+03
6.300000000000000044e-02 1.184295000000000070e-01 1.019424000000000063e+01 5.268455000000000155e+01 1.896375000000000000e+03
6.400000000000000133e-02 1.183919999999999972e-01 9.622040000000000148e+00 5.173555000000000348e+01 1.895929999999999836e+03
6.500000000000000222e-02 1.183625000000000094e-01 9.210409999999999542e+00 5.116259999999999764e+01 1.895570000000000164e+03
6.600000000000000311e-02 1.183430000000000037e-01 8.988554999999999851e+00 5.102790000000000248e+01 1.895339999999999918e+03
6.700000000000000400e-02 1.183359999999999967e-01 8.982160000000000366e+00 5.138719999999999999e+01 1.895240000000000009e+03
6.800000000000000488e-02 1.183424999999999894e-01 9.212184999999999846e+00 5.228580000000000183e+01 1.895305000000000064e+03
6.900000000000000577e-02 1.183639999999999970e-01 9.693234999999999602e+00 5.375475000000000136e+01 1.895539999999999964e+03
7.000000000000000666e-02 1.184014999999999929e-01 1.043289000000000044e+01 5.580839999999999890e+01 1.895954999999999927e+03
7.100000000000000755e-02 1.184545000000000042e-01 1.143093000000000004e+01 5.844275000000000375e+01 1.896565000000000055e+03
7.200000000000000844e-02 1.185249999999999915e-01 1.267980000000000018e+01 6.163589999999999947e+01 1.897375000000000000e+03
7.300000000000000933e-02 1.186110000000000081e-01 1.416484999999999950e+01 6.534935000000000116e+01 1.898369999999999891e+03
7.399999999999999634e-02 1.187124999999999986e-01 1.586520000000000152e+01 6.953029999999999688e+01 1.899539999999999964e+03
7.499999999999999722e-02 1.188275000000000026e-01 1.775499999999999901e+01 7.411504999999999654e+01 1.900875000000000000e+03
7.599999999999999811e-02 1.189550000000000052e-01 1.980494999999999806e+01 7.903270000000000550e+01 1.902360000000000127e+03
7.699999999999999900e-02 1.190930000000000044e-01 2.198329999999999984e+01 8.420894999999998731e+01 1.903974999999999909e+03
7.799999999999999989e-02 1.192389999999999978e-01 2.425764999999999816e+01 8.957009999999999650e+01 1.905695000000000164e+03
7.900000000000000078e-02 1.193919999999999981e-01 2.659624999999999773e+01 9.504614999999999725e+01 1.907500000000000000e+03
8.000000000000000167e-02 1.195495000000000030e-01 2.896940000000000026e+01 1.005747000000000071e+02 1.909365000000000009e+03
8.100000000000000255e-02 1.197100000000000108e-01 3.135004999999999598e+01 1.061014499999999998e+02 1.911269999999999982e+03
8.200000000000000344e-02 1.198720000000000063e-01 3.371495000000000175e+01 1.115840000000000032e+02 1.913200000000000045e+03
8.300000000000000433e-02 1.200345000000000023e-01 3.604509999999999792e+01 1.169909999999999997e+02 1.915134999999999991e+03
8.400000000000000522e-02 1.201954999999999968e-01 3.832550000000000523e+01 1.223025000000000091e+02 1.917070000000000164e+03
8.500000000000000611e-02 1.203549999999999898e-01 4.054554999999999865e+01 1.275079999999999956e+02 1.918985000000000127e+03
8.600000000000000699e-02 1.205124999999999946e-01 4.269794999999999874e+01 1.326064999999999827e+02 1.920880000000000109e+03
8.700000000000000788e-02 1.206675000000000109e-01 4.477864999999999895e+01 1.376020000000000039e+02 1.922759999999999991e+03
8.800000000000000877e-02 1.208210000000000117e-01 4.678560000000000230e+01 1.425024999999999977e+02 1.924610000000000127e+03
8.899999999999999578e-02 1.209714999999999957e-01 4.871835000000000093e+01 1.473174999999999955e+02 1.926440000000000055e+03
8.999999999999999667e-02 1.211200000000000054e-01 5.057699999999999818e+01 1.520550000000000068e+02 1.928250000000000000e+03
9.099999999999999756e-02 1.212664999999999993e-01 5.236180000000000234e+01 1.567205000000000155e+02 1.930029999999999973e+03
9.199999999999999845e-02 1.214109999999999912e-01 5.407229999999999848e+01 1.613154999999999859e+02 1.931789999999999964e+03
9.299999999999999933e-02 1.215534999999999949e-01 5.570735000000000525e+01 1.658365000000000009e+02 1.933534999999999854e+03
9.400000000000000022e-02 1.216934999999999961e-01 5.726475000000000648e+01 1.702750000000000057e+02 1.935255000000000109e+03
9.500000000000000111e-02 1.218314999999999954e-01 5.874110000000000298e+01 1.746195000000000164e+02 1.936945000000000164e+03
9.600000000000000200e-02 1.219659999999999911e-01 6.013214999999999577e+01 1.788519999999999754e+02 1.938599999999999909e+03
9.700000000000000289e-02 1.220980000000000121e-01 6.143254999999999910e+01 1.829534999999999911e+02 1.940220000000000027e+03
9.800000000000000377e-02 1.222260000000000013e-01 6.263654999999999973e+01 1.869044999999999845e+02 1.941800000000000182e+03
9.900000000000000466e-02 1.223490000000000133e-01 6.373805000000000121e+01 1.906804999999999950e+02 1.943325000000000045e+03
1.000000000000000056e-01 1.224675000000000069e-01 6.473080000000000211e+01 1.942610000000000241e+02 1.944789999999999964e+03
1.010000000000000064e-01 1.225805000000000089e-01 6.560880000000000223e+01 1.976245000000000118e+02 1.946190000000000055e+03
1.020000000000000073e-01 1.226865000000000039e-01 6.636660000000000537e+01 2.007520000000000095e+02 1.947514999999999873e+03
1.030000000000000082e-01 1.227865000000000067e-01 6.699934999999999263e+01 2.036264999999999930e+02 1.948759999999999991e+03
1.040000000000000091e-01 1.228789999999999882e-01 6.750325000000000841e+01 2.062339999999999804e+02 1.949914999999999964e+03
1.050000000000000100e-01 1.229635000000000034e-01 6.787579999999999814e+01 2.085635000000000048e+02 1.950974999999999909e+03
1.059999999999999970e-01 1.230409999999999976e-01 6.811560000000000059e+01 2.106080000000000041e+02 1.951940000000000055e+03
1.069999999999999979e-01 1.231089999999999962e-01 6.822299999999999898e+01 2.123650000000000091e+02 1.952799999999999955e+03
1.079999999999999988e-01 1.231694999999999873e-01 6.819984999999999786e+01 2.138349999999999795e+02 1.953559999999999945e+03
1.089999999999999997e-01 1.232215000000000116e-01 6.805000000000001137e+01 2.150235000000000127e+02 1.954215000000000146e+03
1.100000000000000006e-01 1.232644999999999991e-01 6.777875000000000227e+01 2.159390000000000214e+02 1.954769999999999982e+03
1.110000000000000014e-01 1.233005000000000073e-01 6.739330000000001064e+01 2.165960000000000036e+02 1.955224999999999909e+03
1.120000000000000023e-01 1.233275000000000066e-01 6.690229999999999677e+01 2.170115000000000123e+02 1.955575000000000045e+03
1.130000000000000032e-01 1.233479999999999993e-01 6.631595000000000084e+01 2.172059999999999889e+02 1.955844999999999800e+03
1.140000000000000041e-01 1.233615000000000128e-01 6.564549999999999841e+01 2.172030000000000030e+02 1.956019999999999982e+03
1.150000000000000050e-01 1.233690000000000064e-01 6.490299999999999159e+01 2.170264999999999986e+02 1.956125000000000000e+03
1.160000000000000059e-01 1.233710000000000084e-01 6.410089999999999577e+01 2.167035000000000196e+02 1.956159999999999854e+03
1.170000000000000068e-01 1.233680000000000054e-01 6.325175000000000125e+01 2.162599999999999909e+02 1.956130000000000109e+03
1.180000000000000077e-01 1.233604999999999979e-01 6.236789999999999878e+01 2.157204999999999870e+02 1.956049999999999955e+03
1.190000000000000085e-01 1.233505000000000018e-01 6.146094999999999686e+01 2.151084999999999923e+02 1.955924999999999955e+03
1.200000000000000094e-01 1.233370000000000022e-01 6.054144999999999754e+01 2.144454999999999814e+02 1.955769999999999982e+03
1.209999999999999964e-01 1.233215000000000006e-01 5.961889999999999645e+01 2.137495000000000118e+02 1.955585000000000036e+03
1.219999999999999973e-01 1.233049999999999979e-01 5.870120000000000005e+01 2.130355000000000132e+02 1.955375000000000000e+03
1.229999999999999982e-01 1.232865000000000072e-01 5.779479999999999507e+01 2.123145000000000095e+02 1.955154999999999973e+03
1.239999999999999991e-01 1.232679999999999887e-01 5.690449999999999875e+01 2.115955000000000155e+02 1.954914999999999964e+03
1.250000000000000000e-01 1.232484999999999969e-01 5.603334999999999866e+01 2.108814999999999884e+02 1.954675000000000182e+03
1.260000000000000009e-01 1.232290000000000052e-01 5.518299999999999983e+01 2.101739999999999782e+02 1.954430000000000064e+03
1.270000000000000018e-01 1.232084999999999986e-01 5.435330000000000439e+01 2.094710000000000036e+02 1.954180000000000064e+03
1.280000000000000027e-01 1.231885000000000063e-01 5.354305000000000092e+01 2.087665000000000077e+02 1.953930000000000064e+03
1.290000000000000036e-01 1.231679999999999997e-01 5.274970000000000425e+01 2.080554999999999950e+02 1.953670000000000073e+03
1.300000000000000044e-01 1.231470000000000065e-01 5.196970000000000312e+01 2.073279999999999745e+02 1.953404999999999973e+03
1.310000000000000053e-01 1.231249999999999983e-01 5.119894999999999641e+01 2.065745000000000005e+02 1.953134999999999991e+03
1.320000000000000062e-01 1.231025000000000036e-01 5.043274999999999864e+01 2.057844999999999800e+02 1.952849999999999909e+03
1.330000000000000071e-01 1.230789999999999940e-01 4.966604999999999848e+01 2.049474999999999909e+02 1.952554999999999836e+03
1.340000000000000080e-01 1.230535000000000101e-01 4.889405000000000001e+01 2.040540000000000020e+02 1.952250000000000000e+03
1.350000000000000089e-01 1.230269999999999975e-01 4.811204999999999643e+01 2.030939999999999941e+02 1.951914999999999964e+03
1.360000000000000098e-01 1.229985000000000106e-01 4.731595000000000084e+01 2.020604999999999905e+02 1.951559999999999945e+03
1.370000000000000107e-01 1.229679999999999940e-01 4.650225000000000364e+01 2.009474999999999909e+02 1.951180000000000064e+03
1.380000000000000115e-01 1.229349999999999887e-01 4.566840000000000543e+01 1.997515000000000214e+02 1.950775000000000091e+03
1.390000000000000124e-01 1.228994999999999949e-01 4.481270000000000664e+01 1.984710000000000036e+02 1.950339999999999918e+03
1.400000000000000133e-01 1.228619999999999990e-01 4.393464999999999776e+01 1.971069999999999993e+02 1.949875000000000000e+03
1.410000000000000142e-01 1.228220000000000006e-01 4.303495000000000203e+01 1.956639999999999873e+02 1.949385000000000218e+03
1.420000000000000151e-01 1.227800000000000002e-01 4.211540000000000106e+01 1.941480000000000246e+02 1.948865000000000009e+03
1.430000000000000160e-01 1.227354999999999974e-01 4.117895000000000039e+01 1.925685000000000002e+02 1.948319999999999936e+03
1.440000000000000169e-01 1.226895000000000069e-01 4.022959999999999781e+01 1.909370000000000118e+02 1.947750000000000000e+03
1.450000000000000178e-01 1.226415000000000005e-01 3.927230000000000132e+01 1.892649999999999864e+02 1.947159999999999854e+03
1.459999999999999909e-01 1.225924999999999931e-01 3.831274999999999409e+01 1.875695000000000050e+02 1.946554999999999836e+03
1.469999999999999918e-01 1.225424999999999986e-01 3.735719999999999885e+01 1.858640000000000043e+02 1.945940000000000055e+03
1.479999999999999927e-01 1.224925000000000042e-01 3.641225000000000023e+01 1.841655000000000086e+02 1.945325000000000045e+03
1.489999999999999936e-01 1.224419999999999953e-01 3.548444999999999538e+01 1.824900000000000091e+02 1.944704999999999927e+03
1.499999999999999944e-01 1.223915000000000142e-01 3.458039999999999736e+01 1.808524999999999920e+02 1.944089999999999918e+03
1.509999999999999953e-01 1.223425000000000068e-01 3.370624999999999716e+01 1.792669999999999959e+02 1.943485000000000127e+03
1.519999999999999962e-01 1.222945000000000004e-01 3.286744999999999806e+01 1.777454999999999927e+02 1.942894999999999982e+03
1.529999999999999971e-01 1.222489999999999966e-01 3.206869999999999976e+01 1.762990000000000066e+02 1.942325000000000045e+03
1.539999999999999980e-01 1.222045000000000076e-01 3.131384999999999863e+01 1.749350000000000023e+02 1.941775000000000091e+03
1.549999999999999989e-01 1.221619999999999928e-01 3.060570000000000235e+01 1.736594999999999800e+02 1.941255000000000109e+03
1.559999999999999998e-01 1.221224999999999949e-01 2.994620000000000104e+01 1.724755000000000109e+02 1.940764999999999873e+03
1.570000000000000007e-01 1.220849999999999991e-01 2.933590000000000231e+01 1.713829999999999814e+02 1.940299999999999955e+03
1.580000000000000016e-01 1.220505000000000062e-01 2.877474999999999739e+01 1.703815000000000168e+02 1.939869999999999891e+03
1.590000000000000024e-01 1.220180000000000015e-01 2.826160000000000139e+01 1.694679999999999893e+02 1.939470000000000027e+03
