# t [s], A [cm^2], U [cm/s], P [cPa], c [cm/s]
1.000000000000000021e-03 1.740025000000000044e-01 2.792378499999999542e-01 8.729030000000000200e+01 2.288469999999999800e+03
2.000000000000000042e-03 1.739525000000000099e-01 1.638530999999999960e+00 8.396389999999999532e+01 2.287965000000000146e+03
3.000000000000000062e-03 1.738335000000000019e-01 3.343421500000000268e+00 7.923560000000000514e+01 2.286800000000000182e+03
4.000000000000000083e-03 1.736805000000000154e-01 5.295455000000000467e+00 7.424639999999999418e+01 2.285319999999999709e+03
5.000000000000000104e-03 1.735254999999999992e-01 7.401209999999999845e+00 7.000964999999999350e+01 2.283840000000000146e+03
6.000000000000000125e-03 1.733824999999999950e-01 9.404199999999999449e+00 6.663630000000000564e+01 2.282494999999999891e+03
7.000000000000000146e-03 1.732505000000000017e-01 1.106602999999999959e+01 6.365505000000000280e+01 2.281284999999999854e+03
8.000000000000000167e-03 1.731334999999999957e-01 1.238929499999999884e+01 6.098120000000000118e+01 2.280230000000000018e+03
9.000000000000001055e-03 1.730359999999999954e-01 1.344200000000000017e+01 5.879879999999999995e+01 2.279364999999999782e+03
1.000000000000000194e-02 1.729585000000000150e-01 1.424909999999999854e+01 5.712645000000000550e+01 2.278689999999999600e+03
1.099999999999999936e-02 1.728995000000000115e-01 1.483515000000000050e+01 5.590474999999999994e+01 2.278179999999999836e+03
1.200000000000000025e-02 1.728560000000000096e-01 1.520465000000000089e+01 5.500780000000000314e+01 2.277804999999999836e+03
1.300000000000000114e-02 1.728204999999999880e-01 1.535249999999999915e+01 5.422679999999999723e+01 2.277514999999999873e+03
1.400000000000000203e-02 1.727910000000000001e-01 1.536224999999999952e+01 5.354135000000000133e+01 2.277280000000000200e+03
1.499999999999999944e-02 1.727759999999999851e-01 1.544385000000000119e+01 5.336095000000000255e+01 2.277159999999999854e+03
1.600000000000000033e-02 1.727894999999999848e-01 1.582349999999999923e+01 5.432439999999999714e+01 2.277289999999999964e+03
1.700000000000000122e-02 1.728405000000000080e-01 1.658404999999999774e+01 5.678990000000000293e+01 2.277739999999999782e+03
1.800000000000000211e-02 1.729275000000000118e-01 1.759394999999999953e+01 6.046775000000000233e+01 2.278510000000000218e+03
1.900000000000000300e-02 1.730319999999999914e-01 1.856709999999999994e+01 6.446795000000000186e+01 2.279445000000000164e+03
2.000000000000000042e-02 1.731290000000000051e-01 1.920250000000000057e+01 6.769549999999999557e+01 2.280335000000000036e+03
2.100000000000000130e-02 1.731965000000000032e-01 1.931705000000000183e+01 6.933330000000000837e+01 2.280980000000000018e+03
2.200000000000000219e-02 1.732219999999999871e-01 1.890990000000000038e+01 6.916024999999999068e+01 2.281250000000000000e+03
2.299999999999999961e-02 1.732090000000000019e-01 1.813835000000000264e+01 6.757399999999999807e+01 2.281170000000000073e+03
2.400000000000000050e-02 1.731705000000000050e-01 1.722899999999999920e+01 6.534335000000000093e+01 2.280845000000000255e+03
2.500000000000000139e-02 1.731240000000000001e-01 1.637349999999999994e+01 6.323969999999999914e+01 2.280425000000000182e+03
2.600000000000000228e-02 1.730820000000000136e-01 1.565864999999999974e+01 6.172865000000000180e+01 2.280045000000000073e+03
2.700000000000000316e-02 1.730514999999999970e-01 1.505260000000000176e+01 6.084290000000000020e+01 2.279760000000000218e+03
2.800000000000000058e-02 1.730285000000000017e-01 1.444324999999999903e+01 6.025424999999999898e+01 2.279539999999999964e+03
2.900000000000000147e-02 1.730039999999999911e-01 1.370429999999999993e+01 5.948290000000000077e+01 2.279319999999999709e+03
3.000000000000000236e-02 1.729680000000000106e-01 1.276190000000000069e+01 5.814499999999999602e+01 2.279005000000000109e+03
3.099999999999999978e-02 1.729175000000000018e-01 1.163813999999999993e+01 5.614629999999999654e+01 2.278559999999999945e+03
3.200000000000000067e-02 1.728540000000000076e-01 1.045529499999999956e+01 5.375070000000000192e+01 2.278000000000000000e+03
3.300000000000000155e-02 1.727894999999999848e-01 9.399055000000000604e+00 5.150105000000000643e+01 2.277420000000000073e+03
3.400000000000000244e-02 1.727380000000000027e-01 8.656234999999998792e+00 5.002530000000000143e+01 2.276944999999999709e+03
3.500000000000000333e-02 1.727139999999999787e-01 8.352014999999999745e+00 4.981054999999999922e+01 2.276699999999999818e+03
3.600000000000000422e-02 1.727245000000000030e-01 8.510210000000000719e+00 5.103244999999999720e+01 2.276764999999999873e+03
3.700000000000000511e-02 1.727700000000000069e-01 9.047729999999999606e+00 5.349699999999999989e+01 2.277144999999999982e+03
3.799999999999999906e-02 1.728419999999999956e-01 9.799815000000000609e+00 5.669910000000000139e+01 2.277769999999999982e+03
3.899999999999999994e-02 1.729249999999999954e-01 1.056299999999999883e+01 5.996235000000000070e+01 2.278510000000000218e+03
4.000000000000000083e-02 1.730035000000000045e-01 1.114158000000000115e+01 6.260699999999999932e+01 2.279215000000000146e+03
4.100000000000000172e-02 1.730605000000000060e-01 1.138424999999999976e+01 6.409539999999999793e+01 2.279750000000000000e+03
4.200000000000000261e-02 1.730849999999999889e-01 1.120469999999999899e+01 6.412194999999999823e+01 2.279989999999999782e+03
4.300000000000000350e-02 1.730710000000000026e-01 1.058445999999999998e+01 6.263625000000000398e+01 2.279885000000000218e+03
4.400000000000000439e-02 1.730185000000000195e-01 9.561299999999999244e+00 5.980460000000000065e+01 2.279434999999999945e+03
4.499999999999999833e-02 1.729319999999999746e-01 8.208949999999999747e+00 5.593384999999999962e+01 2.278675000000000182e+03
4.599999999999999922e-02 1.728200000000000014e-01 6.616199999999999193e+00 5.138400000000000034e+01 2.277675000000000182e+03
4.700000000000000011e-02 1.726900000000000102e-01 4.870841999999999672e+00 4.649599999999999511e+01 2.276515000000000327e+03
4.800000000000000100e-02 1.725510000000000099e-01 3.050520000000000120e+00 4.154885000000000161e+01 2.275265000000000327e+03
4.900000000000000189e-02 1.724094999999999933e-01 1.221659999999999968e+00 3.674864999999999782e+01 2.273984999999999673e+03
5.000000000000000278e-02 1.722710000000000075e-01 -5.571849999999998193e-01 3.224235000000000184e+01 2.272730000000000018e+03
5.100000000000000366e-02 1.721400000000000152e-01 -2.230140000000000011e+00 2.814370000000000260e+01 2.271545000000000073e+03
5.200000000000000455e-02 1.720200000000000062e-01 -3.739856500000000139e+00 2.455819999999999936e+01 2.270449999999999818e+03
5.300000000000000544e-02 1.719154999999999989e-01 -5.026194999999999524e+00 2.159969999999999857e+01 2.269500000000000000e+03
5.399999999999999939e-02 1.718300000000000105e-01 -6.028325000000000600e+00 1.939264999999999972e+01 2.268710000000000036e+03
5.500000000000000028e-02 1.717680000000000040e-01 -6.689460000000000406e+00 1.806334999999999980e+01 2.268125000000000000e+03
5.600000000000000117e-02 1.717325000000000101e-01 -6.962934999999999874e+00 1.772240000000000038e+01 2.267779999999999745e+03
5.700000000000000205e-02 1.717259999999999898e-01 -6.818030000000000257e+00 1.844514999999999816e+01 2.267695000000000164e+03
5.800000000000000294e-02 1.717509999999999870e-01 -6.244049999999999656e+00 2.025645000000000095e+01 2.267889999999999873e+03
5.900000000000000383e-02 1.718080000000000163e-01 -5.251985000000000348e+00 2.312239999999999895e+01 2.268369999999999891e+03
6.000000000000000472e-02 1.718939999999999912e-01 -3.873570500000000028e+00 2.695125000000000171e+01 2.269119999999999891e+03
6.099999999999999867e-02 1.720085000000000086e-01 -2.158384999999999998e+00 3.160154999999999959e+01 2.270119999999999891e+03
6.199999999999999956e-02 1.721449999999999925e-01 -1.696099999999998165e-01 3.689570000000000505e+01 2.271329999999999927e+03
6.300000000000000044e-02 1.723004999999999953e-01 2.020750000000000046e+00 4.263509999999999422e+01 2.272715000000000146e+03
6.400000000000000133e-02 1.724680000000000102e-01 4.336702500000000349e+00 4.861570000000000391e+01 2.274220000000000255e+03
6.500000000000000222e-02 1.726424999999999765e-01 6.702975000000000350e+00 5.464215000000000089e+01 2.275795000000000073e+03
6.600000000000000311e-02 1.728190000000000004e-01 9.049344999999998862e+00 6.053990000000000293e+01 2.277390000000000327e+03
6.700000000000000400e-02 1.729919999999999791e-01 1.131477999999999895e+01 6.616634999999999422e+01 2.278965000000000146e+03
6.800000000000000488e-02 1.731575000000000197e-01 1.345086999999999833e+01 7.141845000000000709e+01 2.280484999999999673e+03
6.900000000000000577e-02 1.733135000000000092e-01 1.542409999999999926e+01 7.623849999999998772e+01 2.281914999999999964e+03
7.000000000000000666e-02 1.734585000000000155e-01 1.721724999999999994e+01 8.061535000000000650e+01 2.283250000000000000e+03
7.100000000000000755e-02 1.735920000000000241e-01 1.882869999999999777e+01 8.458119999999999550e+01 2.284485000000000127e+03
7.200000000000000844e-02 1.737150000000000083e-01 2.027070000000000149e+01 8.820455000000001178e+01 2.285630000000000109e+03
7.300000000000000933e-02 1.738294999999999979e-01 2.156625000000000014e+01 9.157880000000000109e+01 2.286694999999999709e+03
7.399999999999999634e-02 1.739379999999999815e-01 2.274504999999999910e+01 9.480944999999999823e+01 2.287704999999999927e+03
7.499999999999999722e-02 1.740430000000000033e-01 2.383934999999999960e+01 9.800084999999999980e+01 2.288684999999999945e+03
7.599999999999999811e-02 1.741475000000000106e-01 2.488009999999999877e+01 1.012435499999999990e+02 2.289649999999999636e+03
7.699999999999999900e-02 1.742540000000000200e-01 2.589355000000000118e+01 1.046075000000000017e+02 2.290639999999999873e+03
7.799999999999999989e-02 1.743635000000000046e-01 2.689920000000000044e+01 1.081334999999999980e+02 2.291655000000000200e+03
7.900000000000000078e-02 1.744769999999999932e-01 2.790830000000000055e+01 1.118340000000000032e+02 2.292704999999999927e+03
8.000000000000000167e-02 1.745944999999999858e-01 2.892360000000000042e+01 1.156924999999999955e+02 2.293789999999999964e+03
8.100000000000000255e-02 1.747160000000000102e-01 2.993955000000000055e+01 1.196689999999999969e+02 2.294914999999999964e+03
8.200000000000000344e-02 1.748405000000000098e-01 3.094355000000000189e+01 1.237025000000000006e+02 2.296065000000000055e+03
8.300000000000000433e-02 1.749649999999999817e-01 3.191720000000000113e+01 1.277199999999999989e+02 2.297224999999999909e+03
8.400000000000000522e-02 1.750885000000000080e-01 3.283829999999999671e+01 1.316394999999999982e+02 2.298369999999999891e+03
8.500000000000000611e-02 1.752084999999999892e-01 3.368229999999999791e+01 1.353795000000000073e+02 2.299484999999999673e+03
8.600000000000000699e-02 1.753224999999999922e-01 3.442414999999999736e+01 1.388609999999999900e+02 2.300539999999999964e+03
8.700000000000000788e-02 1.754284999999999872e-01 3.504035000000000366e+01 1.420124999999999886e+02 2.301534999999999854e+03
8.800000000000000877e-02 1.755245000000000000e-01 3.551005000000000678e+01 1.447754999999999939e+02 2.302434999999999945e+03
8.899999999999999578e-02 1.756090000000000151e-01 3.581669999999999732e+01 1.471055000000000064e+02 2.303224999999999909e+03
8.999999999999999667e-02 1.756800000000000028e-01 3.594920000000000471e+01 1.489749999999999943e+02 2.303900000000000091e+03
9.099999999999999756e-02 1.757380000000000053e-01 3.590250000000000341e+01 1.503740000000000236e+02 2.304449999999999818e+03
9.199999999999999845e-02 1.757819999999999938e-01 3.567815000000000225e+01 1.513109999999999786e+02 2.304875000000000000e+03
9.299999999999999933e-02 1.758124999999999827e-01 3.528409999999999513e+01 1.518120000000000118e+02 2.305175000000000182e+03
9.400000000000000022e-02 1.758305000000000007e-01 3.473444999999999538e+01 1.519189999999999827e+02 2.305355000000000018e+03
9.500000000000000111e-02 1.758370000000000211e-01 3.404850000000000421e+01 1.516845000000000141e+02 2.305429999999999836e+03
9.600000000000000200e-02 1.758339999999999903e-01 3.324939999999999429e+01 1.511719999999999970e+02 2.305409999999999854e+03
9.700000000000000289e-02 1.758219999999999783e-01 3.236319999999999908e+01 1.504495000000000005e+02 2.305319999999999709e+03
9.800000000000000377e-02 1.758045000000000024e-01 3.141714999999999947e+01 1.495854999999999961e+02 2.305164999999999964e+03
9.900000000000000466e-02 1.757825000000000082e-01 3.043844999999999956e+01 1.486474999999999795e+02 2.304969999999999800e+03
1.000000000000000056e-01 1.757584999999999842e-01 2.945315000000000083e+01 1.476960000000000264e+02 2.304750000000000000e+03
1.010000000000000064e-01 1.757334999999999869e-01 2.848454999999999870e+01 1.467855000000000132e+02 2.304519999999999982e+03
1.020000000000000073e-01 1.757090000000000041e-01 2.755284999999999940e+01 1.459585000000000150e+02 2.304295000000000073e+03
1.030000000000000082e-01 1.756874999999999964e-01 2.667389999999999972e+01 1.452475000000000023e+02 2.304085000000000036e+03
1.040000000000000091e-01 1.756685000000000052e-01 2.585869999999999891e+01 1.446719999999999970e+02 2.303904999999999745e+03
1.050000000000000100e-01 1.756530000000000036e-01 2.511315000000000097e+01 1.442379999999999995e+02 2.303760000000000218e+03
1.059999999999999970e-01 1.756405000000000050e-01 2.443780000000000285e+01 1.439375000000000000e+02 2.303640000000000327e+03
1.069999999999999979e-01 1.756320000000000103e-01 2.382809999999999917e+01 1.437520000000000095e+02 2.303554999999999836e+03
1.079999999999999988e-01 1.756260000000000043e-01 2.327495000000000047e+01 1.436504999999999939e+02 2.303494999999999891e+03
1.089999999999999997e-01 1.756220000000000003e-01 2.276520000000000010e+01 1.435935000000000059e+02 2.303449999999999818e+03
1.100000000000000006e-01 1.756185000000000107e-01 2.228314999999999912e+01 1.435360000000000014e+02 2.303414999999999964e+03
1.110000000000000014e-01 1.756150000000000211e-01 2.181125000000000114e+01 1.434300000000000068e+02 2.303375000000000000e+03
1.120000000000000023e-01 1.756099999999999883e-01 2.133165000000000333e+01 1.432289999999999850e+02 2.303324999999999818e+03
1.130000000000000032e-01 1.756014999999999937e-01 2.082744999999999891e+01 1.428884999999999934e+02 2.303250000000000000e+03
1.140000000000000041e-01 1.755885000000000085e-01 2.028395000000000081e+01 1.423745000000000118e+02 2.303125000000000000e+03
1.150000000000000050e-01 1.755704999999999905e-01 1.968975000000000009e+01 1.416610000000000014e+02 2.302965000000000146e+03
1.160000000000000059e-01 1.755470000000000086e-01 1.903744999999999976e+01 1.407350000000000136e+02 2.302744999999999891e+03
1.170000000000000068e-01 1.755174999999999930e-01 1.832450000000000045e+01 1.395960000000000036e+02 2.302480000000000018e+03
1.180000000000000077e-01 1.754819999999999991e-01 1.755300000000000082e+01 1.382584999999999980e+02 2.302150000000000091e+03
1.190000000000000085e-01 1.754410000000000136e-01 1.673004999999999853e+01 1.367479999999999905e+02 2.301769999999999982e+03
1.200000000000000094e-01 1.753945000000000087e-01 1.586689999999999934e+01 1.351020000000000039e+02 2.301349999999999909e+03
1.209999999999999964e-01 1.753450000000000009e-01 1.497845000000000049e+01 1.333665000000000020e+02 2.300900000000000091e+03
1.219999999999999973e-01 1.752934999999999910e-01 1.408225000000000016e+01 1.315930000000000177e+02 2.300420000000000073e+03
1.229999999999999982e-01 1.752404999999999935e-01 1.319730000000000025e+01 1.298349999999999795e+02 2.299930000000000291e+03
1.239999999999999991e-01 1.751889999999999836e-01 1.234295000000000009e+01 1.281469999999999914e+02 2.299454999999999927e+03
1.250000000000000000e-01 1.751395000000000035e-01 1.153742500000000071e+01 1.265764999999999958e+02 2.298989999999999782e+03
1.260000000000000009e-01 1.750929999999999986e-01 1.079740500000000125e+01 1.251664999999999992e+02 2.298560000000000400e+03
1.270000000000000018e-01 1.750514999999999988e-01 1.013639500000000027e+01 1.239505000000000052e+02 2.298170000000000073e+03
1.280000000000000027e-01 1.750149999999999761e-01 9.564775000000000915e+00 1.229499999999999886e+02 2.297824999999999818e+03
1.290000000000000036e-01 1.749850000000000017e-01 9.088905000000000456e+00 1.221790000000000020e+02 2.297545000000000073e+03
1.300000000000000044e-01 1.749620000000000064e-01 8.711339999999999861e+00 1.216380000000000052e+02 2.297324999999999818e+03
1.310000000000000053e-01 1.749455000000000038e-01 8.430824999999998681e+00 1.213195000000000050e+02 2.297159999999999854e+03
1.320000000000000062e-01 1.749350000000000072e-01 8.242599999999999483e+00 1.212059999999999889e+02 2.297055000000000291e+03
1.330000000000000071e-01 1.749300000000000022e-01 8.138905000000001166e+00 1.212750000000000057e+02 2.297005000000000109e+03
1.340000000000000080e-01 1.749310000000000032e-01 8.109524999999999650e+00 1.214969999999999999e+02 2.297005000000000109e+03
1.350000000000000089e-01 1.749360000000000082e-01 8.142469999999999430e+00 1.218400000000000034e+02 2.297045000000000073e+03
1.360000000000000098e-01 1.749450000000000172e-01 8.224534999999999485e+00 1.222710000000000008e+02 2.297114999999999782e+03
1.370000000000000107e-01 1.749560000000000004e-01 8.342010000000000147e+00 1.227560000000000002e+02 2.297215000000000146e+03
1.380000000000000115e-01 1.749684999999999990e-01 8.481220000000000425e+00 1.232624999999999886e+02 2.297324999999999818e+03
1.390000000000000124e-01 1.749819999999999987e-01 8.629084999999999894e+00 1.237609999999999957e+02 2.297449999999999818e+03
1.400000000000000133e-01 1.749954999999999983e-01 8.773595000000000255e+00 1.242254999999999967e+02 2.297570000000000164e+03
1.410000000000000142e-01 1.750074999999999825e-01 8.904220000000000468e+00 1.246340000000000003e+02 2.297684999999999945e+03
1.420000000000000151e-01 1.750189999999999801e-01 9.012219999999999231e+00 1.249694999999999965e+02 2.297784999999999854e+03
1.430000000000000160e-01 1.750275000000000025e-01 9.090930000000000177e+00 1.252199999999999989e+02 2.297869999999999891e+03
1.440000000000000169e-01 1.750344999999999818e-01 9.135854999999999393e+00 1.253789999999999907e+02 2.297930000000000291e+03
1.450000000000000178e-01 1.750384999999999858e-01 9.144764999999999588e+00 1.254455000000000098e+02 2.297974999999999909e+03
1.459999999999999909e-01 1.750404999999999878e-01 9.117589999999999861e+00 1.254244999999999948e+02 2.297994999999999891e+03
1.469999999999999918e-01 1.750400000000000011e-01 9.056255000000000166e+00 1.253225000000000051e+02 2.297989999999999782e+03
1.479999999999999927e-01 1.750369999999999981e-01 8.964399999999999480e+00 1.251539999999999964e+02 2.297965000000000146e+03
1.489999999999999936e-01 1.750320000000000209e-01 8.847010000000000929e+00 1.249320000000000022e+02 2.297925000000000182e+03
1.499999999999999944e-01 1.750260000000000149e-01 8.709959999999998814e+00 1.246740000000000066e+02 2.297869999999999891e+03
1.509999999999999953e-01 1.750189999999999801e-01 8.559575000000000600e+00 1.243954999999999984e+02 2.297805000000000291e+03
1.519999999999999962e-01 1.750109999999999999e-01 8.402124999999999844e+00 1.241134999999999877e+02 2.297734999999999673e+03
1.529999999999999971e-01 1.750029999999999919e-01 8.243425000000000225e+00 1.238404999999999916e+02 2.297664999999999964e+03
1.539999999999999980e-01 1.749955000000000260e-01 8.088454999999999728e+00 1.235879999999999939e+02 2.297600000000000364e+03
1.549999999999999989e-01 1.749890000000000057e-01 7.941124999999999545e+00 1.233624999999999972e+02 2.297529999999999745e+03
1.559999999999999998e-01 1.749824999999999853e-01 7.804095000000000226e+00 1.231680000000000064e+02 2.297474999999999909e+03
1.570000000000000007e-01 1.749769999999999937e-01 7.678779999999999717e+00 1.230045000000000073e+02 2.297420000000000073e+03
1.580000000000000016e-01 1.749719999999999887e-01 7.565390000000000725e+00 1.228700000000000045e+02 2.297380000000000109e+03
1.590000000000000024e-01 1.749680000000000124e-01 7.463129999999999598e+00 1.227579999999999956e+02 2.297340000000000146e+03
