# t [s], A [cm^2], U [cm/s], P [cPa], c [cm/s]
1.000000000000000021e-03 1.380135000000000112e-01 2.974895000000000178e-01 9.781754999999999711e+01 1.805059999999999945e+03
2.000000000000000042e-03 1.379930000000000045e-01 1.780794999999999906e+00 9.494185000000000230e+01 1.804844999999999800e+03
3.000000000000000062e-03 1.379084999999999894e-01 3.588662000000000241e+00 9.125159999999999627e+01 1.804025000000000091e+03
4.000000000000000083e-03 1.377800000000000136e-01 5.580897000000000219e+00 8.714279999999999404e+01 1.802779999999999973e+03
5.000000000000000104e-03 1.376290000000000013e-01 7.707985000000000753e+00 8.325700000000000500e+01 1.801335000000000036e+03
6.000000000000000125e-03 1.374730000000000119e-01 9.877710000000000434e+00 7.994255000000001132e+01 1.799860000000000127e+03
7.000000000000000146e-03 1.373205000000000120e-01 1.195170000000000066e+01 7.718999999999999773e+01 1.798434999999999945e+03
8.000000000000000167e-03 1.371760000000000201e-01 1.381590999999999880e+01 7.481499999999999773e+01 1.797099999999999909e+03
9.000000000000001055e-03 1.370419999999999972e-01 1.543755999999999950e+01 7.270515000000000327e+01 1.795880000000000109e+03
1.000000000000000194e-02 1.369210000000000149e-01 1.683720000000000283e+01 7.087335000000000207e+01 1.794789999999999964e+03
1.099999999999999936e-02 1.368150000000000199e-01 1.803524999999999778e+01 6.934635000000000105e+01 1.793844999999999800e+03
1.200000000000000025e-02 1.367240000000000122e-01 1.904080000000000084e+01 6.810490000000000066e+01 1.793039999999999964e+03
1.300000000000000114e-02 1.366469999999999907e-01 1.986079999999999757e+01 6.710439999999999827e+01 1.792375000000000000e+03
1.400000000000000203e-02 1.365830000000000100e-01 2.050144999999999840e+01 6.629179999999999495e+01 1.791819999999999936e+03
1.499999999999999944e-02 1.365299999999999847e-01 2.097025000000000006e+01 6.560945000000000960e+01 1.791369999999999891e+03
1.600000000000000033e-02 1.364855000000000096e-01 2.128840000000000288e+01 6.502145000000000152e+01 1.791000000000000000e+03
1.700000000000000122e-02 1.364484999999999726e-01 2.150384999999999991e+01 6.455644999999999811e+01 1.790699999999999818e+03
1.800000000000000211e-02 1.364215000000000011e-01 2.168975000000000009e+01 6.432425000000000637e+01 1.790485000000000127e+03
1.900000000000000300e-02 1.364074999999999871e-01 2.192350000000000065e+01 6.447884999999999422e+01 1.790384999999999991e+03
2.000000000000000042e-02 1.364104999999999901e-01 2.225880000000000081e+01 6.514629999999999654e+01 1.790420000000000073e+03
2.100000000000000130e-02 1.364319999999999977e-01 2.270624999999999716e+01 6.635685000000000855e+01 1.790619999999999891e+03
2.200000000000000219e-02 1.364699999999999802e-01 2.323040000000000305e+01 6.801585000000000036e+01 1.790970000000000027e+03
2.299999999999999961e-02 1.365230000000000055e-01 2.376254999999999740e+01 6.992255000000000109e+01 1.791444999999999936e+03
2.400000000000000050e-02 1.365834999999999966e-01 2.422254999999999825e+01 7.182365000000000066e+01 1.791990000000000009e+03
2.500000000000000139e-02 1.366439999999999877e-01 2.454124999999999801e+01 7.347910000000000252e+01 1.792545000000000073e+03
2.600000000000000228e-02 1.366995000000000016e-01 2.467650000000000077e+01 7.471764999999999191e+01 1.793050000000000182e+03
2.700000000000000316e-02 1.367444999999999911e-01 2.461965000000000003e+01 7.546760000000000446e+01 1.793470000000000027e+03
2.800000000000000058e-02 1.367764999999999953e-01 2.439235000000000042e+01 7.575769999999999982e+01 1.793779999999999973e+03
2.900000000000000147e-02 1.367974999999999886e-01 2.403529999999999944e+01 7.569214999999999804e+01 1.793980000000000018e+03
3.000000000000000236e-02 1.368074999999999986e-01 2.359485000000000099e+01 7.540964999999999918e+01 1.794090000000000146e+03
3.099999999999999978e-02 1.368115000000000026e-01 2.310994999999999777e+01 7.504189999999999827e+01 1.794134999999999991e+03
3.200000000000000067e-02 1.368105000000000016e-01 2.260444999999999993e+01 7.468149999999999977e+01 1.794134999999999991e+03
3.300000000000000155e-02 1.368079999999999852e-01 2.208514999999999873e+01 7.436750000000000682e+01 1.794119999999999891e+03
3.400000000000000244e-02 1.368034999999999946e-01 2.154489999999999839e+01 7.408895000000001119e+01 1.794085000000000036e+03
3.500000000000000333e-02 1.367980000000000029e-01 2.097025000000000006e+01 7.380169999999999675e+01 1.794039999999999964e+03
3.600000000000000422e-02 1.367904999999999816e-01 2.034895000000000209e+01 7.345320000000000960e+01 1.793974999999999909e+03
3.700000000000000511e-02 1.367794999999999983e-01 1.967774999999999963e+01 7.300575000000000614e+01 1.793884999999999991e+03
3.799999999999999906e-02 1.367649999999999977e-01 1.896640000000000015e+01 7.245454999999999757e+01 1.793759999999999991e+03
3.899999999999999994e-02 1.367474999999999941e-01 1.823835000000000051e+01 7.183504999999999541e+01 1.793610000000000127e+03
4.000000000000000083e-02 1.367280000000000162e-01 1.752824999999999989e+01 7.121875000000000000e+01 1.793440000000000055e+03
4.100000000000000172e-02 1.367094999999999838e-01 1.687570000000000192e+01 7.070005000000000450e+01 1.793275000000000091e+03
4.200000000000000261e-02 1.366940000000000099e-01 1.631794999999999973e+01 7.037600000000000477e+01 1.793139999999999873e+03
4.300000000000000350e-02 1.366850000000000009e-01 1.588335000000000008e+01 7.032574999999999932e+01 1.793049999999999955e+03
4.400000000000000439e-02 1.366835000000000133e-01 1.558549999999999969e+01 7.059270000000000778e+01 1.793034999999999854e+03
4.499999999999999833e-02 1.366924999999999946e-01 1.542115000000000080e+01 7.117535000000000878e+01 1.793105000000000018e+03
4.599999999999999922e-02 1.367099999999999982e-01 1.537044999999999995e+01 7.202549999999999386e+01 1.793255000000000109e+03
4.700000000000000011e-02 1.367359999999999964e-01 1.540034999999999954e+01 7.305594999999999573e+01 1.793485000000000127e+03
4.800000000000000100e-02 1.367680000000000007e-01 1.546940000000000026e+01 7.415359999999999729e+01 1.793759999999999991e+03
4.900000000000000189e-02 1.368024999999999936e-01 1.553304999999999936e+01 7.519589999999999463e+01 1.794059999999999945e+03
5.000000000000000278e-02 1.368360000000000132e-01 1.554919999999999902e+01 7.606704999999999472e+01 1.794355000000000018e+03
5.100000000000000366e-02 1.368645000000000000e-01 1.548240000000000016e+01 7.667079999999999984e+01 1.794609999999999900e+03
5.200000000000000455e-02 1.368860000000000077e-01 1.530620000000000047e+01 7.693959999999999866e+01 1.794799999999999955e+03
5.300000000000000544e-02 1.368975000000000053e-01 1.500459999999999994e+01 7.683780000000000143e+01 1.794900000000000091e+03
5.399999999999999939e-02 1.368969999999999909e-01 1.457140000000000057e+01 7.636079999999999757e+01 1.794909999999999854e+03
5.500000000000000028e-02 1.368850000000000067e-01 1.400914999999999999e+01 7.553000000000000114e+01 1.794805000000000064e+03
5.600000000000000117e-02 1.368614999999999970e-01 1.332740000000000080e+01 7.438650000000001228e+01 1.794599999999999909e+03
5.700000000000000205e-02 1.368270000000000042e-01 1.254050000000000153e+01 7.298345000000000482e+01 1.794300000000000182e+03
5.800000000000000294e-02 1.367825000000000013e-01 1.166594500000000068e+01 7.137999999999999545e+01 1.793905000000000200e+03
5.900000000000000383e-02 1.367304999999999771e-01 1.072362500000000018e+01 6.963615000000000066e+01 1.793444999999999936e+03
6.000000000000000472e-02 1.366725000000000023e-01 9.734365000000000379e+00 6.781000000000000227e+01 1.792929999999999836e+03
6.099999999999999867e-02 1.366094999999999948e-01 8.720179999999999154e+00 6.595654999999999291e+01 1.792369999999999891e+03
6.199999999999999956e-02 1.365445000000000131e-01 7.703894999999999271e+00 6.412800000000000011e+01 1.791795000000000073e+03
6.300000000000000044e-02 1.364789999999999892e-01 6.709295000000000009e+00 6.237460000000000093e+01 1.791210000000000036e+03
6.400000000000000133e-02 1.364144999999999941e-01 5.761105000000000587e+00 6.074569999999999936e+01 1.790634999999999991e+03
6.500000000000000222e-02 1.363534999999999886e-01 4.884774999999999423e+00 5.929039999999999822e+01 1.790090000000000146e+03
6.600000000000000311e-02 1.362974999999999881e-01 4.106035000000000323e+00 5.805764999999999532e+01 1.789590000000000146e+03
6.700000000000000400e-02 1.362479999999999802e-01 3.450255000000000294e+00 5.709555000000000291e+01 1.789150000000000091e+03
6.800000000000000488e-02 1.362079999999999957e-01 2.941535000000000011e+00 5.644989999999999952e+01 1.788779999999999973e+03
6.900000000000000577e-02 1.361784999999999801e-01 2.601720000000000255e+00 5.616190000000000282e+01 1.788509999999999991e+03
7.000000000000000666e-02 1.361605000000000176e-01 2.449355000000000171e+00 5.626635000000000275e+01 1.788345000000000027e+03
7.100000000000000755e-02 1.361565000000000136e-01 2.498755000000000059e+00 5.678905000000000314e+01 1.788289999999999964e+03
7.200000000000000844e-02 1.361674999999999969e-01 2.759220000000000006e+00 5.774524999999999864e+01 1.788380000000000109e+03
7.300000000000000933e-02 1.361930000000000085e-01 3.234550000000000036e+00 5.913830000000000098e+01 1.788590000000000146e+03
7.399999999999999634e-02 1.362345000000000084e-01 3.922785000000000188e+00 6.095900000000000318e+01 1.788944999999999936e+03
7.499999999999999722e-02 1.362909999999999955e-01 4.816310000000000535e+00 6.318629999999999569e+01 1.789440000000000055e+03
7.599999999999999811e-02 1.363634999999999986e-01 5.902204999999999480e+00 6.578775000000000261e+01 1.790065000000000055e+03
7.699999999999999900e-02 1.364495000000000013e-01 7.162869999999999848e+00 6.872150000000000603e+01 1.790824999999999818e+03
7.799999999999999989e-02 1.365490000000000037e-01 8.576920000000001210e+00 7.193854999999999222e+01 1.791690000000000055e+03
7.900000000000000078e-02 1.366594999999999893e-01 1.012002000000000024e+01 7.538489999999998759e+01 1.792670000000000073e+03
8.000000000000000167e-02 1.367794999999999983e-01 1.176593499999999892e+01 7.900419999999999732e+01 1.793735000000000127e+03
8.100000000000000255e-02 1.369080000000000019e-01 1.348770500000000006e+01 8.274060000000000059e+01 1.794875000000000000e+03
8.200000000000000344e-02 1.370419999999999972e-01 1.525854999999999961e+01 8.654064999999999941e+01 1.796069999999999936e+03
8.300000000000000433e-02 1.371799999999999964e-01 1.705294999999999916e+01 9.035569999999999879e+01 1.797305000000000064e+03
8.400000000000000522e-02 1.373209999999999986e-01 1.884714999999999918e+01 9.414359999999999218e+01 1.798565000000000055e+03
8.500000000000000611e-02 1.374620000000000009e-01 2.062004999999999910e+01 9.786905000000000143e+01 1.799835000000000036e+03
8.600000000000000699e-02 1.376025000000000165e-01 2.235374999999999801e+01 1.015061500000000052e+02 1.801105000000000018e+03
8.700000000000000788e-02 1.377420000000000033e-01 2.403345000000000198e+01 1.050366500000000087e+02 1.802360000000000127e+03
8.800000000000000877e-02 1.378785000000000149e-01 2.564789999999999992e+01 1.084495000000000005e+02 1.803599999999999909e+03
8.899999999999999578e-02 1.380119999999999958e-01 2.718905000000000172e+01 1.117419999999999902e+02 1.804815000000000055e+03
8.999999999999999667e-02 1.381419999999999870e-01 2.865184999999999960e+01 1.149164999999999992e+02 1.806000000000000000e+03
9.099999999999999756e-02 1.382684999999999886e-01 3.003379999999999939e+01 1.179805000000000064e+02 1.807154999999999973e+03
9.199999999999999845e-02 1.383915000000000006e-01 3.133455000000000013e+01 1.209445000000000050e+02 1.808280000000000200e+03
9.299999999999999933e-02 1.385109999999999952e-01 3.255519999999999925e+01 1.238209999999999980e+02 1.809380000000000109e+03
9.400000000000000022e-02 1.386280000000000012e-01 3.369794999999999874e+01 1.266204999999999927e+02 1.810454999999999927e+03
9.500000000000000111e-02 1.387420000000000042e-01 3.476569999999999538e+01 1.293539999999999850e+02 1.811505000000000109e+03
9.600000000000000200e-02 1.388535000000000186e-01 3.576109999999999900e+01 1.320305000000000177e+02 1.812529999999999973e+03
9.700000000000000289e-02 1.389635000000000176e-01 3.668680000000000518e+01 1.346560000000000059e+02 1.813539999999999964e+03
9.800000000000000377e-02 1.390704999999999858e-01 3.754460000000000264e+01 1.372319999999999993e+02 1.814529999999999973e+03
9.900000000000000466e-02 1.391759999999999942e-01 3.833585000000000065e+01 1.397574999999999932e+02 1.815505000000000109e+03
1.000000000000000056e-01 1.392789999999999861e-01 3.906074999999999875e+01 1.422289999999999850e+02 1.816460000000000036e+03
1.010000000000000064e-01 1.393804999999999905e-01 3.971880000000000166e+01 1.446384999999999934e+02 1.817400000000000091e+03
1.020000000000000073e-01 1.394790000000000196e-01 4.030854999999999677e+01 1.469759999999999991e+02 1.818315000000000055e+03
1.030000000000000082e-01 1.395755000000000190e-01 4.082795000000000130e+01 1.492305000000000064e+02 1.819204999999999927e+03
1.040000000000000091e-01 1.396685000000000010e-01 4.127425000000000210e+01 1.513874999999999886e+02 1.820069999999999936e+03
1.050000000000000100e-01 1.397579999999999933e-01 4.164435000000000286e+01 1.534339999999999975e+02 1.820904999999999973e+03
1.059999999999999970e-01 1.398435000000000095e-01 4.193500000000000227e+01 1.553569999999999993e+02 1.821700000000000045e+03
1.069999999999999979e-01 1.399239999999999928e-01 4.214280000000000115e+01 1.571410000000000196e+02 1.822454999999999927e+03
1.079999999999999988e-01 1.400004999999999999e-01 4.226470000000000482e+01 1.587744999999999891e+02 1.823164999999999964e+03
1.089999999999999997e-01 1.400704999999999867e-01 4.229800000000000182e+01 1.602470000000000141e+02 1.823824999999999818e+03
1.100000000000000006e-01 1.401350000000000096e-01 4.224040000000000106e+01 1.615475000000000136e+02 1.824429999999999836e+03
1.110000000000000014e-01 1.401934999999999987e-01 4.209060000000000201e+01 1.626700000000000159e+02 1.824974999999999909e+03
1.120000000000000023e-01 1.402450000000000085e-01 4.184810000000000230e+01 1.636100000000000136e+02 1.825460000000000036e+03
1.130000000000000032e-01 1.402904999999999847e-01 4.151324999999999932e+01 1.643634999999999877e+02 1.825890000000000100e+03
1.140000000000000041e-01 1.403280000000000083e-01 4.108774999999999977e+01 1.649325000000000045e+02 1.826250000000000000e+03
1.150000000000000050e-01 1.403594999999999982e-01 4.057434999999999548e+01 1.653199999999999932e+02 1.826545000000000073e+03
1.160000000000000059e-01 1.403829999999999800e-01 3.997695000000000221e+01 1.655310000000000059e+02 1.826775000000000091e+03
1.170000000000000068e-01 1.404004999999999836e-01 3.930079999999999529e+01 1.655740000000000123e+02 1.826945000000000164e+03
1.180000000000000077e-01 1.404114999999999946e-01 3.855205000000000126e+01 1.654615000000000009e+02 1.827055000000000064e+03
1.190000000000000085e-01 1.404159999999999853e-01 3.773799999999999955e+01 1.652044999999999959e+02 1.827105000000000018e+03
1.200000000000000094e-01 1.404150000000000120e-01 3.686664999999999992e+01 1.648204999999999814e+02 1.827105000000000018e+03
1.209999999999999964e-01 1.404079999999999773e-01 3.594684999999999775e+01 1.643235000000000241e+02 1.827045000000000073e+03
1.219999999999999973e-01 1.403969999999999940e-01 3.498760000000000048e+01 1.637305000000000064e+02 1.826954999999999927e+03
1.229999999999999982e-01 1.403814999999999924e-01 3.399839999999999662e+01 1.630595000000000141e+02 1.826815000000000055e+03
1.239999999999999991e-01 1.403625000000000012e-01 3.298845000000000027e+01 1.623280000000000030e+02 1.826644999999999982e+03
1.250000000000000000e-01 1.403405000000000069e-01 3.196665000000000134e+01 1.615509999999999877e+02 1.826444999999999936e+03
1.260000000000000009e-01 1.403159999999999963e-01 3.094160000000000110e+01 1.607434999999999832e+02 1.826220000000000027e+03
1.270000000000000018e-01 1.402895000000000114e-01 2.992079999999999984e+01 1.599180000000000064e+02 1.825980000000000018e+03
1.280000000000000027e-01 1.402619999999999978e-01 2.891125000000000256e+01 1.590869999999999891e+02 1.825724999999999909e+03
1.290000000000000036e-01 1.402329999999999965e-01 2.791864999999999952e+01 1.582579999999999814e+02 1.825460000000000036e+03
1.300000000000000044e-01 1.402039999999999953e-01 2.694754999999999967e+01 1.574379999999999882e+02 1.825190000000000055e+03
1.310000000000000053e-01 1.401745000000000074e-01 2.600150000000000006e+01 1.566310000000000002e+02 1.824914999999999964e+03
1.320000000000000062e-01 1.401450000000000196e-01 2.508265000000000100e+01 1.558385000000000105e+02 1.824639999999999873e+03
1.330000000000000071e-01 1.401160000000000183e-01 2.419214999999999804e+01 1.550600000000000023e+02 1.824369999999999891e+03
1.340000000000000080e-01 1.400865000000000027e-01 2.332995000000000019e+01 1.542924999999999898e+02 1.824095000000000027e+03
1.350000000000000089e-01 1.400569999999999871e-01 2.249490000000000123e+01 1.535324999999999989e+02 1.823820000000000164e+03
1.360000000000000098e-01 1.400279999999999858e-01 2.168515000000000015e+01 1.527735000000000127e+02 1.823545000000000073e+03
1.370000000000000107e-01 1.399985000000000257e-01 2.089804999999999779e+01 1.520079999999999814e+02 1.823275000000000091e+03
1.380000000000000115e-01 1.399684999999999957e-01 2.013025000000000020e+01 1.512295000000000016e+02 1.822990000000000009e+03
1.390000000000000124e-01 1.399380000000000068e-01 1.937814999999999799e+01 1.504300000000000068e+02 1.822710000000000036e+03
1.400000000000000133e-01 1.399070000000000036e-01 1.863790000000000191e+01 1.496009999999999991e+02 1.822414999999999964e+03
1.410000000000000142e-01 1.398745000000000127e-01 1.790545000000000186e+01 1.487344999999999970e+02 1.822115000000000009e+03
1.420000000000000151e-01 1.398405000000000065e-01 1.717715000000000103e+01 1.478234999999999957e+02 1.821799999999999955e+03
1.430000000000000160e-01 1.398054999999999992e-01 1.644924999999999926e+01 1.468625000000000114e+02 1.821474999999999909e+03
1.440000000000000169e-01 1.397685000000000177e-01 1.571889999999999965e+01 1.458460000000000036e+02 1.821134999999999991e+03
1.450000000000000178e-01 1.397300000000000209e-01 1.498354999999999926e+01 1.447719999999999914e+02 1.820775000000000091e+03
1.459999999999999909e-01 1.396884999999999932e-01 1.424145000000000039e+01 1.436374999999999886e+02 1.820389999999999873e+03
1.469999999999999918e-01 1.396455000000000057e-01 1.349160000000000004e+01 1.424445000000000050e+02 1.819994999999999891e+03
1.479999999999999927e-01 1.396000000000000019e-01 1.273395000000000010e+01 1.411929999999999836e+02 1.819575000000000045e+03
1.489999999999999936e-01 1.395525000000000237e-01 1.196922999999999959e+01 1.398894999999999982e+02 1.819134999999999991e+03
1.499999999999999944e-01 1.395029999999999881e-01 1.119915999999999912e+01 1.385380000000000109e+02 1.818684999999999945e+03
1.509999999999999953e-01 1.394515000000000060e-01 1.042629499999999965e+01 1.371480000000000246e+02 1.818210000000000036e+03
1.519999999999999962e-01 1.393984999999999808e-01 9.653954999999999842e+00 1.357270000000000039e+02 1.817724999999999909e+03
1.529999999999999971e-01 1.393445000000000100e-01 8.886109999999998621e+00 1.342870000000000061e+02 1.817224999999999909e+03
1.539999999999999980e-01 1.392889999999999961e-01 8.127330000000000609e+00 1.328389999999999986e+02 1.816715000000000146e+03
1.549999999999999989e-01 1.392335000000000100e-01 7.382550000000000168e+00 1.313949999999999818e+02 1.816204999999999927e+03
1.559999999999999998e-01 1.391779999999999962e-01 6.656880000000000130e+00 1.299670000000000130e+02 1.815690000000000055e+03
1.570000000000000007e-01 1.391219999999999957e-01 5.955510000000000304e+00 1.285670000000000073e+02 1.815184999999999945e+03
1.580000000000000016e-01 1.390675000000000106e-01 5.283434999999999881e+00 1.272055000000000007e+02 1.814680000000000064e+03
1.590000000000000024e-01 1.390139999999999987e-01 4.645349999999999646e+00 1.258940000000000055e+02 1.814184999999999945e+03
