# t [s], A [cm^2], U [cm/s], P [cPa], c [cm/s]
1.000000000000000021e-03 1.717604999999999826e-01 2.418909999999999949e-01 9.295279999999999632e+01 2.263059999999999945e+03
2.000000000000000042e-03 1.717154999999999931e-01 1.614575000000000093e+00 8.970615000000000805e+01 2.262579999999999927e+03
3.000000000000000062e-03 1.715995000000000159e-01 3.360473499999999891e+00 8.503220000000000312e+01 2.261404999999999745e+03
4.000000000000000083e-03 1.714450000000000141e-01 5.361973499999999504e+00 7.991235000000000355e+01 2.259860000000000127e+03
5.000000000000000104e-03 1.712834999999999774e-01 7.538344999999999629e+00 7.535320000000000107e+01 2.258264999999999873e+03
6.000000000000000125e-03 1.711309999999999776e-01 9.674879999999999924e+00 7.163130000000001019e+01 2.256779999999999745e+03
7.000000000000000146e-03 1.709895000000000165e-01 1.152381499999999903e+01 6.838540000000000418e+01 2.255425000000000182e+03
8.000000000000000167e-03 1.708614999999999995e-01 1.303421499999999966e+01 6.543335000000000434e+01 2.254224999999999909e+03
9.000000000000001055e-03 1.707515000000000005e-01 1.426555000000000106e+01 6.292189999999999372e+01 2.253210000000000036e+03
1.000000000000000194e-02 1.706610000000000071e-01 1.524949999999999939e+01 6.091910000000000025e+01 2.252385000000000218e+03
1.099999999999999936e-02 1.705899999999999916e-01 1.600819999999999865e+01 5.938755000000000450e+01 2.251744999999999891e+03
1.200000000000000025e-02 1.705349999999999921e-01 1.655290000000000106e+01 5.823640000000000327e+01 2.251255000000000109e+03
1.300000000000000114e-02 1.704915000000000180e-01 1.687470000000000070e+01 5.728414999999999679e+01 2.250875000000000000e+03
1.400000000000000203e-02 1.704539999999999944e-01 1.700999999999999801e+01 5.640954999999999586e+01 2.250559999999999945e+03
1.499999999999999944e-02 1.704265000000000085e-01 1.710394999999999754e+01 5.580540000000000589e+01 2.250329999999999927e+03
1.600000000000000033e-02 1.704195000000000015e-01 1.736570000000000036e+01 5.597050000000000125e+01 2.250275000000000091e+03
1.700000000000000122e-02 1.704439999999999844e-01 1.794120000000000203e+01 5.737080000000000268e+01 2.250500000000000000e+03
1.800000000000000211e-02 1.705030000000000157e-01 1.881425000000000125e+01 6.005649999999999977e+01 2.251039999999999964e+03
1.900000000000000300e-02 1.705885000000000040e-01 1.980555000000000021e+01 6.353240000000000265e+01 2.251824999999999818e+03
2.000000000000000042e-02 1.706820000000000004e-01 2.065915000000000035e+01 6.694539999999999225e+01 2.252694999999999709e+03
2.100000000000000130e-02 1.707624999999999837e-01 2.115695000000000192e+01 6.944774999999999920e+01 2.253470000000000255e+03
2.200000000000000219e-02 1.708140000000000214e-01 2.120320000000000249e+01 7.053284999999999627e+01 2.253984999999999673e+03
2.299999999999999961e-02 1.708315000000000250e-01 2.084555000000000291e+01 7.019129999999999825e+01 2.254185000000000400e+03
2.400000000000000050e-02 1.708189999999999986e-01 2.023479999999999990e+01 6.884470000000000312e+01 2.254105000000000018e+03
2.500000000000000139e-02 1.707890000000000241e-01 1.954844999999999899e+01 6.711565000000000225e+01 2.253840000000000146e+03
2.600000000000000228e-02 1.707544999999999757e-01 1.891754999999999853e+01 6.555510000000001014e+01 2.253519999999999982e+03
2.700000000000000316e-02 1.707245000000000013e-01 1.838490000000000180e+01 6.444440000000000168e+01 2.253234999999999673e+03
2.800000000000000058e-02 1.707009999999999916e-01 1.790590000000000259e+01 6.373850000000000193e+01 2.253010000000000218e+03
2.900000000000000147e-02 1.706805000000000128e-01 1.738369999999999749e+01 6.314589999999999748e+01 2.252815000000000055e+03
3.000000000000000236e-02 1.706560000000000021e-01 1.672180000000000177e+01 6.229489999999999839e+01 2.252585000000000036e+03
3.099999999999999978e-02 1.706199999999999939e-01 1.587310000000000088e+01 6.091755000000000564e+01 2.252255000000000109e+03
3.200000000000000067e-02 1.705699999999999994e-01 1.486965000000000003e+01 5.898470000000000368e+01 2.251810000000000400e+03
3.300000000000000155e-02 1.705099999999999949e-01 1.382134999999999891e+01 5.674509999999999366e+01 2.251260000000000218e+03
3.400000000000000244e-02 1.704495000000000038e-01 1.288524999999999920e+01 5.465540000000000020e+01 2.250689999999999600e+03
3.500000000000000333e-02 1.703999999999999959e-01 1.221614999999999895e+01 5.322915000000000418e+01 2.250225000000000364e+03
3.600000000000000422e-02 1.703735000000000110e-01 1.191854999999999976e+01 5.286560000000000059e+01 2.249954999999999927e+03
3.700000000000000511e-02 1.703775000000000150e-01 1.201620000000000132e+01 5.372095000000000198e+01 2.249960000000000036e+03
3.799999999999999906e-02 1.704110000000000069e-01 1.244784999999999897e+01 5.566205000000000069e+01 2.250239999999999782e+03
3.899999999999999994e-02 1.704684999999999950e-01 1.308555000000000135e+01 5.830700000000000216e+01 2.250760000000000218e+03
4.000000000000000083e-02 1.705389999999999961e-01 1.376740000000000030e+01 6.112789999999999679e+01 2.251400000000000091e+03
4.100000000000000172e-02 1.706090000000000106e-01 1.433334999999999937e+01 6.357654999999999745e+01 2.252050000000000182e+03
4.200000000000000261e-02 1.706644999999999968e-01 1.465470000000000006e+01 6.519859999999999900e+01 2.252579999999999927e+03
4.300000000000000350e-02 1.706960000000000144e-01 1.465129999999999910e+01 6.570850000000000080e+01 2.252895000000000437e+03
4.400000000000000439e-02 1.706989999999999896e-01 1.429609999999999914e+01 6.501564999999999372e+01 2.252930000000000291e+03
4.499999999999999833e-02 1.706699999999999884e-01 1.360764999999999958e+01 6.320389999999999731e+01 2.252684999999999945e+03
4.599999999999999922e-02 1.706125000000000003e-01 1.263535999999999859e+01 6.047884999999999422e+01 2.252175000000000182e+03
4.700000000000000011e-02 1.705320000000000169e-01 1.144328499999999948e+01 5.710304999999999609e+01 2.251440000000000055e+03
4.800000000000000100e-02 1.704350000000000032e-01 1.009676999999999936e+01 5.333780000000000143e+01 2.250539999999999964e+03
4.900000000000000189e-02 1.703270000000000062e-01 8.654345000000001065e+00 4.940474999999999994e+01 2.249534999999999854e+03
5.000000000000000278e-02 1.702135000000000176e-01 7.165680000000000049e+00 4.547164999999999679e+01 2.248480000000000018e+03
5.100000000000000366e-02 1.700990000000000002e-01 5.673775000000000013e+00 4.165829999999999700e+01 2.247409999999999854e+03
5.200000000000000455e-02 1.699859999999999982e-01 4.219501000000000168e+00 3.805545000000000044e+01 2.246359999999999673e+03
5.300000000000000544e-02 1.698795000000000166e-01 2.845751499999999989e+00 3.474564999999999770e+01 2.245360000000000127e+03
5.399999999999999939e-02 1.697815000000000019e-01 1.599874999999999936e+00 3.182010000000000005e+01 2.244439999999999600e+03
5.500000000000000028e-02 1.696949999999999847e-01 5.333950000000000635e-01 2.938560000000000372e+01 2.243619999999999891e+03
5.600000000000000117e-02 1.696239999999999970e-01 -3.008000000000000673e-01 2.756130000000000280e+01 2.242944999999999709e+03
5.700000000000000205e-02 1.695720000000000005e-01 -8.530754999999998756e-01 2.646739999999999782e+01 2.242444999999999709e+03
5.800000000000000294e-02 1.695424999999999849e-01 -1.082292499999999880e+00 2.620854999999999890e+01 2.242144999999999982e+03
5.900000000000000383e-02 1.695384999999999809e-01 -9.604884999999999673e-01 2.685865000000000080e+01 2.242074999999999818e+03
6.000000000000000472e-02 1.695610000000000173e-01 -4.760245000000000171e-01 2.844835000000000136e+01 2.242260000000000218e+03
6.099999999999999867e-02 1.696110000000000118e-01 3.651250000000000329e-01 3.095945000000000391e+01 2.242694999999999709e+03
6.199999999999999956e-02 1.696874999999999911e-01 1.540001500000000023e+00 3.432515000000000072e+01 2.243385000000000218e+03
6.300000000000000044e-02 1.697885000000000089e-01 3.010868950000000321e+00 3.843679999999999808e+01 2.244304999999999836e+03
6.400000000000000133e-02 1.699114999999999931e-01 4.728390000000000093e+00 4.315359999999999729e+01 2.245425000000000182e+03
6.500000000000000222e-02 1.700510000000000077e-01 6.635440000000000005e+00 4.831510000000000105e+01 2.246715000000000146e+03
6.600000000000000311e-02 1.702039999999999942e-01 8.671005000000000962e+00 5.375395000000000323e+01 2.248130000000000109e+03
6.700000000000000400e-02 1.703645000000000020e-01 1.077444000000000024e+01 5.930750000000000455e+01 2.249630000000000109e+03
6.800000000000000488e-02 1.705295000000000005e-01 1.288890499999999939e+01 6.482945000000000846e+01 2.251170000000000073e+03
6.900000000000000577e-02 1.706934999999999980e-01 1.496494999999999820e+01 7.019865000000000066e+01 2.252710000000000036e+03
7.000000000000000666e-02 1.708544999999999925e-01 1.696304999999999907e+01 7.532640000000000668e+01 2.254230000000000018e+03
7.100000000000000755e-02 1.710089999999999943e-01 1.885549999999999926e+01 8.015999999999999659e+01 2.255690000000000055e+03
7.200000000000000844e-02 1.711564999999999892e-01 2.062679999999999936e+01 8.468335000000000434e+01 2.257095000000000255e+03
7.300000000000000933e-02 1.712954999999999894e-01 2.227309999999999945e+01 8.891349999999999909e+01 2.258425000000000182e+03
7.399999999999999634e-02 1.714280000000000248e-01 2.380049999999999955e+01 9.289419999999999789e+01 2.259684999999999945e+03
7.499999999999999722e-02 1.715539999999999843e-01 2.522245000000000203e+01 9.668600000000000705e+01 2.260890000000000327e+03
7.599999999999999811e-02 1.716754999999999809e-01 2.655689999999999884e+01 1.003590000000000089e+02 2.262060000000000400e+03
7.699999999999999900e-02 1.717940000000000023e-01 2.782329999999999970e+01 1.039797499999999957e+02 2.263199999999999818e+03
7.799999999999999989e-02 1.719114999999999949e-01 2.903999999999999915e+01 1.076049999999999898e+02 2.264324999999999818e+03
7.900000000000000078e-02 1.720295000000000019e-01 3.022225000000000250e+01 1.112770000000000010e+02 2.265445000000000164e+03
8.000000000000000167e-02 1.721479999999999955e-01 3.138089999999999691e+01 1.150180000000000007e+02 2.266585000000000036e+03
8.100000000000000255e-02 1.722680000000000045e-01 3.252159999999999940e+01 1.188329999999999984e+02 2.267735000000000127e+03
8.200000000000000344e-02 1.723899999999999877e-01 3.364480000000000359e+01 1.227069999999999936e+02 2.268905000000000200e+03
8.300000000000000433e-02 1.725129999999999997e-01 3.474599999999999511e+01 1.266099999999999994e+02 2.270079999999999927e+03
8.400000000000000522e-02 1.726360000000000117e-01 3.581674999999999898e+01 1.305020000000000095e+02 2.271260000000000218e+03
8.500000000000000611e-02 1.727580000000000227e-01 3.684485000000000099e+01 1.343340000000000032e+02 2.272434999999999945e+03
8.600000000000000699e-02 1.728779999999999761e-01 3.781569999999999965e+01 1.380509999999999877e+02 2.273585000000000036e+03
8.700000000000000788e-02 1.729939999999999811e-01 3.871344999999999459e+01 1.415999999999999943e+02 2.274699999999999818e+03
8.800000000000000877e-02 1.731039999999999801e-01 3.952134999999999820e+01 1.449259999999999877e+02 2.275769999999999982e+03
8.899999999999999578e-02 1.732075000000000142e-01 4.022334999999999638e+01 1.479805000000000064e+02 2.276764999999999873e+03
8.999999999999999667e-02 1.733024999999999982e-01 4.080469999999999686e+01 1.507189999999999941e+02 2.277684999999999945e+03
9.099999999999999756e-02 1.733875000000000000e-01 4.125319999999999965e+01 1.531069999999999993e+02 2.278515000000000327e+03
9.199999999999999845e-02 1.734620000000000051e-01 4.155955000000000155e+01 1.551189999999999998e+02 2.279239999999999782e+03
9.299999999999999933e-02 1.735254999999999992e-01 4.171880000000000166e+01 1.567429999999999950e+02 2.279864999999999782e+03
9.400000000000000022e-02 1.735769999999999813e-01 4.173024999999999807e+01 1.579774999999999920e+02 2.280375000000000000e+03
9.500000000000000111e-02 1.736175000000000079e-01 4.159779999999999944e+01 1.588344999999999914e+02 2.280775000000000091e+03
9.600000000000000200e-02 1.736464999999999814e-01 4.133020000000000493e+01 1.593394999999999868e+02 2.281069999999999709e+03
9.700000000000000289e-02 1.736650000000000138e-01 4.094004999999999939e+01 1.595264999999999986e+02 2.281255000000000109e+03
9.800000000000000377e-02 1.736739999999999950e-01 4.044344999999999857e+01 1.594399999999999977e+02 2.281360000000000127e+03
9.900000000000000466e-02 1.736749999999999960e-01 3.985899999999999466e+01 1.591290000000000191e+02 2.281385000000000218e+03
1.000000000000000056e-01 1.736695000000000044e-01 3.920685000000000286e+01 1.586474999999999795e+02 2.281335000000000036e+03
1.010000000000000064e-01 1.736584999999999934e-01 3.850764999999999816e+01 1.580465000000000089e+02 2.281239999999999782e+03
1.020000000000000073e-01 1.736439999999999928e-01 3.778130000000000166e+01 1.573765000000000214e+02 2.281105000000000018e+03
1.030000000000000082e-01 1.736270000000000036e-01 3.704649999999999466e+01 1.566820000000000164e+02 2.280944999999999709e+03
1.040000000000000091e-01 1.736090000000000133e-01 3.631974999999999909e+01 1.560020000000000095e+02 2.280775000000000091e+03
1.050000000000000100e-01 1.735915000000000097e-01 3.561464999999999748e+01 1.553659999999999854e+02 2.280605000000000018e+03
1.059999999999999970e-01 1.735740000000000061e-01 3.494160000000000110e+01 1.547944999999999993e+02 2.280440000000000055e+03
1.069999999999999979e-01 1.735585000000000044e-01 3.430724999999999625e+01 1.543000000000000114e+02 2.280284999999999854e+03
1.079999999999999988e-01 1.735444999999999904e-01 3.371460000000000434e+01 1.538840000000000146e+02 2.280150000000000091e+03
1.089999999999999997e-01 1.735325000000000062e-01 3.316279999999999717e+01 1.535384999999999991e+02 2.280029999999999745e+03
1.100000000000000006e-01 1.735220000000000096e-01 3.264750000000000085e+01 1.532485000000000070e+02 2.279925000000000182e+03
1.110000000000000014e-01 1.735130000000000006e-01 3.216120000000000090e+01 1.529895000000000209e+02 2.279835000000000036e+03
1.120000000000000023e-01 1.735039999999999916e-01 3.169395000000000095e+01 1.527319999999999993e+02 2.279750000000000000e+03
1.130000000000000032e-01 1.734944999999999959e-01 3.123385000000000034e+01 1.524435000000000002e+02 2.279654999999999745e+03
1.140000000000000041e-01 1.734844999999999859e-01 3.076829999999999643e+01 1.520889999999999986e+02 2.279555000000000291e+03
1.150000000000000050e-01 1.734720000000000151e-01 3.028459999999999752e+01 1.516355000000000075e+02 2.279429999999999836e+03
1.160000000000000059e-01 1.734565000000000135e-01 2.977094999999999914e+01 1.510534999999999854e+02 2.279279999999999745e+03
1.170000000000000068e-01 1.734364999999999934e-01 2.921739999999999782e+01 1.503185000000000002e+02 2.279090000000000146e+03
1.180000000000000077e-01 1.734125000000000250e-01 2.861645000000000039e+01 1.494134999999999991e+02 2.278859999999999673e+03
1.190000000000000085e-01 1.733830000000000093e-01 2.796354999999999791e+01 1.483310000000000173e+02 2.278585000000000036e+03
1.200000000000000094e-01 1.733484999999999887e-01 2.725769999999999982e+01 1.470730000000000075e+02 2.278260000000000218e+03
1.209999999999999964e-01 1.733095000000000052e-01 2.650144999999999840e+01 1.456505000000000223e+02 2.277880000000000109e+03
1.219999999999999973e-01 1.732650000000000023e-01 2.570080000000000098e+01 1.440850000000000080e+02 2.277460000000000036e+03
1.229999999999999982e-01 1.732170000000000099e-01 2.486505000000000010e+01 1.424050000000000011e+02 2.277005000000000109e+03
1.239999999999999991e-01 1.731659999999999866e-01 2.400600000000000023e+01 1.406465000000000032e+02 2.276515000000000327e+03
1.250000000000000000e-01 1.731125000000000025e-01 2.313765000000000072e+01 1.388505000000000109e+02 2.276010000000000218e+03
1.260000000000000009e-01 1.730585000000000040e-01 2.227515000000000001e+01 1.370589999999999975e+02 2.275485000000000127e+03
1.270000000000000018e-01 1.730045000000000055e-01 2.143379999999999797e+01 1.353149999999999977e+02 2.274974999999999909e+03
1.280000000000000027e-01 1.729519999999999946e-01 2.062859999999999872e+01 1.336574999999999989e+02 2.274470000000000255e+03
1.290000000000000036e-01 1.729020000000000001e-01 1.987300000000000111e+01 1.321225000000000023e+02 2.273984999999999673e+03
1.300000000000000044e-01 1.728554999999999953e-01 1.917864999999999753e+01 1.307384999999999877e+02 2.273539999999999964e+03
1.310000000000000053e-01 1.728139999999999954e-01 1.855445000000000277e+01 1.295275000000000034e+02 2.273135000000000218e+03
1.320000000000000062e-01 1.727770000000000139e-01 1.800675000000000026e+01 1.285020000000000095e+02 2.272774999999999636e+03
1.330000000000000071e-01 1.727449999999999819e-01 1.753885000000000005e+01 1.276690000000000111e+02 2.272465000000000146e+03
1.340000000000000080e-01 1.727190000000000114e-01 1.715109999999999957e+01 1.270250000000000057e+02 2.272204999999999927e+03
1.350000000000000089e-01 1.726985000000000048e-01 1.684149999999999991e+01 1.265619999999999976e+02 2.272005000000000109e+03
1.360000000000000098e-01 1.726830000000000032e-01 1.660549999999999926e+01 1.262649999999999864e+02 2.271850000000000364e+03
1.370000000000000107e-01 1.726725000000000065e-01 1.643679999999999808e+01 1.261154999999999973e+02 2.271744999999999891e+03
1.380000000000000115e-01 1.726670000000000149e-01 1.632750000000000057e+01 1.260935000000000059e+02 2.271679999999999836e+03
1.390000000000000124e-01 1.726639999999999842e-01 1.626890000000000214e+01 1.261754999999999995e+02 2.271650000000000091e+03
1.400000000000000133e-01 1.726650000000000129e-01 1.625169999999999959e+01 1.263384999999999962e+02 2.271650000000000091e+03
1.410000000000000142e-01 1.726679999999999882e-01 1.626630000000000109e+01 1.265589999999999975e+02 2.271675000000000182e+03
1.420000000000000151e-01 1.726730000000000209e-01 1.630355000000000132e+01 1.268160000000000025e+02 2.271720000000000255e+03
1.430000000000000160e-01 1.726794999999999858e-01 1.635440000000000182e+01 1.270900000000000034e+02 2.271775000000000091e+03
1.440000000000000169e-01 1.726860000000000062e-01 1.641110000000000113e+01 1.273629999999999995e+02 2.271840000000000146e+03
1.450000000000000178e-01 1.726934999999999998e-01 1.646634999999999849e+01 1.276219999999999999e+02 2.271899999999999636e+03
1.459999999999999909e-01 1.726999999999999924e-01 1.651460000000000150e+01 1.278539999999999992e+02 2.271970000000000255e+03
1.469999999999999918e-01 1.727059999999999984e-01 1.655114999999999981e+01 1.280509999999999877e+02 2.272029999999999745e+03
1.479999999999999927e-01 1.727110000000000034e-01 1.657294999999999874e+01 1.282085000000000150e+02 2.272074999999999818e+03
1.489999999999999936e-01 1.727160000000000084e-01 1.657839999999999847e+01 1.283249999999999886e+02 2.272119999999999891e+03
1.499999999999999944e-01 1.727184999999999970e-01 1.656714999999999804e+01 1.284029999999999916e+02 2.272154999999999745e+03
1.509999999999999953e-01 1.727210000000000134e-01 1.654025000000000034e+01 1.284459999999999980e+02 2.272175000000000182e+03
1.519999999999999962e-01 1.727225000000000010e-01 1.649970000000000070e+01 1.284619999999999891e+02 2.272189999999999600e+03
1.529999999999999971e-01 1.727235000000000020e-01 1.644839999999999947e+01 1.284590000000000032e+02 2.272199999999999818e+03
1.539999999999999980e-01 1.727235000000000020e-01 1.638970000000000127e+01 1.284470000000000027e+02 2.272204999999999927e+03
1.549999999999999989e-01 1.727235000000000020e-01 1.632740000000000080e+01 1.284360000000000070e+02 2.272204999999999927e+03
1.559999999999999998e-01 1.727239999999999887e-01 1.626494999999999891e+01 1.284350000000000023e+02 2.272204999999999927e+03
1.570000000000000007e-01 1.727245000000000030e-01 1.620564999999999856e+01 1.284515000000000100e+02 2.272210000000000036e+03
1.580000000000000016e-01 1.727255000000000040e-01 1.615210000000000079e+01 1.284915000000000020e+02 2.272220000000000255e+03
1.590000000000000024e-01 1.727270000000000194e-01 1.610630000000000095e+01 1.285575000000000045e+02 2.272235000000000127e+03
