# t [s], A [cm^2], U [cm/s], P [cPa], c [cm/s]
1.000000000000000021e-03 1.464099999999999846e-01 3.644050000000000344e-01 9.616380000000000905e+01 1.762085000000000036e+03
2.000000000000000042e-03 1.463824999999999987e-01 1.960651999999999839e+00 9.312699999999999534e+01 1.761835000000000036e+03
3.000000000000000062e-03 1.462815000000000087e-01 3.878864000000000090e+00 8.923640000000000327e+01 1.760925000000000182e+03
4.000000000000000083e-03 1.461310000000000109e-01 5.983946500000000057e+00 8.499895000000000778e+01 1.759599999999999909e+03
5.000000000000000104e-03 1.459575000000000178e-01 8.223905000000000243e+00 8.109835000000001060e+01 1.758079999999999927e+03
6.000000000000000125e-03 1.457809999999999939e-01 1.048838499999999918e+01 7.784935000000000116e+01 1.756549999999999955e+03
7.000000000000000146e-03 1.456105000000000038e-01 1.262207499999999882e+01 7.517475000000000307e+01 1.755085000000000036e+03
8.000000000000000167e-03 1.454495000000000093e-01 1.451372500000000088e+01 7.285599999999999454e+01 1.753730000000000018e+03
9.000000000000001055e-03 1.453015000000000001e-01 1.614699999999999847e+01 7.079704999999999870e+01 1.752494999999999891e+03
1.000000000000000194e-02 1.451689999999999925e-01 1.755154999999999887e+01 6.902870000000000061e+01 1.751404999999999973e+03
1.099999999999999936e-02 1.450535000000000019e-01 1.874699999999999989e+01 6.756895000000000095e+01 1.750460000000000036e+03
1.200000000000000025e-02 1.449555000000000149e-01 1.974204999999999899e+01 6.638390000000001123e+01 1.749670000000000073e+03
1.300000000000000114e-02 1.448725000000000152e-01 2.054674999999999940e+01 6.542620000000000857e+01 1.749010000000000218e+03
1.400000000000000203e-02 1.448050000000000170e-01 2.117119999999999891e+01 6.464714999999999634e+01 1.748470000000000027e+03
1.499999999999999944e-02 1.447479999999999878e-01 2.162640000000000029e+01 6.399415000000000475e+01 1.748029999999999973e+03
1.600000000000000033e-02 1.447005000000000097e-01 2.193930000000000291e+01 6.344164999999999566e+01 1.747670000000000073e+03
1.700000000000000122e-02 1.446624999999999994e-01 2.216769999999999996e+01 6.303870000000000573e+01 1.747384999999999991e+03
1.800000000000000211e-02 1.446359999999999868e-01 2.239495000000000147e+01 6.292074999999999818e+01 1.747199999999999818e+03
1.900000000000000300e-02 1.446264999999999912e-01 2.270284999999999798e+01 6.325785000000000480e+01 1.747139999999999873e+03
2.000000000000000042e-02 1.446375000000000022e-01 2.313949999999999818e+01 6.416724999999999568e+01 1.747235000000000127e+03
2.100000000000000130e-02 1.446695000000000064e-01 2.369885000000000019e+01 6.564140000000000441e+01 1.747514999999999873e+03
2.200000000000000219e-02 1.447220000000000173e-01 2.432209999999999894e+01 6.752694999999999936e+01 1.747940000000000055e+03
2.299999999999999961e-02 1.447880000000000000e-01 2.491740000000000066e+01 6.956080000000000041e+01 1.748489999999999782e+03
2.400000000000000050e-02 1.448590000000000155e-01 2.538779999999999859e+01 7.144235000000000468e+01 1.749079999999999927e+03
2.500000000000000139e-02 1.449265000000000136e-01 2.565814999999999912e+01 7.291349999999999909e+01 1.749639999999999873e+03
2.600000000000000228e-02 1.449819999999999998e-01 2.569200000000000017e+01 7.381884999999999764e+01 1.750119999999999891e+03
2.700000000000000316e-02 1.450214999999999976e-01 2.549609999999999843e+01 7.413214999999999577e+01 1.750454999999999927e+03
2.800000000000000058e-02 1.450440000000000063e-01 2.511234999999999928e+01 7.394409999999999172e+01 1.750664999999999964e+03
2.900000000000000147e-02 1.450514999999999999e-01 2.460154999999999959e+01 7.342140000000000555e+01 1.750740000000000009e+03
3.000000000000000236e-02 1.450474999999999959e-01 2.402510000000000190e+01 7.275145000000000550e+01 1.750724999999999909e+03
3.099999999999999978e-02 1.450374999999999859e-01 2.342994999999999806e+01 7.209170000000000300e+01 1.750650000000000091e+03
3.200000000000000067e-02 1.450250000000000150e-01 2.284105000000000274e+01 7.153659999999999286e+01 1.750555000000000064e+03
3.300000000000000155e-02 1.450124999999999886e-01 2.226064999999999827e+01 7.110824999999999818e+01 1.750460000000000036e+03
3.400000000000000244e-02 1.450009999999999910e-01 2.167504999999999882e+01 7.076879999999999882e+01 1.750365000000000009e+03
3.500000000000000333e-02 1.449900000000000078e-01 2.106459999999999866e+01 7.044735000000000014e+01 1.750279999999999973e+03
3.600000000000000422e-02 1.449775000000000091e-01 2.041355000000000075e+01 7.007179999999999609e+01 1.750179999999999836e+03
3.700000000000000511e-02 1.449619999999999798e-01 1.971869999999999834e+01 6.959690000000000509e+01 1.750065000000000055e+03
3.799999999999999906e-02 1.449435000000000029e-01 1.899345000000000283e+01 6.902264999999999873e+01 1.749914999999999964e+03
3.899999999999999994e-02 1.449219999999999953e-01 1.826749999999999829e+01 6.839820000000000277e+01 1.749744999999999891e+03
4.000000000000000083e-02 1.448990000000000000e-01 1.758205000000000240e+01 6.781334999999999980e+01 1.749559999999999945e+03
4.100000000000000172e-02 1.448790000000000078e-01 1.698185000000000144e+01 6.737809999999998922e+01 1.749394999999999982e+03
4.200000000000000261e-02 1.448645000000000072e-01 1.650625000000000142e+01 6.719790000000000418e+01 1.749275000000000091e+03
4.300000000000000350e-02 1.448590000000000155e-01 1.618104999999999905e+01 6.734855000000000302e+01 1.749224999999999909e+03
4.400000000000000439e-02 1.448645000000000072e-01 1.601304999999999978e+01 6.785845000000000482e+01 1.749264999999999873e+03
4.499999999999999833e-02 1.448814999999999964e-01 1.598804999999999943e+01 6.870000000000000284e+01 1.749394999999999982e+03
4.599999999999999922e-02 1.449104999999999976e-01 1.607294999999999874e+01 6.979255000000000564e+01 1.749619999999999891e+03
4.700000000000000011e-02 1.449479999999999935e-01 1.622044999999999959e+01 7.101425000000000409e+01 1.749920000000000073e+03
4.800000000000000100e-02 1.449900000000000078e-01 1.637555000000000049e+01 7.222065000000000623e+01 1.750255000000000109e+03
4.900000000000000189e-02 1.450319999999999943e-01 1.648284999999999911e+01 7.326480000000000814e+01 1.750595000000000027e+03
5.000000000000000278e-02 1.450695000000000179e-01 1.649249999999999972e+01 7.401634999999998854e+01 1.750900000000000091e+03
5.100000000000000366e-02 1.450984999999999914e-01 1.636509999999999820e+01 7.437539999999999907e+01 1.751134999999999991e+03
5.200000000000000455e-02 1.451135000000000064e-01 1.607440000000000069e+01 7.428140000000000498e+01 1.751264999999999873e+03
5.300000000000000544e-02 1.451144999999999796e-01 1.560795000000000066e+01 7.371429999999999438e+01 1.751275000000000091e+03
5.399999999999999939e-02 1.450980000000000047e-01 1.496630000000000038e+01 7.269180000000000064e+01 1.751144999999999982e+03
5.500000000000000028e-02 1.450649999999999995e-01 1.416079999999999828e+01 7.126139999999999475e+01 1.750884999999999991e+03
5.600000000000000117e-02 1.450170000000000070e-01 1.321130000000000138e+01 6.949170000000000869e+01 1.750494999999999891e+03
5.700000000000000205e-02 1.449544999999999861e-01 1.214323500000000067e+01 6.746290000000000475e+01 1.749994999999999891e+03
5.800000000000000294e-02 1.448809999999999820e-01 1.098562499999999886e+01 6.525900000000000034e+01 1.749404999999999973e+03
5.900000000000000383e-02 1.447990000000000110e-01 9.769275000000000375e+00 6.296229999999999905e+01 1.748735000000000127e+03
6.000000000000000472e-02 1.447120000000000073e-01 8.525755000000000194e+00 6.065019999999999811e+01 1.748025000000000091e+03
6.099999999999999867e-02 1.446215000000000139e-01 7.286819999999999631e+00 5.839359999999999928e+01 1.747289999999999964e+03
6.199999999999999956e-02 1.445309999999999928e-01 6.084224999999999994e+00 5.625804999999999723e+01 1.746550000000000182e+03
6.300000000000000044e-02 1.444435000000000024e-01 4.949394999999999989e+00 5.430395000000000039e+01 1.745835000000000036e+03
6.400000000000000133e-02 1.443610000000000171e-01 3.913374999999999826e+00 5.258804999999999552e+01 1.745159999999999854e+03
6.500000000000000222e-02 1.442864999999999842e-01 3.006348000000000020e+00 5.116394999999999982e+01 1.744550000000000182e+03
6.600000000000000311e-02 1.442219999999999891e-01 2.257058999999999926e+00 5.008190000000000452e+01 1.744014999999999873e+03
6.700000000000000400e-02 1.441705000000000070e-01 1.691913000000000000e+00 4.938765000000000072e+01 1.743585000000000036e+03
6.800000000000000488e-02 1.441324999999999967e-01 1.333977500000000038e+00 4.912089999999999890e+01 1.743269999999999982e+03
6.900000000000000577e-02 1.441109999999999891e-01 1.201947000000000099e+00 4.931300000000000239e+01 1.743079999999999927e+03
7.000000000000000666e-02 1.441074999999999995e-01 1.309150000000000036e+00 4.998494999999999777e+01 1.743039999999999964e+03
7.100000000000000755e-02 1.441224999999999867e-01 1.662795999999999941e+00 5.114555000000000007e+01 1.743150000000000091e+03
7.200000000000000844e-02 1.441574999999999940e-01 2.263472000000000151e+00 5.279009999999999536e+01 1.743414999999999964e+03
7.300000000000000933e-02 1.442114999999999925e-01 3.105050000000000310e+00 5.490030000000000143e+01 1.743835000000000036e+03
7.399999999999999634e-02 1.442845000000000100e-01 4.174910000000000565e+00 5.744454999999999956e+01 1.744420000000000073e+03
7.499999999999999722e-02 1.443760000000000043e-01 5.454545000000000421e+00 6.037950000000000017e+01 1.745150000000000091e+03
7.599999999999999811e-02 1.444840000000000013e-01 6.920435000000000336e+00 6.365240000000000009e+01 1.746014999999999873e+03
7.699999999999999900e-02 1.446069999999999856e-01 8.545035000000000380e+00 6.720335000000000036e+01 1.747009999999999991e+03
7.799999999999999989e-02 1.447430000000000105e-01 1.029818999999999996e+01 7.096854999999999336e+01 1.748110000000000127e+03
7.900000000000000078e-02 1.448895000000000044e-01 1.214818999999999960e+01 7.488315000000000055e+01 1.749304999999999836e+03
8.000000000000000167e-02 1.450444999999999929e-01 1.406304499999999891e+01 7.888409999999998945e+01 1.750565000000000055e+03
8.100000000000000255e-02 1.452050000000000007e-01 1.601164999999999949e+01 8.291245000000000687e+01 1.751880000000000109e+03
8.200000000000000344e-02 1.453690000000000260e-01 1.796475000000000222e+01 8.691570000000000107e+01 1.753220000000000027e+03
8.300000000000000433e-02 1.455345000000000111e-01 1.989600000000000080e+01 9.084940000000000282e+01 1.754585000000000036e+03
8.400000000000000522e-02 1.456989999999999952e-01 2.178249999999999886e+01 9.467799999999999727e+01 1.755944999999999936e+03
8.500000000000000611e-02 1.458615000000000050e-01 2.360535000000000139e+01 9.837595000000000312e+01 1.757289999999999964e+03
8.600000000000000699e-02 1.460210000000000119e-01 2.534994999999999976e+01 1.019276499999999999e+02 1.758610000000000127e+03
8.700000000000000788e-02 1.461755000000000138e-01 2.700609999999999999e+01 1.053268999999999949e+02 1.759900000000000091e+03
8.800000000000000877e-02 1.463254999999999972e-01 2.856794999999999973e+01 1.085749999999999886e+02 1.761150000000000091e+03
8.899999999999999578e-02 1.464699999999999891e-01 3.003345000000000198e+01 1.116834999999999951e+02 1.762365000000000009e+03
8.999999999999999667e-02 1.466100000000000181e-01 3.140404999999999802e+01 1.146664999999999992e+02 1.763539999999999964e+03
9.099999999999999756e-02 1.467455000000000009e-01 3.268399999999999750e+01 1.175444999999999993e+02 1.764680000000000064e+03
9.199999999999999845e-02 1.468769999999999798e-01 3.387959999999999638e+01 1.203385000000000105e+02 1.765785000000000082e+03
9.299999999999999933e-02 1.470044999999999824e-01 3.499830000000000041e+01 1.230709999999999980e+02 1.766859999999999900e+03
9.400000000000000022e-02 1.471299999999999830e-01 3.604819999999999425e+01 1.257614999999999981e+02 1.767920000000000073e+03
9.500000000000000111e-02 1.472534999999999816e-01 3.703719999999999857e+01 1.284284999999999854e+02 1.768960000000000036e+03
9.600000000000000200e-02 1.473750000000000060e-01 3.797225000000000250e+01 1.310850000000000080e+02 1.769994999999999891e+03
9.700000000000000289e-02 1.474965000000000026e-01 3.885900000000000176e+01 1.337389999999999759e+02 1.771019999999999982e+03
9.800000000000000377e-02 1.476164999999999838e-01 3.970135000000000502e+01 1.363924999999999841e+02 1.772039999999999964e+03
9.900000000000000466e-02 1.477370000000000072e-01 4.050130000000000052e+01 1.390439999999999827e+02 1.773059999999999945e+03
1.000000000000000056e-01 1.478565000000000018e-01 4.125889999999999702e+01 1.416854999999999905e+02 1.774074999999999818e+03
1.010000000000000064e-01 1.479750000000000232e-01 4.197204999999999586e+01 1.443025000000000091e+02 1.775085000000000036e+03
1.020000000000000073e-01 1.480930000000000024e-01 4.263710000000000377e+01 1.468795000000000073e+02 1.776079999999999927e+03
1.030000000000000082e-01 1.482089999999999796e-01 4.324869999999999948e+01 1.493954999999999984e+02 1.777065000000000055e+03
1.040000000000000091e-01 1.483229999999999826e-01 4.380049999999999955e+01 1.518305000000000007e+02 1.778035000000000082e+03
1.050000000000000100e-01 1.484329999999999816e-01 4.428524999999999778e+01 1.541599999999999966e+02 1.778970000000000027e+03
1.059999999999999970e-01 1.485394999999999910e-01 4.469535000000000480e+01 1.563615000000000066e+02 1.779880000000000109e+03
1.069999999999999979e-01 1.486405000000000087e-01 4.502315000000000111e+01 1.584139999999999873e+02 1.780739999999999782e+03
1.079999999999999988e-01 1.487360000000000071e-01 4.526160000000000139e+01 1.602980000000000018e+02 1.781559999999999945e+03
1.089999999999999997e-01 1.488249999999999851e-01 4.540434999999999377e+01 1.619954999999999927e+02 1.782320000000000164e+03
1.100000000000000006e-01 1.489059999999999828e-01 4.544599999999999795e+01 1.634934999999999832e+02 1.783025000000000091e+03
1.110000000000000014e-01 1.489794999999999869e-01 4.538255000000000194e+01 1.647810000000000059e+02 1.783654999999999973e+03
1.120000000000000023e-01 1.490450000000000108e-01 4.521155000000000257e+01 1.658509999999999991e+02 1.784214999999999918e+03
1.130000000000000032e-01 1.491009999999999835e-01 4.493234999999999957e+01 1.667015000000000100e+02 1.784700000000000045e+03
1.140000000000000041e-01 1.491485000000000172e-01 4.454595000000000482e+01 1.673335000000000150e+02 1.785115000000000009e+03
1.150000000000000050e-01 1.491864999999999997e-01 4.405519999999999925e+01 1.677524999999999977e+02 1.785445000000000164e+03
1.160000000000000059e-01 1.492160000000000153e-01 4.346479999999999677e+01 1.679675000000000011e+02 1.785710000000000036e+03
1.170000000000000068e-01 1.492364999999999942e-01 4.278110000000000213e+01 1.679909999999999854e+02 1.785890000000000100e+03
1.180000000000000077e-01 1.492485000000000062e-01 4.201205000000000211e+01 1.678375000000000057e+02 1.786005000000000109e+03
1.190000000000000085e-01 1.492529999999999968e-01 4.116700000000000159e+01 1.675264999999999986e+02 1.786049999999999955e+03
1.200000000000000094e-01 1.492499999999999938e-01 4.025625000000000142e+01 1.670769999999999982e+02 1.786039999999999964e+03
1.209999999999999964e-01 1.492410000000000125e-01 3.929115000000000180e+01 1.665110000000000241e+02 1.785970000000000027e+03
1.219999999999999973e-01 1.492264999999999842e-01 3.828334999999999866e+01 1.658499999999999943e+02 1.785849999999999909e+03
1.229999999999999982e-01 1.492069999999999785e-01 3.724474999999999625e+01 1.651154999999999973e+02 1.785690000000000055e+03
1.239999999999999991e-01 1.491835000000000244e-01 3.618710000000000093e+01 1.643299999999999841e+02 1.785494999999999891e+03
1.250000000000000000e-01 1.491564999999999974e-01 3.512165000000000248e+01 1.635124999999999886e+02 1.785275000000000091e+03
1.260000000000000009e-01 1.491279999999999828e-01 3.405889999999999418e+01 1.626819999999999879e+02 1.785034999999999854e+03
1.270000000000000018e-01 1.490974999999999939e-01 3.300829999999999842e+01 1.618534999999999968e+02 1.784779999999999973e+03
1.280000000000000027e-01 1.490664999999999907e-01 3.197789999999999822e+01 1.610400000000000205e+02 1.784509999999999991e+03
1.290000000000000036e-01 1.490350000000000008e-01 3.097444999999999737e+01 1.602520000000000095e+02 1.784244999999999891e+03
1.300000000000000044e-01 1.490035000000000109e-01 3.000314999999999799e+01 1.594960000000000093e+02 1.783980000000000018e+03
1.310000000000000053e-01 1.489729999999999943e-01 2.906754999999999711e+01 1.587755000000000223e+02 1.783715000000000146e+03
1.320000000000000062e-01 1.489429999999999921e-01 2.816955000000000098e+01 1.580914999999999964e+02 1.783460000000000036e+03
1.330000000000000071e-01 1.489139999999999908e-01 2.730949999999999989e+01 1.574414999999999907e+02 1.783210000000000036e+03
1.340000000000000080e-01 1.488860000000000183e-01 2.648644999999999783e+01 1.568199999999999932e+02 1.782970000000000027e+03
1.350000000000000089e-01 1.488590000000000191e-01 2.569790000000000063e+01 1.562214999999999918e+02 1.782730000000000018e+03
1.360000000000000098e-01 1.488320000000000198e-01 2.494040000000000035e+01 1.556354999999999791e+02 1.782500000000000000e+03
1.370000000000000107e-01 1.488055000000000072e-01 2.420945000000000036e+01 1.550525000000000091e+02 1.782279999999999973e+03
1.380000000000000115e-01 1.487795000000000090e-01 2.350009999999999977e+01 1.544610000000000127e+02 1.782049999999999955e+03
1.390000000000000124e-01 1.487534999999999830e-01 2.280669999999999931e+01 1.538499999999999943e+02 1.781820000000000164e+03
1.400000000000000133e-01 1.487259999999999971e-01 2.212359999999999971e+01 1.532074999999999818e+02 1.781590000000000146e+03
1.410000000000000142e-01 1.486979999999999968e-01 2.144525000000000148e+01 1.525240000000000009e+02 1.781345000000000027e+03
1.420000000000000151e-01 1.486675000000000080e-01 2.076624999999999943e+01 1.517900000000000205e+02 1.781090000000000146e+03
1.430000000000000160e-01 1.486359999999999904e-01 2.008185000000000286e+01 1.509970000000000141e+02 1.780815000000000055e+03
1.440000000000000169e-01 1.486020000000000119e-01 1.938804999999999978e+01 1.501390000000000100e+02 1.780525000000000091e+03
1.450000000000000178e-01 1.485655000000000170e-01 1.868164999999999765e+01 1.492125000000000057e+02 1.780215000000000146e+03
1.459999999999999909e-01 1.485265000000000057e-01 1.796059999999999945e+01 1.482155000000000200e+02 1.779880000000000109e+03
1.469999999999999918e-01 1.484845000000000192e-01 1.722390000000000043e+01 1.471490000000000009e+02 1.779525000000000091e+03
1.479999999999999927e-01 1.484395000000000020e-01 1.647165000000000035e+01 1.460160000000000196e+02 1.779144999999999982e+03
1.489999999999999936e-01 1.483919999999999961e-01 1.570534999999999926e+01 1.448229999999999791e+02 1.778744999999999891e+03
1.499999999999999944e-01 1.483420000000000016e-01 1.492759999999999998e+01 1.435769999999999982e+02 1.778325000000000045e+03
1.509999999999999953e-01 1.482899999999999774e-01 1.414195000000000135e+01 1.422884999999999991e+02 1.777884999999999991e+03
1.519999999999999962e-01 1.482364999999999933e-01 1.335309999999999953e+01 1.409694999999999823e+02 1.777429999999999836e+03
1.529999999999999971e-01 1.481804999999999928e-01 1.256634999999999991e+01 1.396329999999999814e+02 1.776960000000000036e+03
1.539999999999999980e-01 1.481244999999999923e-01 1.178792499999999954e+01 1.382934999999999945e+02 1.776480000000000018e+03
1.549999999999999989e-01 1.480670000000000042e-01 1.102412499999999973e+01 1.369655000000000200e+02 1.776000000000000000e+03
1.559999999999999998e-01 1.480100000000000027e-01 1.028174999999999883e+01 1.356630000000000109e+02 1.775519999999999982e+03
1.570000000000000007e-01 1.479544999999999888e-01 9.567280000000000229e+00 1.344019999999999868e+02 1.775045000000000073e+03
1.580000000000000016e-01 1.478990000000000027e-01 8.887069999999999581e+00 1.331940000000000168e+02 1.774579999999999927e+03
1.590000000000000024e-01 1.478464999999999918e-01 8.247019999999999129e+00 1.320514999999999759e+02 1.774130000000000109e+03
