# t [s], A [cm^2], U [cm/s], P [cPa], c [cm/s]
1.000000000000000021e-03 1.411919999999999842e-01 3.601239999999999997e-01 9.662219999999999231e+01 2.002534999999999854e+03
2.000000000000000042e-03 1.411585000000000201e-01 1.916367999999999849e+00 9.331225000000000591e+01 2.002130000000000109e+03
3.000000000000000062e-03 1.410595000000000043e-01 3.803042000000000034e+00 8.889679999999999893e+01 2.001005000000000109e+03
4.000000000000000083e-03 1.409209999999999907e-01 5.901045500000000388e+00 8.417160000000001219e+01 1.999445000000000164e+03
5.000000000000000104e-03 1.407694999999999919e-01 8.141740000000000421e+00 7.997050000000000125e+01 1.997759999999999991e+03
6.000000000000000125e-03 1.406215000000000104e-01 1.036217999999999861e+01 7.655654999999998722e+01 1.996130000000000109e+03
7.000000000000000146e-03 1.404814999999999814e-01 1.236505999999999972e+01 7.369020000000000437e+01 1.994615000000000009e+03
8.000000000000000167e-03 1.403520000000000045e-01 1.406734499999999954e+01 7.112745000000001028e+01 1.993234999999999900e+03
9.000000000000001055e-03 1.402364999999999862e-01 1.550009999999999977e+01 6.888944999999999652e+01 1.992019999999999982e+03
1.000000000000000194e-02 1.401379999999999848e-01 1.669879999999999853e+01 6.704795000000000016e+01 1.990990000000000009e+03
1.099999999999999936e-02 1.400549999999999851e-01 1.767660000000000053e+01 6.558254999999999768e+01 1.990144999999999982e+03
1.200000000000000025e-02 1.399874999999999869e-01 1.844470000000000098e+01 6.443164999999999054e+01 1.989460000000000036e+03
1.300000000000000114e-02 1.399334999999999885e-01 1.900885000000000247e+01 6.351149999999999807e+01 1.988914999999999964e+03
1.400000000000000203e-02 1.398884999999999990e-01 1.937655000000000172e+01 6.272135000000000105e+01 1.988480000000000018e+03
1.499999999999999944e-02 1.398514999999999897e-01 1.959290000000000020e+01 6.203300000000000125e+01 1.988119999999999891e+03
1.600000000000000033e-02 1.398230000000000028e-01 1.976230000000000331e+01 6.159135000000000559e+01 1.987860000000000127e+03
1.700000000000000122e-02 1.398095000000000032e-01 2.001939999999999742e+01 6.168894999999999840e+01 1.987735000000000127e+03
1.800000000000000211e-02 1.398169999999999968e-01 2.046490000000000009e+01 6.260169999999999391e+01 1.987825000000000045e+03
1.900000000000000300e-02 1.398490000000000011e-01 2.111240000000000094e+01 6.440335000000000321e+01 1.988164999999999964e+03
2.000000000000000042e-02 1.399035000000000140e-01 2.187870000000000203e+01 6.687980000000000302e+01 1.988724999999999909e+03
2.100000000000000130e-02 1.399719999999999853e-01 2.261755000000000138e+01 6.958485000000000298e+01 1.989450000000000045e+03
2.200000000000000219e-02 1.400430000000000008e-01 2.317539999999999978e+01 7.199439999999999884e+01 1.990200000000000045e+03
2.299999999999999961e-02 1.401060000000000083e-01 2.344310000000000116e+01 7.368014999999999759e+01 1.990869999999999891e+03
2.400000000000000050e-02 1.401499999999999968e-01 2.338569999999999993e+01 7.443344999999999345e+01 1.991365000000000009e+03
2.500000000000000139e-02 1.401735000000000064e-01 2.304244999999999877e+01 7.430060000000000286e+01 1.991634999999999991e+03
2.600000000000000228e-02 1.401769999999999960e-01 2.250244999999999962e+01 7.352895000000000891e+01 1.991694999999999936e+03
2.700000000000000316e-02 1.401669999999999860e-01 2.186795000000000044e+01 7.245544999999999902e+01 1.991605000000000018e+03
2.800000000000000058e-02 1.401494999999999824e-01 2.122025000000000006e+01 7.138509999999999422e+01 1.991434999999999945e+03
2.900000000000000147e-02 1.401299999999999768e-01 2.059975000000000023e+01 7.050360000000000582e+01 1.991240000000000009e+03
3.000000000000000236e-02 1.401125000000000009e-01 2.000339999999999918e+01 6.984569999999999368e+01 1.991055000000000064e+03
3.099999999999999978e-02 1.400965000000000127e-01 1.939815000000000111e+01 6.932089999999999463e+01 1.990889999999999873e+03
3.200000000000000067e-02 1.400800000000000101e-01 1.874220000000000041e+01 6.877584999999999127e+01 1.990724999999999909e+03
3.300000000000000155e-02 1.400609999999999911e-01 1.800650000000000261e+01 6.806929999999999836e+01 1.990525000000000091e+03
3.400000000000000244e-02 1.400369999999999948e-01 1.719140000000000157e+01 6.713479999999999848e+01 1.990285000000000082e+03
3.500000000000000333e-02 1.400079999999999936e-01 1.633194999999999908e+01 6.601415000000000077e+01 1.989980000000000018e+03
3.600000000000000422e-02 1.399755000000000027e-01 1.549254999999999960e+01 6.485399999999999920e+01 1.989644999999999982e+03
3.700000000000000511e-02 1.399440000000000128e-01 1.475234999999999985e+01 6.386769999999999925e+01 1.989320000000000164e+03
3.799999999999999906e-02 1.399185000000000012e-01 1.418489999999999895e+01 6.327689999999999770e+01 1.989055000000000064e+03
3.899999999999999994e-02 1.399050000000000016e-01 1.384014999999999951e+01 6.324970000000000425e+01 1.988910000000000082e+03
4.000000000000000083e-02 1.399070000000000036e-01 1.373194999999999943e+01 6.385324999999999562e+01 1.988909999999999854e+03
4.100000000000000172e-02 1.399249999999999938e-01 1.383435000000000059e+01 6.503450000000000841e+01 1.989079999999999927e+03
4.200000000000000261e-02 1.399569999999999981e-01 1.408699999999999974e+01 6.662880000000001246e+01 1.989400000000000091e+03
4.300000000000000350e-02 1.399984999999999979e-01 1.440695000000000014e+01 6.839359999999999218e+01 1.989825000000000045e+03
4.400000000000000439e-02 1.400440000000000018e-01 1.470305000000000106e+01 7.005429999999999779e+01 1.990295000000000073e+03
4.499999999999999833e-02 1.400870000000000171e-01 1.489024999999999999e+01 7.135190000000000055e+01 1.990735000000000127e+03
4.599999999999999922e-02 1.401195000000000079e-01 1.490054999999999907e+01 7.208164999999999623e+01 1.991079999999999927e+03
4.700000000000000011e-02 1.401379999999999848e-01 1.468955000000000055e+01 7.211670000000000869e+01 1.991275000000000091e+03
4.800000000000000100e-02 1.401379999999999848e-01 1.423805000000000121e+01 7.141495000000000459e+01 1.991285000000000082e+03
4.900000000000000189e-02 1.401185000000000069e-01 1.354964999999999975e+01 7.001099999999999568e+01 1.991089999999999918e+03
5.000000000000000278e-02 1.400794999999999957e-01 1.264570000000000149e+01 6.799750000000000227e+01 1.990700000000000045e+03
5.100000000000000366e-02 1.400240000000000096e-01 1.155977500000000013e+01 6.550270000000000437e+01 1.990125000000000000e+03
5.200000000000000455e-02 1.399539999999999951e-01 1.033173500000000011e+01 6.266840000000000543e+01 1.989404999999999973e+03
5.300000000000000544e-02 1.398729999999999973e-01 9.003954999999999487e+00 5.963360000000000127e+01 1.988565000000000055e+03
5.399999999999999939e-02 1.397849999999999926e-01 7.618674999999999642e+00 5.652445000000000164e+01 1.987654999999999973e+03
5.500000000000000028e-02 1.396930000000000116e-01 6.217354999999999521e+00 5.345109999999999673e+01 1.986695000000000164e+03
5.600000000000000117e-02 1.396005000000000162e-01 4.840404999999999625e+00 5.050945000000000107e+01 1.985730000000000018e+03
5.700000000000000205e-02 1.395099999999999951e-01 3.527969999999999828e+00 4.778534999999999400e+01 1.984789999999999964e+03
5.800000000000000294e-02 1.394250000000000211e-01 2.320130499999999873e+00 4.535885000000000389e+01 1.983900000000000091e+03
5.900000000000000383e-02 1.393484999999999863e-01 1.256720000000000059e+00 4.330740000000000123e+01 1.983095000000000027e+03
6.000000000000000472e-02 1.392820000000000169e-01 3.764000000000000679e-01 4.170619999999999550e+01 1.982394999999999982e+03
6.099999999999999867e-02 1.392285000000000050e-01 -2.848300000000000276e-01 4.062595000000000312e+01 1.981819999999999936e+03
6.199999999999999956e-02 1.391904999999999948e-01 -6.956974999999999687e-01 4.012884999999999991e+01 1.981414999999999964e+03
6.300000000000000044e-02 1.391695000000000015e-01 -8.316665000000000862e-01 4.026340000000000430e+01 1.981179999999999836e+03
6.400000000000000133e-02 1.391674999999999995e-01 -6.768039999999999612e-01 4.105915000000000248e+01 1.981139999999999873e+03
6.500000000000000222e-02 1.391854999999999898e-01 -2.250874999999999404e-01 4.252309999999999945e+01 1.981305000000000064e+03
6.600000000000000311e-02 1.392235000000000000e-01 5.190099999999999714e-01 4.463729999999999620e+01 1.981679999999999836e+03
6.700000000000000400e-02 1.392815000000000025e-01 1.540724500000000052e+00 4.735954999999999870e+01 1.982255000000000109e+03
6.800000000000000488e-02 1.393579999999999819e-01 2.815912049999999667e+00 5.062545000000000073e+01 1.983034999999999854e+03
6.900000000000000577e-02 1.394515000000000060e-01 4.312574999999999825e+00 5.435290000000000532e+01 1.983989999999999782e+03
7.000000000000000666e-02 1.395599999999999896e-01 5.992795000000000094e+00 5.844735000000000014e+01 1.985105000000000018e+03
7.100000000000000755e-02 1.396804999999999852e-01 7.814859999999999474e+00 6.280769999999999698e+01 1.986355000000000018e+03
7.200000000000000844e-02 1.398105000000000042e-01 9.735490000000000421e+00 6.733254999999999768e+01 1.987700000000000045e+03
7.300000000000000933e-02 1.399469999999999881e-01 1.171190499999999979e+01 7.192545000000001210e+01 1.989119999999999891e+03
7.399999999999999634e-02 1.400875000000000037e-01 1.370403999999999911e+01 7.650000000000000000e+01 1.990585000000000036e+03
7.499999999999999722e-02 1.402279999999999915e-01 1.567579999999999885e+01 8.098359999999999559e+01 1.992065000000000055e+03
7.599999999999999811e-02 1.403685000000000072e-01 1.759680000000000177e+01 8.532009999999999650e+01 1.993539999999999964e+03
7.699999999999999900e-02 1.405059999999999920e-01 1.944300000000000139e+01 8.947159999999999513e+01 1.994994999999999891e+03
7.799999999999999989e-02 1.406390000000000140e-01 2.119754999999999967e+01 9.341874999999998863e+01 1.996409999999999854e+03
7.900000000000000078e-02 1.407669999999999755e-01 2.285034999999999883e+01 9.715864999999999441e+01 1.997769999999999982e+03
8.000000000000000167e-02 1.408905000000000018e-01 2.439780000000000015e+01 1.007048000000000059e+02 1.999085000000000036e+03
8.100000000000000255e-02 1.410080000000000222e-01 2.584205000000000041e+01 1.040822499999999877e+02 2.000345000000000027e+03
8.200000000000000344e-02 1.411215000000000108e-01 2.718954999999999700e+01 1.073234999999999957e+02 2.001559999999999945e+03
8.300000000000000433e-02 1.412315000000000098e-01 2.845009999999999906e+01 1.104660000000000082e+02 2.002740000000000009e+03
8.400000000000000522e-02 1.413384999999999780e-01 2.963475000000000037e+01 1.135474999999999994e+02 2.003889999999999873e+03
8.500000000000000611e-02 1.414434999999999998e-01 3.075519999999999854e+01 1.166009999999999991e+02 2.005019999999999982e+03
8.600000000000000699e-02 1.415474999999999928e-01 3.182204999999999728e+01 1.196525000000000034e+02 2.006139999999999873e+03
8.700000000000000788e-02 1.416509999999999991e-01 3.284394999999999953e+01 1.227220000000000084e+02 2.007255000000000109e+03
8.800000000000000877e-02 1.417549999999999921e-01 3.382680000000000575e+01 1.258160000000000025e+02 2.008375000000000000e+03
8.899999999999999578e-02 1.418590000000000129e-01 3.477349999999999852e+01 1.289335000000000093e+02 2.009494999999999891e+03
8.999999999999999667e-02 1.419630000000000059e-01 3.568375000000000341e+01 1.320620000000000118e+02 2.010619999999999891e+03
9.099999999999999756e-02 1.420675000000000132e-01 3.655400000000000205e+01 1.351814999999999998e+02 2.011744999999999891e+03
9.199999999999999845e-02 1.421715000000000062e-01 3.737800000000000011e+01 1.382640000000000100e+02 2.012869999999999891e+03
9.299999999999999933e-02 1.422740000000000116e-01 3.814724999999999966e+01 1.412764999999999986e+02 2.013980000000000018e+03
9.400000000000000022e-02 1.423740000000000006e-01 3.885144999999999982e+01 1.441835000000000093e+02 2.015059999999999945e+03
9.500000000000000111e-02 1.424710000000000143e-01 3.947939999999999827e+01 1.469474999999999909e+02 2.016110000000000127e+03
9.600000000000000200e-02 1.425635000000000097e-01 4.001959999999999695e+01 1.495335000000000036e+02 2.017115000000000009e+03
9.700000000000000289e-02 1.426505000000000134e-01 4.046080000000000609e+01 1.519074999999999989e+02 2.018059999999999945e+03
9.800000000000000377e-02 1.427309999999999968e-01 4.079285000000000139e+01 1.540399999999999920e+02 2.018944999999999936e+03
9.900000000000000466e-02 1.428045000000000009e-01 4.100709999999999411e+01 1.559070000000000107e+02 2.019744999999999891e+03
1.000000000000000056e-01 1.428694999999999826e-01 4.109694999999999965e+01 1.574909999999999854e+02 2.020460000000000036e+03
1.010000000000000064e-01 1.429269999999999985e-01 4.105825000000000102e+01 1.587805000000000177e+02 2.021085000000000036e+03
1.020000000000000073e-01 1.429739999999999900e-01 4.088939999999999486e+01 1.597715000000000032e+02 2.021610000000000127e+03
1.030000000000000082e-01 1.430124999999999869e-01 4.059205000000000041e+01 1.604669999999999845e+02 2.022039999999999964e+03
1.040000000000000091e-01 1.430420000000000025e-01 4.017029999999999745e+01 1.608774999999999977e+02 2.022369999999999891e+03
1.050000000000000100e-01 1.430619999999999947e-01 3.963160000000000593e+01 1.610205000000000268e+02 2.022599999999999909e+03
1.059999999999999970e-01 1.430744999999999933e-01 3.898559999999999803e+01 1.609180000000000064e+02 2.022744999999999891e+03
1.069999999999999979e-01 1.430784999999999973e-01 3.824455000000000382e+01 1.605985000000000014e+02 2.022800000000000182e+03
1.079999999999999988e-01 1.430750000000000077e-01 3.742225000000000534e+01 1.600939999999999941e+02 2.022775000000000091e+03
1.089999999999999997e-01 1.430659999999999987e-01 3.653395000000000437e+01 1.594375000000000000e+02 2.022684999999999945e+03
1.100000000000000006e-01 1.430514999999999981e-01 3.559555000000000291e+01 1.586645000000000039e+02 2.022539999999999964e+03
1.110000000000000014e-01 1.430325000000000069e-01 3.462304999999999922e+01 1.578089999999999975e+02 2.022340000000000146e+03
1.120000000000000023e-01 1.430104999999999849e-01 3.363195000000000334e+01 1.569029999999999916e+02 2.022110000000000127e+03
1.130000000000000032e-01 1.429865000000000164e-01 3.263680000000000092e+01 1.559764999999999873e+02 2.021855000000000018e+03
1.140000000000000041e-01 1.429604999999999904e-01 3.165055000000000263e+01 1.550550000000000068e+02 2.021579999999999927e+03
1.150000000000000050e-01 1.429344999999999921e-01 3.068440000000000367e+01 1.541580000000000155e+02 2.021295000000000073e+03
1.160000000000000059e-01 1.429084999999999939e-01 2.974730000000000274e+01 1.533015000000000043e+02 2.021009999999999991e+03
1.170000000000000068e-01 1.428829999999999822e-01 2.884584999999999866e+01 1.524954999999999927e+02 2.020735000000000127e+03
1.180000000000000077e-01 1.428579999999999850e-01 2.798420000000000130e+01 1.517439999999999998e+02 2.020470000000000027e+03
1.190000000000000085e-01 1.428349999999999898e-01 2.716404999999999959e+01 1.510459999999999923e+02 2.020210000000000036e+03
1.200000000000000094e-01 1.428125000000000089e-01 2.638485000000000014e+01 1.503954999999999984e+02 2.019964999999999918e+03
1.209999999999999964e-01 1.427910000000000013e-01 2.564389999999999858e+01 1.497814999999999941e+02 2.019730000000000018e+03
1.219999999999999973e-01 1.427710000000000090e-01 2.493670000000000186e+01 1.491915000000000191e+02 2.019505000000000109e+03
1.229999999999999982e-01 1.427505000000000024e-01 2.425724999999999909e+01 1.486084999999999923e+02 2.019289999999999964e+03
1.239999999999999991e-01 1.427315000000000111e-01 2.359854999999999947e+01 1.480155000000000030e+02 2.019069999999999936e+03
1.250000000000000000e-01 1.427110000000000045e-01 2.295279999999999987e+01 1.473930000000000007e+02 2.018849999999999909e+03
1.260000000000000009e-01 1.426899999999999835e-01 2.231214999999999904e+01 1.467235000000000014e+02 2.018619999999999891e+03
1.270000000000000018e-01 1.426675000000000026e-01 2.166904999999999859e+01 1.459904999999999973e+02 2.018375000000000000e+03
1.280000000000000027e-01 1.426430000000000198e-01 2.101640000000000086e+01 1.451790000000000020e+02 2.018110000000000127e+03
1.290000000000000036e-01 1.426165000000000072e-01 2.034825000000000017e+01 1.442794999999999845e+02 2.017819999999999936e+03
1.300000000000000044e-01 1.425870000000000193e-01 1.966009999999999991e+01 1.432819999999999823e+02 2.017500000000000000e+03
1.310000000000000053e-01 1.425549999999999873e-01 1.894885000000000019e+01 1.421850000000000023e+02 2.017155000000000200e+03
1.320000000000000062e-01 1.425200000000000078e-01 1.821344999999999814e+01 1.409890000000000043e+02 2.016779999999999973e+03
1.330000000000000071e-01 1.424819999999999975e-01 1.745454999999999757e+01 1.396999999999999886e+02 2.016369999999999891e+03
1.340000000000000080e-01 1.424409999999999843e-01 1.667484999999999928e+01 1.383280000000000030e+02 2.015930000000000064e+03
1.350000000000000089e-01 1.423979999999999968e-01 1.587890000000000157e+01 1.368880000000000052e+02 2.015465000000000146e+03
1.360000000000000098e-01 1.423524999999999929e-01 1.507270000000000110e+01 1.353975000000000080e+02 2.014974999999999909e+03
1.370000000000000107e-01 1.423055000000000014e-01 1.426385000000000147e+01 1.338765000000000214e+02 2.014470000000000027e+03
1.380000000000000115e-01 1.422569999999999946e-01 1.346069999999999922e+01 1.323480000000000132e+02 2.013950000000000045e+03
1.390000000000000124e-01 1.422085000000000155e-01 1.267255000000000109e+01 1.308360000000000127e+02 2.013429999999999836e+03
1.400000000000000133e-01 1.421605000000000230e-01 1.190875499999999931e+01 1.293629999999999995e+02 2.012909999999999854e+03
1.410000000000000142e-01 1.421129999999999893e-01 1.117849499999999985e+01 1.279525000000000148e+02 2.012400000000000091e+03
1.420000000000000151e-01 1.420675000000000132e-01 1.049048499999999962e+01 1.266239999999999952e+02 2.011910000000000082e+03
1.430000000000000160e-01 1.420244999999999980e-01 9.852410000000000778e+00 1.253944999999999936e+02 2.011440000000000055e+03
1.440000000000000169e-01 1.419834999999999847e-01 9.270714999999999151e+00 1.242794999999999987e+02 2.011005000000000109e+03
1.450000000000000178e-01 1.419459999999999888e-01 8.750450000000000728e+00 1.232874999999999943e+02 2.010595000000000027e+03
1.459999999999999909e-01 1.419124999999999970e-01 8.294964999999999478e+00 1.224254999999999995e+02 2.010230000000000018e+03
1.469999999999999918e-01 1.418829999999999814e-01 7.905995000000000772e+00 1.216959999999999980e+02 2.009904999999999973e+03
1.479999999999999927e-01 1.418570000000000109e-01 7.583565000000000111e+00 1.210970000000000084e+02 2.009619999999999891e+03
1.489999999999999936e-01 1.418345000000000022e-01 7.326124999999999332e+00 1.206229999999999905e+02 2.009380000000000109e+03
1.499999999999999944e-01 1.418159999999999976e-01 7.130675000000000097e+00 1.202655000000000030e+02 2.009175000000000182e+03
1.509999999999999953e-01 1.418014999999999970e-01 6.992964999999999876e+00 1.200130000000000052e+02 2.009009999999999991e+03
1.519999999999999962e-01 1.417904999999999860e-01 6.907724999999999227e+00 1.198545000000000016e+02 2.008884999999999991e+03
1.529999999999999971e-01 1.417820000000000191e-01 6.868890000000000384e+00 1.197744999999999891e+02 2.008789999999999964e+03
1.539999999999999980e-01 1.417764999999999997e-01 6.869865000000000776e+00 1.197595000000000027e+02 2.008720000000000027e+03
1.549999999999999989e-01 1.417730000000000101e-01 6.903785000000000061e+00 1.197944999999999993e+02 2.008679999999999836e+03
1.559999999999999998e-01 1.417714999999999947e-01 6.963729999999999976e+00 1.198650000000000091e+02 2.008654999999999973e+03
1.570000000000000007e-01 1.417709999999999804e-01 7.042925000000000324e+00 1.199574999999999960e+02 2.008650000000000091e+03
1.580000000000000016e-01 1.417714999999999947e-01 7.134959999999999525e+00 1.200614999999999952e+02 2.008650000000000091e+03
1.590000000000000024e-01 1.417729999999999824e-01 7.233929999999999971e+00 1.201645000000000039e+02 2.008664999999999964e+03
