# t [s], A [cm^2], U [cm/s], P [cPa], c [cm/s]
1.000000000000000021e-03 7.129280000000000062e-01 4.750499999999997780e-03 1.045045000000000073e+02 1.618105000000000018e+03
2.000000000000000042e-03 7.129185000000000105e-01 9.937200000000000200e-04 1.044800000000000040e+02 1.618105000000000018e+03
3.000000000000000062e-03 7.129840000000000622e-01 1.034645000000000009e-01 1.045910000000000082e+02 1.618125000000000000e+03
4.000000000000000083e-03 7.130350000000000854e-01 1.927895149999999946e-01 1.047050000000000125e+02 1.618154999999999973e+03
5.000000000000000104e-03 7.130009999999999959e-01 1.578053999999999846e-01 1.046340000000000003e+02 1.618144999999999982e+03
6.000000000000000125e-03 7.129289999999999239e-01 5.890750000000000153e-02 1.044074999999999989e+02 1.618095000000000027e+03
7.000000000000000146e-03 7.128619999999999957e-01 -4.087299999999999267e-02 1.041115000000000066e+02 1.618034999999999854e+03
8.000000000000000167e-03 7.127520000000000522e-01 -2.204700000000000548e-01 1.036620000000000061e+02 1.617944999999999936e+03
9.000000000000001055e-03 7.125690000000000079e-01 -5.306449999999999223e-01 1.029685000000000059e+02 1.617804999999999836e+03
1.000000000000000194e-02 7.123064999999999536e-01 -9.754450000000000065e-01 1.019834000000000032e+02 1.617599999999999909e+03
1.099999999999999936e-02 7.119459999999999678e-01 -1.573170000000000179e+00 1.006404500000000013e+02 1.617324999999999818e+03
1.200000000000000025e-02 7.114789999999999726e-01 -2.315850000000000186e+00 9.890125000000000455e+01 1.616954999999999927e+03
1.300000000000000114e-02 7.109464999999999257e-01 -3.113094999999999946e+00 9.683994999999998754e+01 1.616505000000000109e+03
1.400000000000000203e-02 7.104215000000000391e-01 -3.812270000000000270e+00 9.464574999999999250e+01 1.616014999999999873e+03
1.499999999999999944e-02 7.099714999999999776e-01 -4.271848499999999937e+00 9.253835000000000832e+01 1.615519999999999982e+03
1.600000000000000033e-02 7.096215000000000162e-01 -4.419679999999999609e+00 9.067519999999998959e+01 1.615054999999999836e+03
1.700000000000000122e-02 7.093575000000000852e-01 -4.266258500000000176e+00 8.910470000000000823e+01 1.614639999999999873e+03
1.800000000000000211e-02 7.091354999999999187e-01 -3.882811999999999930e+00 8.777304999999999779e+01 1.614259999999999991e+03
1.900000000000000300e-02 7.089075000000000237e-01 -3.364660999999999902e+00 8.656385000000000218e+01 1.613904999999999973e+03
2.000000000000000042e-02 7.086369999999999614e-01 -2.795304000000000233e+00 8.535030000000000427e+01 1.613555000000000064e+03
2.100000000000000130e-02 7.083079999999999377e-01 -2.221845000000000070e+00 8.404134999999999422e+01 1.613184999999999945e+03
2.200000000000000219e-02 7.079294999999999893e-01 -1.648804999999999854e+00 8.260665000000000191e+01 1.612789999999999964e+03
2.299999999999999961e-02 7.075255000000000294e-01 -1.050925000000000109e+00 8.107269999999999754e+01 1.612380000000000109e+03
2.400000000000000050e-02 7.071199999999999708e-01 -3.974599999999997024e-01 7.949600000000000932e+01 1.611960000000000036e+03
2.500000000000000139e-02 7.067265000000000352e-01 3.242199999999999527e-01 7.792754999999999654e+01 1.611529999999999973e+03
2.600000000000000228e-02 7.063420000000000254e-01 1.094609999999999861e+00 7.638405000000000200e+01 1.611110000000000127e+03
2.700000000000000316e-02 7.059480000000000199e-01 1.861049999999999871e+00 7.483494999999999209e+01 1.610684999999999945e+03
2.800000000000000058e-02 7.055145000000000444e-01 2.547784999999999300e+00 7.320669999999999789e+01 1.610244999999999891e+03
2.900000000000000147e-02 7.050095000000000667e-01 3.072959999999999248e+00 7.140120000000000289e+01 1.609769999999999982e+03
3.000000000000000236e-02 7.044084999999999930e-01 3.367919999999999803e+00 6.932269999999999754e+01 1.609244999999999891e+03
3.099999999999999978e-02 7.037014999999999798e-01 3.393825000000000092e+00 6.690630000000000166e+01 1.608644999999999982e+03
3.200000000000000067e-02 7.028969999999999940e-01 3.151169999999999582e+00 6.413965000000000316e+01 1.607974999999999909e+03
3.300000000000000155e-02 7.020224999999999937e-01 2.679820000000000313e+00 6.107254999999999967e+01 1.607244999999999891e+03
3.400000000000000244e-02 7.011164999999999203e-01 2.049610000000000376e+00 5.781145000000000067e+01 1.606464999999999918e+03
3.500000000000000333e-02 7.002245000000000275e-01 1.346090000000000231e+00 5.450209999999999866e+01 1.605664999999999964e+03
3.600000000000000422e-02 6.993909999999999849e-01 6.550300000000000011e-01 5.130630000000000024e+01 1.604884999999999991e+03
3.700000000000000511e-02 6.986509999999999110e-01 5.039499999999996760e-02 4.837935000000000230e+01 1.604150000000000091e+03
3.799999999999999906e-02 6.980319999999999858e-01 -4.121800000000002129e-01 4.585214999999999463e+01 1.603494999999999891e+03
3.899999999999999994e-02 6.975495000000000445e-01 -6.972000000000000419e-01 4.382150000000000034e+01 1.602950000000000045e+03
4.000000000000000083e-02 6.972104999999999553e-01 -7.866700000000002024e-01 4.234694999999999965e+01 1.602519999999999982e+03
4.100000000000000172e-02 6.970149999999999402e-01 -6.752650000000000041e-01 4.145449999999999591e+01 1.602230000000000018e+03
4.200000000000000261e-02 6.969589999999999952e-01 -3.647084999999999910e-01 4.114359999999999928e+01 1.602069999999999936e+03
4.300000000000000350e-02 6.970374999999999766e-01 1.408809999999999785e-01 4.139625000000000199e+01 1.602049999999999955e+03
4.400000000000000439e-02 6.972430000000000572e-01 8.378400000000000292e-01 4.218495000000000061e+01 1.602160000000000082e+03
4.499999999999999833e-02 6.975705000000000933e-01 1.723540000000000294e+00 4.347769999999999868e+01 1.602400000000000091e+03
4.599999999999999922e-02 6.980124999999999247e-01 2.795015000000000249e+00 4.524084999999999468e+01 1.602755000000000109e+03
4.700000000000000011e-02 6.985624999999999751e-01 4.046560000000000379e+00 4.743834999999999980e+01 1.603224999999999909e+03
4.800000000000000100e-02 6.992104999999999571e-01 5.467194999999999361e+00 5.002984999999999616e+01 1.603795000000000073e+03
4.900000000000000189e-02 6.999435000000000517e-01 7.038981999999999850e+00 5.296875000000000000e+01 1.604454999999999927e+03
5.000000000000000278e-02 7.007475000000000787e-01 8.736716499999999996e+00 5.620085000000000264e+01 1.605195000000000164e+03
5.100000000000000366e-02 7.016054999999999930e-01 1.052894499999999844e+01 5.966474999999999795e+01 1.606005000000000109e+03
5.200000000000000455e-02 7.025000000000000133e-01 1.237986500000000056e+01 6.329394999999999527e+01 1.606860000000000127e+03
5.300000000000000544e-02 7.034119999999999262e-01 1.425220999999999982e+01 6.701980000000000359e+01 1.607750000000000000e+03
5.399999999999999939e-02 7.043254999999999377e-01 1.611006499999999875e+01 7.077609999999999957e+01 1.608664999999999964e+03
5.500000000000000028e-02 7.052275000000000071e-01 1.792127500000000140e+01 7.450274999999999181e+01 1.609579999999999927e+03
5.600000000000000117e-02 7.061055000000000526e-01 1.965939999999999799e+01 7.814930000000001087e+01 1.610490000000000009e+03
5.700000000000000205e-02 7.069529999999999426e-01 2.130470000000000041e+01 8.167754999999999654e+01 1.611384999999999991e+03
5.800000000000000294e-02 7.077655000000000474e-01 2.284440000000000026e+01 8.506270000000000664e+01 1.612250000000000000e+03
5.900000000000000383e-02 7.085420000000000051e-01 2.427230000000000132e+01 8.829325000000000045e+01 1.613085000000000036e+03
6.000000000000000472e-02 7.092849999999999433e-01 2.558800000000000097e+01 9.136965000000000714e+01 1.613894999999999982e+03
6.099999999999999867e-02 7.099980000000000180e-01 2.679579999999999984e+01 9.430344999999999800e+01 1.614664999999999964e+03
6.199999999999999956e-02 7.106859999999999289e-01 2.790354999999999919e+01 9.711305000000000121e+01 1.615409999999999854e+03
6.300000000000000044e-02 7.113570000000000171e-01 2.892145000000000010e+01 9.982274999999999920e+01 1.616134999999999991e+03
6.400000000000000133e-02 7.120159999999999823e-01 2.986074999999999946e+01 1.024599000000000046e+02 1.616835000000000036e+03
6.500000000000000222e-02 7.126689999999999969e-01 3.073324999999999818e+01 1.050512999999999977e+02 1.617530000000000200e+03
6.600000000000000311e-02 7.133229999999999293e-01 3.154974999999999952e+01 1.076214999999999975e+02 1.618210000000000036e+03
6.700000000000000400e-02 7.139800000000000590e-01 3.231954999999999956e+01 1.101920000000000073e+02 1.618894999999999982e+03
6.800000000000000488e-02 7.146445000000000158e-01 3.304959999999999809e+01 1.127750000000000057e+02 1.619574999999999818e+03
6.900000000000000577e-02 7.153159999999999519e-01 3.374399999999999977e+01 1.153795000000000073e+02 1.620259999999999991e+03
7.000000000000000666e-02 7.159929999999999906e-01 3.440370000000000061e+01 1.180035000000000025e+02 1.620949999999999818e+03
7.100000000000000755e-02 7.166725000000000456e-01 3.502649999999999864e+01 1.206375000000000028e+02 1.621639999999999873e+03
7.200000000000000844e-02 7.173495000000000843e-01 3.560745000000000005e+01 1.232669999999999959e+02 1.622329999999999927e+03
7.300000000000000933e-02 7.180180000000000451e-01 3.613930000000000575e+01 1.258674999999999926e+02 1.623014999999999873e+03
7.399999999999999634e-02 7.186704999999999899e-01 3.661315000000000452e+01 1.284134999999999991e+02 1.623684999999999945e+03
7.499999999999999722e-02 7.192994999999999806e-01 3.701935000000000286e+01 1.308750000000000000e+02 1.624340000000000146e+03
7.599999999999999811e-02 7.198970000000000091e-01 3.734820000000000562e+01 1.332225000000000250e+02 1.624970000000000027e+03
7.699999999999999900e-02 7.204574999999999729e-01 3.759069999999999823e+01 1.354264999999999759e+02 1.625565000000000055e+03
7.799999999999999989e-02 7.209734999999999339e-01 3.773905000000000598e+01 1.374610000000000127e+02 1.626115000000000009e+03
7.900000000000000078e-02 7.214409999999999989e-01 3.778754999999999598e+01 1.393045000000000186e+02 1.626630000000000109e+03
8.000000000000000167e-02 7.218560000000000532e-01 3.773219999999999885e+01 1.409395000000000095e+02 1.627094999999999800e+03
8.100000000000000255e-02 7.222155000000000102e-01 3.757160000000000366e+01 1.423555000000000064e+02 1.627500000000000000e+03
8.200000000000000344e-02 7.225205000000000100e-01 3.730669999999999931e+01 1.435469999999999970e+02 1.627849999999999909e+03
8.300000000000000433e-02 7.227700000000000236e-01 3.694095000000000084e+01 1.445155000000000030e+02 1.628150000000000091e+03
8.400000000000000522e-02 7.229665000000000674e-01 3.647990000000000066e+01 1.452669999999999959e+02 1.628389999999999873e+03
8.500000000000000611e-02 7.231134999999999646e-01 3.593160000000000309e+01 1.458129999999999882e+02 1.628585000000000036e+03
8.600000000000000699e-02 7.232155000000000111e-01 3.530570000000000164e+01 1.461700000000000159e+02 1.628724999999999909e+03
8.700000000000000788e-02 7.232769999999999477e-01 3.461375000000000313e+01 1.463590000000000089e+02 1.628815000000000055e+03
8.800000000000000877e-02 7.233039999999999470e-01 3.386825000000000330e+01 1.464025000000000034e+02 1.628869999999999891e+03
8.899999999999999578e-02 7.233020000000000005e-01 3.308259999999999934e+01 1.463255000000000052e+02 1.628884999999999991e+03
8.999999999999999667e-02 7.232784999999999354e-01 3.227029999999999887e+01 1.461544999999999845e+02 1.628880000000000109e+03
9.099999999999999756e-02 7.232395000000000351e-01 3.144480000000000075e+01 1.459139999999999873e+02 1.628845000000000027e+03
9.199999999999999845e-02 7.231899999999999995e-01 3.061864999999999881e+01 1.456295000000000073e+02 1.628800000000000182e+03
9.299999999999999933e-02 7.231360000000000010e-01 2.980310000000000059e+01 1.453234999999999957e+02 1.628740000000000009e+03
9.400000000000000022e-02 7.230810000000000848e-01 2.900764999999999816e+01 1.450140000000000100e+02 1.628674999999999955e+03
9.500000000000000111e-02 7.230289999999999218e-01 2.823975000000000080e+01 1.447175000000000011e+02 1.628610000000000127e+03
9.600000000000000200e-02 7.229820000000000135e-01 2.750459999999999638e+01 1.444445000000000050e+02 1.628545000000000073e+03
9.700000000000000289e-02 7.229415000000000147e-01 2.680489999999999995e+01 1.442019999999999982e+02 1.628485000000000127e+03
9.800000000000000377e-02 7.229069999999999663e-01 2.614099999999999824e+01 1.439909999999999854e+02 1.628430000000000064e+03
9.900000000000000466e-02 7.228779999999999095e-01 2.551105000000000089e+01 1.438110000000000070e+02 1.628375000000000000e+03
1.000000000000000056e-01 7.228520000000000501e-01 2.491110000000000113e+01 1.436535000000000082e+02 1.628329999999999927e+03
1.010000000000000064e-01 7.228265000000000384e-01 2.433585000000000065e+01 1.435110000000000241e+02 1.628295000000000073e+03
1.020000000000000073e-01 7.227989999999999693e-01 2.377864999999999895e+01 1.433700000000000045e+02 1.628250000000000000e+03
1.030000000000000082e-01 7.227660000000000196e-01 2.323210000000000264e+01 1.432180000000000177e+02 1.628210000000000036e+03
1.040000000000000091e-01 7.227234999999999632e-01 2.268854999999999933e+01 1.430414999999999850e+02 1.628159999999999854e+03
1.050000000000000100e-01 7.226690000000000058e-01 2.214045000000000130e+01 1.428265000000000100e+02 1.628099999999999909e+03
1.059999999999999970e-01 7.225999999999999091e-01 2.158099999999999952e+01 1.425595000000000141e+02 1.628039999999999964e+03
1.069999999999999979e-01 7.225129999999999608e-01 2.100404999999999944e+01 1.422309999999999945e+02 1.627954999999999927e+03
1.079999999999999988e-01 7.224074999999999802e-01 2.040494999999999948e+01 1.418324999999999818e+02 1.627855000000000018e+03
1.089999999999999997e-01 7.222824999999999385e-01 1.978034999999999854e+01 1.413584999999999923e+02 1.627744999999999891e+03
1.100000000000000006e-01 7.221374999999999877e-01 1.912879999999999825e+01 1.408075000000000045e+02 1.627609999999999900e+03
1.110000000000000014e-01 7.219735000000000458e-01 1.845040000000000191e+01 1.401804999999999950e+02 1.627460000000000036e+03
1.120000000000000023e-01 7.217919999999999892e-01 1.774725000000000108e+01 1.394825000000000159e+02 1.627289999999999964e+03
1.130000000000000032e-01 7.215960000000000152e-01 1.702304999999999779e+01 1.387225000000000250e+02 1.627110000000000127e+03
1.140000000000000041e-01 7.213884999999999881e-01 1.628320000000000078e+01 1.379110000000000014e+02 1.626910000000000082e+03
1.150000000000000050e-01 7.211730000000000640e-01 1.553434999999999988e+01 1.370629999999999882e+02 1.626700000000000045e+03
1.160000000000000059e-01 7.209535000000000249e-01 1.478439999999999976e+01 1.361929999999999836e+02 1.626490000000000009e+03
1.170000000000000068e-01 7.207350000000000145e-01 1.404183500000000073e+01 1.353199999999999932e+02 1.626269999999999982e+03
1.180000000000000077e-01 7.205219999999999958e-01 1.331559500000000185e+01 1.344604999999999961e+02 1.626054999999999836e+03
1.190000000000000085e-01 7.203184999999999727e-01 1.261467500000000008e+01 1.336324999999999932e+02 1.625844999999999800e+03
1.200000000000000094e-01 7.201284999999999492e-01 1.194764999999999944e+01 1.328530000000000086e+02 1.625639999999999873e+03
1.209999999999999964e-01 7.199564999999999992e-01 1.132233499999999893e+01 1.321374999999999886e+02 1.625454999999999927e+03
1.219999999999999973e-01 7.198039999999999994e-01 1.074546499999999938e+01 1.314989999999999952e+02 1.625279999999999973e+03
1.229999999999999982e-01 7.196744999999999948e-01 1.022241999999999962e+01 1.309480000000000075e+02 1.625130000000000109e+03
1.239999999999999991e-01 7.195690000000000142e-01 9.757075000000000387e+00 1.304915000000000020e+02 1.624994999999999891e+03
1.250000000000000000e-01 7.194880000000000164e-01 9.351575000000000415e+00 1.301330000000000098e+02 1.624889999999999873e+03
1.260000000000000009e-01 7.194310000000000427e-01 9.006450000000000955e+00 1.298729999999999905e+02 1.624804999999999836e+03
1.270000000000000018e-01 7.193979999999999819e-01 8.720485000000000042e+00 1.297094999999999914e+02 1.624744999999999891e+03
1.280000000000000027e-01 7.193864999999999288e-01 8.490980000000000416e+00 1.296365000000000123e+02 1.624710000000000036e+03
1.290000000000000036e-01 7.193939999999999779e-01 8.313834999999999198e+00 1.296454999999999984e+02 1.624690000000000055e+03
1.300000000000000044e-01 7.194184999999999608e-01 8.183914999999998940e+00 1.297255000000000109e+02 1.624690000000000055e+03
1.310000000000000053e-01 7.194555000000000256e-01 8.095224999999999227e+00 1.298654999999999973e+02 1.624710000000000036e+03
1.320000000000000062e-01 7.195034999999999625e-01 8.041225000000000733e+00 1.300525000000000091e+02 1.624735000000000127e+03
1.330000000000000071e-01 7.195584999999999898e-01 8.015150000000000219e+00 1.302730000000000246e+02 1.624779999999999973e+03
1.340000000000000080e-01 7.196169999999999511e-01 8.010239999999999583e+00 1.305140000000000100e+02 1.624829999999999927e+03
1.350000000000000089e-01 7.196770000000000111e-01 8.020004999999999384e+00 1.307644999999999982e+02 1.624884999999999991e+03
1.360000000000000098e-01 7.197354999999999725e-01 8.038409999999998945e+00 1.310134999999999934e+02 1.624934999999999945e+03
1.370000000000000107e-01 7.197904999999999998e-01 8.060075000000001211e+00 1.312510000000000048e+02 1.624989999999999782e+03
1.380000000000000115e-01 7.198409999999999531e-01 8.080344999999999445e+00 1.314705000000000155e+02 1.625039999999999964e+03
1.390000000000000124e-01 7.198849999999999971e-01 8.095379999999998688e+00 1.316655000000000086e+02 1.625090000000000146e+03
1.400000000000000133e-01 7.199214999999999920e-01 8.102204999999999657e+00 1.318324999999999818e+02 1.625130000000000109e+03
1.410000000000000142e-01 7.199515000000000775e-01 8.098670000000000258e+00 1.319699999999999989e+02 1.625164999999999964e+03
1.420000000000000151e-01 7.199740000000000029e-01 8.083455000000000723e+00 1.320769999999999982e+02 1.625200000000000045e+03
1.430000000000000160e-01 7.199889999999999901e-01 8.055975000000000108e+00 1.321539999999999964e+02 1.625220000000000027e+03
1.440000000000000169e-01 7.199984999999999857e-01 8.016339999999999577e+00 1.322040000000000077e+02 1.625235000000000127e+03
1.450000000000000178e-01 7.200025000000001008e-01 7.965225000000000222e+00 1.322295000000000016e+02 1.625250000000000000e+03
1.459999999999999909e-01 7.200020000000000309e-01 7.903810000000000002e+00 1.322340000000000089e+02 1.625250000000000000e+03
1.469999999999999918e-01 7.199975000000000680e-01 7.833639999999999048e+00 1.322219999999999800e+02 1.625255000000000109e+03
1.479999999999999927e-01 7.199910000000000476e-01 7.756539999999999324e+00 1.321980000000000075e+02 1.625250000000000000e+03
1.489999999999999936e-01 7.199839999999999574e-01 7.674475000000001046e+00 1.321664999999999850e+02 1.625250000000000000e+03
1.499999999999999944e-01 7.199754999999999905e-01 7.589484999999999815e+00 1.321310000000000002e+02 1.625240000000000009e+03
1.509999999999999953e-01 7.199685000000000112e-01 7.503560000000000230e+00 1.320949999999999989e+02 1.625235000000000127e+03
1.519999999999999962e-01 7.199619999999999909e-01 7.418544999999999945e+00 1.320629999999999882e+02 1.625230000000000018e+03
1.529999999999999971e-01 7.199575000000000280e-01 7.336075000000000124e+00 1.320364999999999895e+02 1.625224999999999909e+03
1.539999999999999980e-01 7.199550000000000116e-01 7.257535000000000736e+00 1.320180000000000007e+02 1.625224999999999909e+03
1.549999999999999989e-01 7.199554999999999705e-01 7.183959999999999013e+00 1.320074999999999932e+02 1.625215000000000146e+03
1.559999999999999998e-01 7.199580000000000979e-01 7.116080000000000183e+00 1.320065000000000168e+02 1.625220000000000027e+03
1.570000000000000007e-01 7.199625000000000608e-01 7.054265000000000008e+00 1.320140000000000100e+02 1.625220000000000027e+03
1.580000000000000016e-01 7.199690000000000811e-01 6.998579999999999579e+00 1.320294999999999845e+02 1.625224999999999909e+03
1.590000000000000024e-01 7.199769999999999781e-01 6.948780000000000179e+00 1.320509999999999877e+02 1.625224999999999909e+03
