# t [s], A [cm^2], U [cm/s], P [cPa], c [cm/s]
1.000000000000000021e-03 1.637619999999999909e-01 1.968550000000000022e-01 8.731350000000000477e+01 1.789929999999999836e+03
2.000000000000000042e-03 1.637460000000000027e-01 1.414434999999999887e+00 8.496555000000000746e+01 1.789789999999999964e+03
3.000000000000000062e-03 1.636655000000000193e-01 2.926607500000000250e+00 8.195449999999999591e+01 1.789164999999999964e+03
4.000000000000000083e-03 1.635380000000000167e-01 4.601984999999999992e+00 7.850254999999999939e+01 1.788190000000000055e+03
5.000000000000000104e-03 1.633850000000000025e-01 6.401531500000000818e+00 7.512495000000001255e+01 1.787025000000000091e+03
6.000000000000000125e-03 1.632240000000000080e-01 8.262665000000000148e+00 7.216100000000000136e+01 1.785809999999999945e+03
7.000000000000000146e-03 1.630650000000000155e-01 1.007891500000000029e+01 6.967435000000000400e+01 1.784625000000000000e+03
8.000000000000000167e-03 1.629134999999999889e-01 1.174380000000000024e+01 6.754179999999999495e+01 1.783509999999999991e+03
9.000000000000001055e-03 1.627715000000000134e-01 1.320720000000000027e+01 6.564424999999999955e+01 1.782480000000000018e+03
1.000000000000000194e-02 1.626414999999999944e-01 1.447535999999999845e+01 6.396734999999999616e+01 1.781545000000000073e+03
1.099999999999999936e-02 1.625254999999999894e-01 1.556765000000000043e+01 6.254175000000000040e+01 1.780724999999999909e+03
1.200000000000000025e-02 1.624255000000000004e-01 1.649439999999999884e+01 6.137080000000000268e+01 1.780019999999999982e+03
1.300000000000000114e-02 1.623404999999999987e-01 1.726024999999999920e+01 6.042589999999999861e+01 1.779429999999999836e+03
1.400000000000000203e-02 1.622695000000000110e-01 1.786850000000000094e+01 5.966355000000000075e+01 1.778940000000000055e+03
1.499999999999999944e-02 1.622100000000000208e-01 1.832205000000000084e+01 5.903195000000000192e+01 1.778539999999999964e+03
1.600000000000000033e-02 1.621595000000000120e-01 1.863029999999999831e+01 5.848485000000000156e+01 1.778200000000000045e+03
1.700000000000000122e-02 1.621174999999999977e-01 1.882130000000000081e+01 5.801364999999999839e+01 1.777930000000000064e+03
1.800000000000000211e-02 1.620840000000000058e-01 1.894684999999999775e+01 5.767385000000000161e+01 1.777715000000000146e+03
1.900000000000000300e-02 1.620614999999999972e-01 1.907285000000000252e+01 5.757850000000000534e+01 1.777575000000000045e+03
2.000000000000000042e-02 1.620535000000000170e-01 1.925985000000000014e+01 5.785474999999999568e+01 1.777539999999999964e+03
2.100000000000000130e-02 1.620634999999999992e-01 1.954230000000000089e+01 5.858644999999999925e+01 1.777615000000000009e+03
2.200000000000000219e-02 1.620925000000000005e-01 1.991835000000000022e+01 5.977145000000000152e+01 1.777829999999999927e+03
2.299999999999999961e-02 1.621394999999999920e-01 2.035174999999999912e+01 6.131154999999999688e+01 1.778164999999999964e+03
2.400000000000000050e-02 1.621994999999999965e-01 2.078444999999999965e+01 6.303504999999999825e+01 1.778594999999999800e+03
2.500000000000000139e-02 1.622660000000000213e-01 2.115314999999999657e+01 6.473964999999999748e+01 1.779075000000000045e+03
2.600000000000000228e-02 1.623330000000000051e-01 2.140540000000000020e+01 6.624025000000000318e+01 1.779555000000000064e+03
2.700000000000000316e-02 1.623944999999999972e-01 2.151004999999999967e+01 6.740649999999999409e+01 1.780005000000000109e+03
2.800000000000000058e-02 1.624460000000000071e-01 2.146090000000000231e+01 6.818254999999999200e+01 1.780380000000000109e+03
2.900000000000000147e-02 1.624849999999999905e-01 2.127340000000000231e+01 6.858599999999999852e+01 1.780679999999999836e+03
3.000000000000000236e-02 1.625125000000000042e-01 2.097710000000000008e+01 6.868909999999999627e+01 1.780885000000000218e+03
3.099999999999999978e-02 1.625294999999999934e-01 2.060500000000000043e+01 6.859065000000001078e+01 1.781025000000000091e+03
3.200000000000000067e-02 1.625389999999999890e-01 2.018540000000000134e+01 6.838624999999998977e+01 1.781099999999999909e+03
3.300000000000000155e-02 1.625435000000000074e-01 1.973574999999999946e+01 6.814600000000000080e+01 1.781139999999999873e+03
3.400000000000000244e-02 1.625435000000000074e-01 1.926160000000000139e+01 6.790359999999999729e+01 1.781144999999999982e+03
3.500000000000000333e-02 1.625420000000000198e-01 1.875880000000000081e+01 6.765725000000000477e+01 1.781135000000000218e+03
3.600000000000000422e-02 1.625365000000000004e-01 1.821829999999999927e+01 6.738120000000000687e+01 1.781105000000000018e+03
3.700000000000000511e-02 1.625289999999999790e-01 1.763224999999999909e+01 6.704204999999998904e+01 1.781055000000000064e+03
3.799999999999999906e-02 1.625165000000000082e-01 1.699899999999999878e+01 6.661549999999999727e+01 1.780974999999999909e+03
3.899999999999999994e-02 1.625004999999999922e-01 1.632685000000000031e+01 6.609944999999999027e+01 1.780865000000000009e+03
4.000000000000000083e-02 1.624809999999999865e-01 1.563434999999999953e+01 6.552044999999999675e+01 1.780730000000000018e+03
4.100000000000000172e-02 1.624594999999999789e-01 1.494885000000000019e+01 6.493234999999999957e+01 1.780579999999999927e+03
4.200000000000000261e-02 1.624375000000000124e-01 1.430219999999999914e+01 6.440760000000000218e+01 1.780425000000000182e+03
4.300000000000000350e-02 1.624180000000000068e-01 1.372589999999999932e+01 6.402384999999999593e+01 1.780289999999999964e+03
4.400000000000000439e-02 1.624045000000000072e-01 1.324554999999999971e+01 6.384909999999999997e+01 1.780195000000000164e+03
4.499999999999999833e-02 1.623979999999999868e-01 1.287664999999999971e+01 6.392804999999999893e+01 1.780144999999999982e+03
4.599999999999999922e-02 1.624015000000000042e-01 1.262219999999999942e+01 6.427334999999999354e+01 1.780164999999999964e+03
4.700000000000000011e-02 1.624145000000000172e-01 1.247234999999999872e+01 6.486234999999999218e+01 1.780244999999999891e+03
4.800000000000000100e-02 1.624364999999999837e-01 1.240589999999999904e+01 6.564070000000000960e+01 1.780394999999999982e+03
4.900000000000000189e-02 1.624654999999999849e-01 1.239375000000000071e+01 6.652979999999999450e+01 1.780594999999999800e+03
5.000000000000000278e-02 1.624990000000000046e-01 1.240269999999999939e+01 6.743809999999999150e+01 1.780829999999999927e+03
5.100000000000000366e-02 1.625334999999999974e-01 1.239910000000000068e+01 6.827279999999998950e+01 1.781065000000000055e+03
5.200000000000000455e-02 1.625665000000000027e-01 1.235265000000000057e+01 6.895035000000000025e+01 1.781295000000000073e+03
5.300000000000000544e-02 1.625940000000000163e-01 1.223864999999999981e+01 6.940455000000000041e+01 1.781490000000000009e+03
5.399999999999999939e-02 1.626134999999999942e-01 1.203914999999999935e+01 6.959090000000000487e+01 1.781634999999999991e+03
5.500000000000000028e-02 1.626235000000000042e-01 1.174364999999999881e+01 6.948760000000000048e+01 1.781704999999999927e+03
5.600000000000000117e-02 1.626230000000000175e-01 1.134799999999999898e+01 6.909395000000000664e+01 1.781699999999999818e+03
5.700000000000000205e-02 1.626110000000000055e-01 1.085395499999999913e+01 6.842605000000000359e+01 1.781619999999999891e+03
5.800000000000000294e-02 1.625874999999999959e-01 1.026717999999999975e+01 6.751234999999999786e+01 1.781460000000000036e+03
5.900000000000000383e-02 1.625540000000000040e-01 9.596510000000000318e+00 6.638835000000000264e+01 1.781230000000000018e+03
6.000000000000000472e-02 1.625110000000000166e-01 8.852759999999999962e+00 6.509295000000000186e+01 1.780924999999999955e+03
6.099999999999999867e-02 1.624594999999999789e-01 8.048014999999999475e+00 6.366519999999999868e+01 1.780565000000000055e+03
6.199999999999999956e-02 1.624019999999999908e-01 7.195389999999999731e+00 6.214305000000000234e+01 1.780154999999999973e+03
6.300000000000000044e-02 1.623384999999999967e-01 6.309014999999999596e+00 6.056275000000000830e+01 1.779714999999999918e+03
6.400000000000000133e-02 1.622715000000000130e-01 5.403999999999999915e+00 5.895940000000000225e+01 1.779240000000000009e+03
6.500000000000000222e-02 1.622024999999999995e-01 4.496654999999999625e+00 5.736780000000000257e+01 1.778750000000000000e+03
6.600000000000000311e-02 1.621325000000000127e-01 3.604550000000000143e+00 5.582330000000000325e+01 1.778255000000000109e+03
6.700000000000000400e-02 1.620634999999999992e-01 2.746398000000000117e+00 5.436239999999999384e+01 1.777764999999999873e+03
6.800000000000000488e-02 1.619975000000000165e-01 1.941780999999999979e+00 5.302275000000000205e+01 1.777295000000000073e+03
6.900000000000000577e-02 1.619349999999999956e-01 1.210653499999999827e+00 5.184265000000000612e+01 1.776849999999999909e+03
7.000000000000000666e-02 1.618795000000000095e-01 5.726999999999998758e-01 5.085984999999999445e+01 1.776454999999999927e+03
7.100000000000000755e-02 1.618315000000000170e-01 4.657000000000000028e-02 5.011025000000000063e+01 1.776105000000000018e+03
7.200000000000000844e-02 1.617925000000000058e-01 -3.509185000000000221e-01 4.962595000000000312e+01 1.775825000000000045e+03
7.300000000000000933e-02 1.617645000000000055e-01 -6.055486999999999398e-01 4.943359999999999843e+01 1.775619999999999891e+03
7.399999999999999634e-02 1.617485000000000173e-01 -7.063475000000000170e-01 4.955304999999999893e+01 1.775494999999999891e+03
7.499999999999999722e-02 1.617454999999999865e-01 -6.461129999999999374e-01 4.999554999999999438e+01 1.775470000000000027e+03
7.599999999999999811e-02 1.617569999999999841e-01 -4.217025000000000357e-01 5.076395000000000124e+01 1.775529999999999973e+03
7.699999999999999900e-02 1.617819999999999814e-01 -3.413249999999995454e-02 5.185170000000000101e+01 1.775695000000000164e+03
7.799999999999999989e-02 1.618205000000000060e-01 5.115324999999999456e-01 5.324375000000000568e+01 1.775960000000000036e+03
7.900000000000000078e-02 1.618729999999999891e-01 1.206503000000000103e+00 5.491734999999999900e+01 1.776320000000000164e+03
8.000000000000000167e-02 1.619379999999999986e-01 2.038730500000000223e+00 5.684309999999999974e+01 1.776769999999999982e+03
8.100000000000000255e-02 1.620150000000000201e-01 2.993490999999999680e+00 5.898675000000000068e+01 1.777304999999999836e+03
8.200000000000000344e-02 1.621019999999999961e-01 4.054095000000000226e+00 6.131095000000000539e+01 1.777909999999999854e+03
8.300000000000000433e-02 1.621990000000000098e-01 5.202619999999999578e+00 6.377715000000000600e+01 1.778585000000000036e+03
8.400000000000000522e-02 1.623030000000000028e-01 6.420589999999999797e+00 6.634704999999999586e+01 1.779315000000000055e+03
8.500000000000000611e-02 1.624130000000000018e-01 7.689740000000000464e+00 6.898444999999999538e+01 1.780095000000000027e+03
8.600000000000000699e-02 1.625270000000000048e-01 8.992485000000000284e+00 7.165675000000000239e+01 1.780900000000000091e+03
8.700000000000000788e-02 1.626440000000000108e-01 1.031273000000000017e+01 7.433565000000000111e+01 1.781730000000000018e+03
8.800000000000000877e-02 1.627635000000000054e-01 1.163584499999999977e+01 7.699799999999999045e+01 1.782575000000000045e+03
8.899999999999999578e-02 1.628830000000000000e-01 1.294934999999999903e+01 7.962624999999999886e+01 1.783429999999999836e+03
8.999999999999999667e-02 1.630030000000000090e-01 1.424275000000000091e+01 8.220830000000000837e+01 1.784284999999999854e+03
9.099999999999999756e-02 1.631219999999999892e-01 1.550750000000000028e+01 8.473679999999998813e+01 1.785134999999999991e+03
9.199999999999999845e-02 1.632394999999999818e-01 1.673720000000000141e+01 8.720910000000000650e+01 1.785980000000000018e+03
9.299999999999999933e-02 1.633549999999999724e-01 1.792714999999999748e+01 8.962579999999999814e+01 1.786815000000000055e+03
9.400000000000000022e-02 1.634694999999999898e-01 1.907399999999999807e+01 9.199030000000000484e+01 1.787634999999999991e+03
9.500000000000000111e-02 1.635820000000000052e-01 2.017569999999999908e+01 9.430725000000001046e+01 1.788444999999999936e+03
9.600000000000000200e-02 1.636930000000000052e-01 2.123089999999999833e+01 9.658220000000000027e+01 1.789250000000000000e+03
9.700000000000000289e-02 1.638020000000000032e-01 2.223899999999999721e+01 9.881980000000000075e+01 1.790039999999999964e+03
9.800000000000000377e-02 1.639100000000000001e-01 2.319959999999999667e+01 1.010245000000000033e+02 1.790819999999999936e+03
9.900000000000000466e-02 1.640165000000000095e-01 2.411230000000000118e+01 1.031987500000000040e+02 1.791595000000000027e+03
1.000000000000000056e-01 1.641214999999999757e-01 2.497670000000000101e+01 1.053435000000000059e+02 1.792360000000000127e+03
1.010000000000000064e-01 1.642254999999999965e-01 2.579209999999999781e+01 1.074579999999999984e+02 1.793115000000000009e+03
1.020000000000000073e-01 1.643280000000000018e-01 2.655760000000000076e+01 1.095395000000000039e+02 1.793860000000000127e+03
1.030000000000000082e-01 1.644295000000000062e-01 2.727195000000000036e+01 1.115819999999999936e+02 1.794599999999999909e+03
1.040000000000000091e-01 1.645289999999999808e-01 2.793359999999999843e+01 1.135815000000000055e+02 1.795325000000000045e+03
1.050000000000000100e-01 1.646265000000000089e-01 2.854064999999999941e+01 1.155289999999999964e+02 1.796039999999999964e+03
1.059999999999999970e-01 1.647224999999999939e-01 2.909100000000000108e+01 1.174170000000000016e+02 1.796735000000000127e+03
1.069999999999999979e-01 1.648149999999999893e-01 2.958245000000000147e+01 1.192365000000000066e+02 1.797420000000000073e+03
1.079999999999999988e-01 1.649049999999999960e-01 3.001249999999999929e+01 1.209789999999999992e+02 1.798079999999999927e+03
1.089999999999999997e-01 1.649919999999999998e-01 3.037879999999999825e+01 1.226345000000000027e+02 1.798710000000000036e+03
1.100000000000000006e-01 1.650749999999999995e-01 3.067900000000000205e+01 1.241940000000000026e+02 1.799324999999999818e+03
1.110000000000000014e-01 1.651535000000000086e-01 3.091080000000000183e+01 1.256495000000000033e+02 1.799904999999999973e+03
1.120000000000000023e-01 1.652279999999999860e-01 3.107215000000000060e+01 1.269929999999999950e+02 1.800449999999999818e+03
1.130000000000000032e-01 1.652974999999999861e-01 3.116140000000000043e+01 1.282170000000000130e+02 1.800960000000000036e+03
1.140000000000000041e-01 1.653614999999999946e-01 3.117709999999999937e+01 1.293149999999999977e+02 1.801434999999999945e+03
1.150000000000000050e-01 1.654200000000000115e-01 3.111840000000000117e+01 1.302824999999999989e+02 1.801869999999999891e+03
1.160000000000000059e-01 1.654729999999999812e-01 3.098515000000000086e+01 1.311159999999999854e+02 1.802264999999999873e+03
1.170000000000000068e-01 1.655194999999999861e-01 3.077770000000000294e+01 1.318139999999999930e+02 1.802610000000000127e+03
1.180000000000000077e-01 1.655599999999999850e-01 3.049725000000000108e+01 1.323750000000000000e+02 1.802914999999999964e+03
1.190000000000000085e-01 1.655949999999999922e-01 3.014574999999999960e+01 1.328015000000000043e+02 1.803174999999999955e+03
1.200000000000000094e-01 1.656229999999999924e-01 2.972614999999999696e+01 1.330969999999999800e+02 1.803384999999999991e+03
1.209999999999999964e-01 1.656455000000000011e-01 2.924204999999999899e+01 1.332665000000000077e+02 1.803554999999999836e+03
1.219999999999999973e-01 1.656615000000000171e-01 2.869794999999999874e+01 1.333170000000000073e+02 1.803684999999999945e+03
1.229999999999999982e-01 1.656719999999999859e-01 2.809904999999999831e+01 1.332570000000000050e+02 1.803764999999999873e+03
1.239999999999999991e-01 1.656775000000000053e-01 2.745125000000000171e+01 1.330975000000000250e+02 1.803809999999999945e+03
1.250000000000000000e-01 1.656779999999999919e-01 2.676089999999999947e+01 1.328485000000000014e+02 1.803820000000000164e+03
1.260000000000000009e-01 1.656739999999999879e-01 2.603475000000000250e+01 1.325219999999999914e+02 1.803795000000000073e+03
1.270000000000000018e-01 1.656654999999999933e-01 2.527984999999999971e+01 1.321304999999999836e+02 1.803744999999999891e+03
1.280000000000000027e-01 1.656539999999999957e-01 2.450300000000000011e+01 1.316860000000000070e+02 1.803659999999999854e+03
1.290000000000000036e-01 1.656394999999999951e-01 2.371119999999999806e+01 1.312005000000000052e+02 1.803559999999999945e+03
1.300000000000000044e-01 1.656225000000000058e-01 2.291094999999999970e+01 1.306839999999999975e+02 1.803440000000000055e+03
1.310000000000000053e-01 1.656035000000000146e-01 2.210824999999999818e+01 1.301475000000000080e+02 1.803299999999999955e+03
1.320000000000000062e-01 1.655829999999999802e-01 2.130879999999999797e+01 1.295995000000000061e+02 1.803155000000000200e+03
1.330000000000000071e-01 1.655615000000000003e-01 2.051740000000000208e+01 1.290465000000000089e+02 1.802994999999999891e+03
1.340000000000000080e-01 1.655384999999999773e-01 1.973810000000000286e+01 1.284939999999999998e+02 1.802835000000000036e+03
1.350000000000000089e-01 1.655154999999999821e-01 1.897424999999999784e+01 1.279465000000000146e+02 1.802670000000000073e+03
1.360000000000000098e-01 1.654924999999999868e-01 1.822834999999999894e+01 1.274060000000000059e+02 1.802494999999999891e+03
1.370000000000000107e-01 1.654685000000000183e-01 1.750195000000000078e+01 1.268735000000000070e+02 1.802324999999999818e+03
1.380000000000000115e-01 1.654450000000000087e-01 1.679599999999999937e+01 1.263480000000000132e+02 1.802150000000000091e+03
1.390000000000000124e-01 1.654214999999999991e-01 1.611050000000000182e+01 1.258274999999999864e+02 1.801974999999999909e+03
1.400000000000000133e-01 1.653974999999999751e-01 1.544494999999999862e+01 1.253089999999999975e+02 1.801805000000000064e+03
1.410000000000000142e-01 1.653739999999999932e-01 1.479814999999999969e+01 1.247879999999999967e+02 1.801625000000000000e+03
1.420000000000000151e-01 1.653499999999999970e-01 1.416840000000000011e+01 1.242599999999999909e+02 1.801449999999999818e+03
1.430000000000000160e-01 1.653255000000000141e-01 1.355359999999999943e+01 1.237199999999999989e+02 1.801264999999999873e+03
1.440000000000000169e-01 1.653000000000000025e-01 1.295149999999999935e+01 1.231624999999999943e+02 1.801079999999999927e+03
1.450000000000000178e-01 1.652739999999999765e-01 1.235964999999999847e+01 1.225824999999999960e+02 1.800890000000000100e+03
1.459999999999999909e-01 1.652469999999999772e-01 1.177550000000000097e+01 1.219749999999999943e+02 1.800690000000000055e+03
1.469999999999999918e-01 1.652184999999999904e-01 1.119664999999999999e+01 1.213354999999999961e+02 1.800485000000000127e+03
1.479999999999999927e-01 1.651890000000000025e-01 1.062099999999999866e+01 1.206599999999999966e+02 1.800264999999999873e+03
1.489999999999999936e-01 1.651579999999999993e-01 1.004655999999999949e+01 1.199459999999999980e+02 1.800035000000000082e+03
1.499999999999999944e-01 1.651250000000000218e-01 9.471954999999999458e+00 1.191920000000000073e+02 1.799795000000000073e+03
1.509999999999999953e-01 1.650900000000000145e-01 8.896160000000000068e+00 1.183975000000000080e+02 1.799545000000000073e+03
1.519999999999999962e-01 1.650534999999999919e-01 8.318785000000000096e+00 1.175629999999999882e+02 1.799275000000000091e+03
1.529999999999999971e-01 1.650150000000000228e-01 7.739945000000000519e+00 1.166910000000000025e+02 1.798994999999999891e+03
1.539999999999999980e-01 1.649749999999999828e-01 7.160445000000000171e+00 1.157854999999999990e+02 1.798710000000000036e+03
1.549999999999999989e-01 1.649335000000000107e-01 6.581640000000000157e+00 1.148495000000000061e+02 1.798400000000000091e+03
1.559999999999999998e-01 1.648904999999999954e-01 6.005489999999999995e+00 1.138910000000000053e+02 1.798089999999999918e+03
1.570000000000000007e-01 1.648465000000000069e-01 5.434465000000000323e+00 1.129159999999999968e+02 1.797769999999999982e+03
1.580000000000000016e-01 1.648014999999999897e-01 4.871484999999999843e+00 1.119314999999999998e+02 1.797440000000000055e+03
1.590000000000000024e-01 1.647560000000000136e-01 4.319824999999999804e+00 1.109474999999999909e+02 1.797109999999999900e+03
