# t [s], A [cm^2], U [cm/s], P [cPa], c [cm/s]
1.000000000000000021e-03 1.191379999999999939e-01 2.145099999999999785e-01 1.000763000000000034e+02 1.992184999999999945e+03
2.000000000000000042e-03 1.191170000000000007e-01 1.614308000000000076e+00 9.718674999999998931e+01 1.991849999999999909e+03
3.000000000000000062e-03 1.190440000000000109e-01 3.384438499999999905e+00 9.323439999999999372e+01 1.990744999999999891e+03
4.000000000000000083e-03 1.189349999999999991e-01 5.379255749999999558e+00 8.869655000000000200e+01 1.989139999999999873e+03
5.000000000000000104e-03 1.188094999999999984e-01 7.543459999999999610e+00 8.432150000000000034e+01 1.987304999999999836e+03
6.000000000000000125e-03 1.186829999999999968e-01 9.769325000000000259e+00 8.053190000000000737e+01 1.985470000000000027e+03
7.000000000000000146e-03 1.185609999999999997e-01 1.188760500000000064e+01 7.731319999999999482e+01 1.983730000000000018e+03
8.000000000000000167e-03 1.184459999999999957e-01 1.376540499999999945e+01 7.444575000000000387e+01 1.982115000000000009e+03
9.000000000000001055e-03 1.183400000000000007e-01 1.538062500000000021e+01 7.184645000000000437e+01 1.980650000000000091e+03
1.000000000000000194e-02 1.182455000000000034e-01 1.676439999999999841e+01 6.957750000000000057e+01 1.979360000000000127e+03
1.099999999999999936e-02 1.181640000000000051e-01 1.793909999999999982e+01 6.767969999999999686e+01 1.978264999999999873e+03
1.200000000000000025e-02 1.180954999999999921e-01 1.891750000000000043e+01 6.613564999999999827e+01 1.977349999999999909e+03
1.300000000000000114e-02 1.180390000000000050e-01 1.970820000000000149e+01 6.489555000000000007e+01 1.976605000000000018e+03
1.400000000000000203e-02 1.179925000000000002e-01 2.031099999999999994e+01 6.387500000000000000e+01 1.975994999999999891e+03
1.499999999999999944e-02 1.179535000000000028e-01 2.073205000000000098e+01 6.297884999999999422e+01 1.975494999999999891e+03
1.600000000000000033e-02 1.179199999999999970e-01 2.101429999999999865e+01 6.218645000000000067e+01 1.975070000000000164e+03
1.700000000000000122e-02 1.178939999999999988e-01 2.124875000000000114e+01 6.161959999999999837e+01 1.974750000000000000e+03
1.800000000000000211e-02 1.178794999999999982e-01 2.154795000000000016e+01 6.151135000000000019e+01 1.974570000000000164e+03
1.900000000000000300e-02 1.178799999999999987e-01 2.199640000000000128e+01 6.208200000000000074e+01 1.974595000000000027e+03
2.000000000000000042e-02 1.178994999999999904e-01 2.261220000000000141e+01 6.340560000000000684e+01 1.974855000000000018e+03
2.100000000000000130e-02 1.179344999999999977e-01 2.333919999999999817e+01 6.534520000000000550e+01 1.975339999999999918e+03
2.200000000000000219e-02 1.179820000000000035e-01 2.407010000000000005e+01 6.758410000000000650e+01 1.975980000000000018e+03
2.299999999999999961e-02 1.180329999999999990e-01 2.468614999999999782e+01 6.972749999999999204e+01 1.976690000000000055e+03
2.400000000000000050e-02 1.180810000000000054e-01 2.509575000000000244e+01 7.142484999999999218e+01 1.977349999999999909e+03
2.500000000000000139e-02 1.181185000000000013e-01 2.525825000000000031e+01 7.246459999999999013e+01 1.977889999999999873e+03
2.600000000000000228e-02 1.181429999999999980e-01 2.518870000000000076e+01 7.281489999999999441e+01 1.978250000000000000e+03
2.700000000000000316e-02 1.181544999999999956e-01 2.494409999999999883e+01 7.260304999999999609e+01 1.978434999999999945e+03
2.800000000000000058e-02 1.181560000000000110e-01 2.459940000000000282e+01 7.205089999999999861e+01 1.978474999999999909e+03
2.900000000000000147e-02 1.181510000000000060e-01 2.422194999999999965e+01 7.139195000000000846e+01 1.978420000000000073e+03
3.000000000000000236e-02 1.181429999999999980e-01 2.385320000000000107e+01 7.079994999999999550e+01 1.978319999999999936e+03
3.099999999999999978e-02 1.181349999999999900e-01 2.350134999999999863e+01 7.034850000000000136e+01 1.978220000000000027e+03
3.200000000000000067e-02 1.181280000000000108e-01 2.314600000000000080e+01 7.000815000000000055e+01 1.978125000000000000e+03
3.300000000000000155e-02 1.181210000000000038e-01 2.275120000000000076e+01 6.967680000000000007e+01 1.978025000000000091e+03
3.400000000000000244e-02 1.181115000000000081e-01 2.228174999999999883e+01 6.922820000000000107e+01 1.977894999999999982e+03
3.500000000000000333e-02 1.180980000000000085e-01 2.171869999999999834e+01 6.856444999999999368e+01 1.977715000000000146e+03
3.600000000000000422e-02 1.180785000000000029e-01 2.106969999999999743e+01 6.765590000000000259e+01 1.977464999999999918e+03
3.700000000000000511e-02 1.180545000000000067e-01 2.037049999999999983e+01 6.656010000000000559e+01 1.977150000000000091e+03
3.799999999999999906e-02 1.180275000000000074e-01 1.967929999999999779e+01 6.541339999999999577e+01 1.976784999999999854e+03
3.899999999999999994e-02 1.180009999999999948e-01 1.906394999999999840e+01 6.439945000000000164e+01 1.976430000000000064e+03
4.000000000000000083e-02 1.179795000000000010e-01 1.858635000000000304e+01 6.370430000000000348e+01 1.976125000000000000e+03
4.100000000000000172e-02 1.179655000000000009e-01 1.828880000000000194e+01 6.347025000000000716e+01 1.975924999999999955e+03
4.200000000000000261e-02 1.179620000000000113e-01 1.818529999999999802e+01 6.376255000000000450e+01 1.975865000000000009e+03
4.300000000000000350e-02 1.179699999999999915e-01 1.825934999999999775e+01 6.455500000000000682e+01 1.975960000000000036e+03
4.400000000000000439e-02 1.179889999999999967e-01 1.846815000000000140e+01 6.573640000000000327e+01 1.976200000000000045e+03
4.499999999999999833e-02 1.180159999999999959e-01 1.875169999999999959e+01 6.713410000000000366e+01 1.976554999999999836e+03
4.599999999999999922e-02 1.180469999999999992e-01 1.904295000000000115e+01 6.854714999999998781e+01 1.976970000000000027e+03
4.700000000000000011e-02 1.180780000000000024e-01 1.927884999999999849e+01 6.978004999999998859e+01 1.977390000000000100e+03
4.800000000000000100e-02 1.181050000000000016e-01 1.940784999999999982e+01 7.067160000000001219e+01 1.977759999999999991e+03
4.900000000000000189e-02 1.181239999999999929e-01 1.939484999999999815e+01 7.111334999999999695e+01 1.978025000000000091e+03
5.000000000000000278e-02 1.181335000000000024e-01 1.922259999999999991e+01 7.105604999999999905e+01 1.978159999999999854e+03
5.100000000000000366e-02 1.181315000000000004e-01 1.888994999999999891e+01 7.050589999999999691e+01 1.978140000000000100e+03
5.200000000000000455e-02 1.181185000000000151e-01 1.840800000000000125e+01 6.951234999999999786e+01 1.977974999999999909e+03
5.300000000000000544e-02 1.180944999999999911e-01 1.779594999999999771e+01 6.815219999999999345e+01 1.977664999999999964e+03
5.399999999999999939e-02 1.180625000000000008e-01 1.707675000000000054e+01 6.651359999999999673e+01 1.977230000000000018e+03
5.500000000000000028e-02 1.180230000000000029e-01 1.627420000000000044e+01 6.468330000000000268e+01 1.976699999999999818e+03
5.600000000000000117e-02 1.179779999999999995e-01 1.541124999999999901e+01 6.273884999999999934e+01 1.976089999999999918e+03
5.700000000000000205e-02 1.179290000000000060e-01 1.450965000000000060e+01 6.074609999999999843e+01 1.975429999999999836e+03
5.800000000000000294e-02 1.178779999999999967e-01 1.359074999999999989e+01 5.876064999999999827e+01 1.974735000000000127e+03
5.900000000000000383e-02 1.178265000000000007e-01 1.267631499999999889e+01 5.683220000000000027e+01 1.974039999999999964e+03
6.000000000000000472e-02 1.177759999999999918e-01 1.179016999999999982e+01 5.500960000000000605e+01 1.973349999999999909e+03
6.099999999999999867e-02 1.177275000000000127e-01 1.095821499999999915e+01 5.334505000000000052e+01 1.972684999999999945e+03
6.199999999999999956e-02 1.176824999999999954e-01 1.020894999999999975e+01 5.189615000000000578e+01 1.972075000000000045e+03
6.300000000000000044e-02 1.176434999999999981e-01 9.572504999999999598e+00 5.072625000000000028e+01 1.971529999999999973e+03
6.400000000000000133e-02 1.176115000000000077e-01 9.079159999999999897e+00 4.990125000000000455e+01 1.971085000000000036e+03
6.500000000000000222e-02 1.175879999999999981e-01 8.757929999999999993e+00 4.948584999999999923e+01 1.970760000000000218e+03
6.600000000000000311e-02 1.175754999999999995e-01 8.634235000000000326e+00 4.953829999999999956e+01 1.970569999999999936e+03
6.700000000000000400e-02 1.175749999999999990e-01 8.728259999999998797e+00 5.010524999999999807e+01 1.970549999999999955e+03
6.800000000000000488e-02 1.175879999999999981e-01 9.053639999999999688e+00 5.121739999999999782e+01 1.970700000000000045e+03
6.900000000000000577e-02 1.176144999999999968e-01 9.616464999999999819e+00 5.288700000000000045e+01 1.971045000000000073e+03
7.000000000000000666e-02 1.176559999999999967e-01 1.041507499999999986e+01 5.510654999999999859e+01 1.971590000000000146e+03
7.100000000000000755e-02 1.177109999999999962e-01 1.144027499999999975e+01 5.784964999999999691e+01 1.972325000000000045e+03
7.200000000000000844e-02 1.177804999999999963e-01 1.267620000000000147e+01 6.107325000000000159e+01 1.973250000000000000e+03
7.300000000000000933e-02 1.178624999999999950e-01 1.410149999999999970e+01 6.472065000000000623e+01 1.974349999999999909e+03
7.399999999999999634e-02 1.179560000000000053e-01 1.569059999999999988e+01 6.872639999999999816e+01 1.975610000000000127e+03
7.499999999999999722e-02 1.180595000000000117e-01 1.741559999999999775e+01 7.301990000000000691e+01 1.977009999999999991e+03
7.599999999999999811e-02 1.181715000000000126e-01 1.924749999999999872e+01 7.753034999999999854e+01 1.978529999999999973e+03
7.699999999999999900e-02 1.182894999999999919e-01 2.115769999999999840e+01 8.219069999999999254e+01 1.980144999999999982e+03
7.799999999999999989e-02 1.184125000000000039e-01 2.311974999999999980e+01 8.694089999999999918e+01 1.981835000000000036e+03
7.900000000000000078e-02 1.185390000000000055e-01 2.510990000000000322e+01 9.173105000000001041e+01 1.983575000000000045e+03
8.000000000000000167e-02 1.186675000000000091e-01 2.710829999999999984e+01 9.652214999999999634e+01 1.985349999999999909e+03
8.100000000000000255e-02 1.187975000000000003e-01 2.909909999999999997e+01 1.012882500000000050e+02 1.987144999999999982e+03
8.200000000000000344e-02 1.189275000000000054e-01 3.107054999999999723e+01 1.060140000000000100e+02 1.988945000000000164e+03
8.300000000000000433e-02 1.190574999999999967e-01 3.301480000000000103e+01 1.106949999999999932e+02 1.990755000000000109e+03
8.400000000000000522e-02 1.191869999999999874e-01 3.492735000000000412e+01 1.153344999999999914e+02 1.992565000000000055e+03
8.500000000000000611e-02 1.193165000000000059e-01 3.680594999999999573e+01 1.199419999999999931e+02 1.994375000000000000e+03
8.600000000000000699e-02 1.194449999999999956e-01 3.865019999999999811e+01 1.245275000000000034e+02 1.996184999999999945e+03
8.700000000000000788e-02 1.195739999999999997e-01 4.046030000000000371e+01 1.291030000000000086e+02 1.997990000000000009e+03
8.800000000000000877e-02 1.197024999999999895e-01 4.223644999999999783e+01 1.336765000000000043e+02 1.999795000000000073e+03
8.899999999999999578e-02 1.198309999999999931e-01 4.397825000000000273e+01 1.382520000000000095e+02 2.001610000000000127e+03
8.999999999999999667e-02 1.199594999999999967e-01 4.568424999999999869e+01 1.428274999999999864e+02 2.003429999999999836e+03
9.099999999999999756e-02 1.200885000000000147e-01 4.735160000000000480e+01 1.473969999999999914e+02 2.005250000000000000e+03
9.199999999999999845e-02 1.202165000000000039e-01 4.897625000000000028e+01 1.519470000000000027e+02 2.007075000000000045e+03
9.299999999999999933e-02 1.203450000000000075e-01 5.055270000000000152e+01 1.564610000000000127e+02 2.008889999999999873e+03
9.400000000000000022e-02 1.204714999999999953e-01 5.207439999999999714e+01 1.609170000000000016e+02 2.010695000000000164e+03
9.500000000000000111e-02 1.205964999999999954e-01 5.353405000000000058e+01 1.652920000000000016e+02 2.012485000000000127e+03
9.600000000000000200e-02 1.207199999999999940e-01 5.492350000000000421e+01 1.695600000000000023e+02 2.014240000000000009e+03
9.700000000000000289e-02 1.208400000000000030e-01 5.623460000000000036e+01 1.736939999999999884e+02 2.015960000000000036e+03
9.800000000000000377e-02 1.209570000000000090e-01 5.745884999999999820e+01 1.776705000000000041e+02 2.017639999999999873e+03
9.900000000000000466e-02 1.210690000000000099e-01 5.858814999999999884e+01 1.814629999999999939e+02 2.019255000000000109e+03
1.000000000000000056e-01 1.211770000000000069e-01 5.961480000000000246e+01 1.850490000000000066e+02 2.020809999999999945e+03
1.010000000000000064e-01 1.212789999999999979e-01 6.053170000000000073e+01 1.884074999999999989e+02 2.022284999999999854e+03
1.020000000000000073e-01 1.213754999999999973e-01 6.133285000000000053e+01 1.915215000000000032e+02 2.023679999999999836e+03
1.030000000000000082e-01 1.214655000000000040e-01 6.201340000000000430e+01 1.943745000000000118e+02 2.024985000000000127e+03
1.040000000000000091e-01 1.215485000000000038e-01 6.256989999999999696e+01 1.969569999999999936e+02 2.026190000000000055e+03
1.050000000000000100e-01 1.216240000000000099e-01 6.300055000000000405e+01 1.992615000000000123e+02 2.027295000000000073e+03
1.059999999999999970e-01 1.216919999999999946e-01 6.330554999999999666e+01 2.012855000000000132e+02 2.028300000000000182e+03
1.069999999999999979e-01 1.217535000000000006e-01 6.348700000000000188e+01 2.030324999999999989e+02 2.029190000000000055e+03
1.079999999999999988e-01 1.218064999999999981e-01 6.354905000000000115e+01 2.045090000000000146e+02 2.029980000000000018e+03
1.089999999999999997e-01 1.218530000000000030e-01 6.349795000000000300e+01 2.057289999999999850e+02 2.030664999999999964e+03
1.100000000000000006e-01 1.218920000000000003e-01 6.334159999999999968e+01 2.067079999999999984e+02 2.031240000000000009e+03
1.110000000000000014e-01 1.219244999999999912e-01 6.308955000000000268e+01 2.074675000000000011e+02 2.031730000000000018e+03
1.120000000000000023e-01 1.219514999999999905e-01 6.275254999999999939e+01 2.080310000000000059e+02 2.032125000000000000e+03
1.130000000000000032e-01 1.219725000000000115e-01 6.234224999999999994e+01 2.084234999999999900e+02 2.032449999999999818e+03
1.140000000000000041e-01 1.219890000000000141e-01 6.187045000000000528e+01 2.086709999999999923e+02 2.032695000000000164e+03
1.150000000000000050e-01 1.220009999999999983e-01 6.134915000000000163e+01 2.088000000000000114e+02 2.032880000000000109e+03
1.160000000000000059e-01 1.220094999999999930e-01 6.078960000000000008e+01 2.088325000000000102e+02 2.033005000000000109e+03
1.170000000000000068e-01 1.220149999999999985e-01 6.020230000000000103e+01 2.087914999999999850e+02 2.033090000000000146e+03
1.180000000000000077e-01 1.220175000000000010e-01 5.959664999999999679e+01 2.086949999999999932e+02 2.033139999999999873e+03
1.190000000000000085e-01 1.220185000000000020e-01 5.898044999999999760e+01 2.085584999999999809e+02 2.033159999999999854e+03
1.200000000000000094e-01 1.220180000000000153e-01 5.836025000000000063e+01 2.083930000000000007e+02 2.033155000000000200e+03
1.209999999999999964e-01 1.220165000000000000e-01 5.774080000000000013e+01 2.082055000000000007e+02 2.033130000000000109e+03
1.219999999999999973e-01 1.220134999999999970e-01 5.712519999999999953e+01 2.079995000000000118e+02 2.033089999999999918e+03
1.229999999999999982e-01 1.220094999999999930e-01 5.651505000000000223e+01 2.077769999999999868e+02 2.033034999999999854e+03
1.239999999999999991e-01 1.220050000000000023e-01 5.591055000000000064e+01 2.075345000000000084e+02 2.032970000000000027e+03
1.250000000000000000e-01 1.219994999999999968e-01 5.531045000000000300e+01 2.072660000000000196e+02 2.032890000000000100e+03
1.260000000000000009e-01 1.219935000000000047e-01 5.471250000000000568e+01 2.069649999999999750e+02 2.032795000000000073e+03
1.270000000000000018e-01 1.219854999999999967e-01 5.411359999999999815e+01 2.066220000000000141e+02 2.032684999999999945e+03
1.280000000000000027e-01 1.219764999999999877e-01 5.350999999999999801e+01 2.062284999999999968e+02 2.032554999999999836e+03
1.290000000000000036e-01 1.219665000000000055e-01 5.289764999999999873e+01 2.057729999999999961e+02 2.032404999999999973e+03
1.300000000000000044e-01 1.219544999999999935e-01 5.227224999999999966e+01 2.052464999999999975e+02 2.032235000000000127e+03
1.310000000000000053e-01 1.219405000000000072e-01 5.162985000000000468e+01 2.046405000000000030e+02 2.032034999999999854e+03
1.320000000000000062e-01 1.219244999999999912e-01 5.096689999999999543e+01 2.039474999999999909e+02 2.031799999999999955e+03
1.330000000000000071e-01 1.219060000000000005e-01 5.028029999999999688e+01 2.031619999999999777e+02 2.031529999999999973e+03
1.340000000000000080e-01 1.218849999999999933e-01 4.956799999999999784e+01 2.022810000000000059e+02 2.031235000000000127e+03
1.350000000000000089e-01 1.218615000000000115e-01 4.882874999999999943e+01 2.013025000000000091e+02 2.030894999999999982e+03
1.360000000000000098e-01 1.218354999999999994e-01 4.806260000000000332e+01 2.002295000000000016e+02 2.030519999999999982e+03
1.370000000000000107e-01 1.218069999999999986e-01 4.727049999999999841e+01 1.990665000000000191e+02 2.030110000000000127e+03
1.380000000000000115e-01 1.217759999999999954e-01 4.645475000000000421e+01 1.978209999999999980e+02 2.029670000000000073e+03
1.390000000000000124e-01 1.217430000000000040e-01 4.561870000000000402e+01 1.965035000000000025e+02 2.029194999999999936e+03
1.400000000000000133e-01 1.217079999999999967e-01 4.476695000000000135e+01 1.951260000000000048e+02 2.028690000000000055e+03
1.410000000000000142e-01 1.216715000000000158e-01 4.390489999999999782e+01 1.937034999999999911e+02 2.028159999999999854e+03
1.420000000000000151e-01 1.216335000000000055e-01 4.303875000000000028e+01 1.922520000000000095e+02 2.027615000000000009e+03
1.430000000000000160e-01 1.215950000000000086e-01 4.217525000000000546e+01 1.907895000000000039e+02 2.027059999999999945e+03
1.440000000000000169e-01 1.215549999999999964e-01 4.132160000000000366e+01 1.893340000000000032e+02 2.026490000000000009e+03
1.450000000000000178e-01 1.215160000000000129e-01 4.048499999999999943e+01 1.879025000000000034e+02 2.025929999999999836e+03
1.459999999999999909e-01 1.214774999999999883e-01 3.967239999999999611e+01 1.865124999999999886e+02 2.025369999999999891e+03
1.469999999999999918e-01 1.214395000000000058e-01 3.889039999999999964e+01 1.851800000000000068e+02 2.024825000000000045e+03
1.479999999999999927e-01 1.214030000000000109e-01 3.814495000000000147e+01 1.839189999999999827e+02 2.024295000000000073e+03
1.489999999999999936e-01 1.213680000000000037e-01 3.744105000000000416e+01 1.827404999999999973e+02 2.023789999999999964e+03
1.499999999999999944e-01 1.213354999999999989e-01 3.678275000000000006e+01 1.816539999999999964e+02 2.023315000000000055e+03
1.509999999999999953e-01 1.213049999999999962e-01 3.617305000000000348e+01 1.806649999999999920e+02 2.022875000000000000e+03
1.519999999999999962e-01 1.212764999999999954e-01 3.561374999999999602e+01 1.797780000000000200e+02 2.022464999999999918e+03
1.529999999999999971e-01 1.212504999999999972e-01 3.510560000000000258e+01 1.789929999999999950e+02 2.022089999999999918e+03
1.539999999999999980e-01 1.212280000000000024e-01 3.464825000000000443e+01 1.783095000000000141e+02 2.021755000000000109e+03
1.549999999999999989e-01 1.212074999999999958e-01 3.424045000000000272e+01 1.777220000000000084e+02 2.021454999999999927e+03
1.559999999999999998e-01 1.211895000000000056e-01 3.388015000000000043e+01 1.772275000000000205e+02 2.021190000000000055e+03
1.570000000000000007e-01 1.211740000000000039e-01 3.356465000000000032e+01 1.768174999999999955e+02 2.020965000000000146e+03
1.580000000000000016e-01 1.211610000000000048e-01 3.329064999999999941e+01 1.764855000000000018e+02 2.020769999999999982e+03
1.590000000000000024e-01 1.211494999999999933e-01 3.305460000000000065e+01 1.762235000000000014e+02 2.020605000000000018e+03
