# t [s], A [cm^2], U [cm/s], P [cPa], c [cm/s]
1.000000000000000021e-03 2.101230000000000042e-01 4.821971500000000188e-01 9.562364999999999782e+01 2.234875000000000000e+03
2.000000000000000042e-03 2.100374999999999881e-01 2.239282500000000287e+00 9.130074999999999363e+01 2.234244999999999891e+03
3.000000000000000062e-03 2.098490000000000077e-01 4.368872999999999784e+00 8.547620000000000573e+01 2.232925000000000182e+03
4.000000000000000083e-03 2.096195000000000142e-01 6.779415000000000191e+00 7.980695000000000050e+01 2.231319999999999709e+03
5.000000000000000104e-03 2.093959999999999988e-01 9.291890000000000427e+00 7.532025000000000148e+01 2.229784999999999854e+03
6.000000000000000125e-03 2.091915000000000024e-01 1.154233999999999938e+01 7.173050000000000637e+01 2.228400000000000091e+03
7.000000000000000146e-03 2.090059999999999973e-01 1.334589000000000070e+01 6.848435000000000628e+01 2.227170000000000073e+03
8.000000000000000167e-03 2.088460000000000039e-01 1.478474999999999895e+01 6.569644999999999868e+01 2.226135000000000218e+03
9.000000000000001055e-03 2.087164999999999992e-01 1.591829999999999856e+01 6.351389999999999958e+01 2.225295000000000073e+03
1.000000000000000194e-02 2.086144999999999805e-01 1.677230000000000132e+01 6.186709999999999354e+01 2.224654999999999745e+03
1.099999999999999936e-02 2.085390000000000021e-01 1.738305000000000078e+01 6.067934999999999945e+01 2.224180000000000291e+03
1.200000000000000025e-02 2.084814999999999863e-01 1.775459999999999994e+01 5.977965000000000373e+01 2.223829999999999927e+03
1.300000000000000114e-02 2.084354999999999958e-01 1.792280000000000229e+01 5.900169999999999959e+01 2.223555000000000291e+03
1.400000000000000203e-02 2.084044999999999925e-01 1.807094999999999985e+01 5.858764999999999645e+01 2.223380000000000109e+03
1.499999999999999944e-02 2.084060000000000079e-01 1.848094999999999999e+01 5.923839999999999861e+01 2.223400000000000091e+03
1.600000000000000033e-02 2.084594999999999920e-01 1.933140000000000214e+01 6.156745000000000090e+01 2.223744999999999891e+03
1.700000000000000122e-02 2.085684999999999900e-01 2.053999999999999915e+01 6.547700000000000387e+01 2.224445000000000164e+03
1.800000000000000211e-02 2.087124999999999952e-01 2.178090000000000259e+01 7.001130000000000564e+01 2.225380000000000109e+03
1.900000000000000300e-02 2.088535000000000252e-01 2.264620000000000033e+01 7.376749999999999829e+01 2.226314999999999600e+03
2.000000000000000042e-02 2.089519999999999988e-01 2.284224999999999994e+01 7.555814999999999770e+01 2.226985000000000127e+03
2.100000000000000130e-02 2.089834999999999887e-01 2.231490000000000151e+01 7.494294999999999618e+01 2.227230000000000018e+03
2.200000000000000219e-02 2.089469999999999938e-01 2.125065000000000026e+01 7.236984999999999957e+01 2.227034999999999854e+03
2.299999999999999961e-02 2.088654999999999817e-01 1.996640000000000015e+01 6.888745000000000118e+01 2.226519999999999982e+03
2.400000000000000050e-02 2.087674999999999947e-01 1.875619999999999976e+01 6.561889999999999645e+01 2.225894999999999982e+03
2.500000000000000139e-02 2.086810000000000054e-01 1.777674999999999983e+01 6.328584999999999638e+01 2.225324999999999818e+03
2.600000000000000228e-02 2.086189999999999989e-01 1.701640000000000086e+01 6.199699999999999989e+01 2.224895000000000437e+03
2.700000000000000316e-02 2.085764999999999980e-01 1.634290000000000020e+01 6.134080000000000155e+01 2.224610000000000127e+03
2.800000000000000058e-02 2.085414999999999908e-01 1.559355000000000047e+01 6.068014999999999759e+01 2.224380000000000109e+03
2.900000000000000147e-02 2.084985000000000033e-01 1.466574999999999918e+01 5.949399999999999977e+01 2.224099999999999909e+03
3.000000000000000236e-02 2.084374999999999978e-01 1.357319999999999993e+01 5.763044999999999618e+01 2.223710000000000036e+03
3.099999999999999978e-02 2.083625000000000060e-01 1.245124999999999993e+01 5.538554999999999495e+01 2.223225000000000364e+03
3.200000000000000067e-02 2.082869999999999999e-01 1.150928499999999843e+01 5.338770000000000238e+01 2.222735000000000127e+03
3.300000000000000155e-02 2.082324999999999871e-01 1.095210000000000150e+01 5.234359999999999502e+01 2.222359999999999673e+03
3.400000000000000244e-02 2.082164999999999988e-01 1.090230000000000032e+01 5.275454999999999472e+01 2.222239999999999782e+03
3.500000000000000333e-02 2.082499999999999907e-01 1.135454999999999970e+01 5.471784999999999854e+01 2.222430000000000291e+03
3.600000000000000422e-02 2.083284999999999998e-01 1.217350000000000065e+01 5.787910000000000110e+01 2.222914999999999964e+03
3.700000000000000511e-02 2.084364999999999968e-01 1.313114999999999988e+01 6.153260000000000218e+01 2.223605000000000018e+03
3.799999999999999906e-02 2.085504999999999998e-01 1.396430000000000149e+01 6.481600000000000250e+01 2.224345000000000255e+03
3.899999999999999994e-02 2.086434999999999818e-01 1.443304999999999971e+01 6.692435000000000400e+01 2.224954999999999927e+03
4.000000000000000083e-02 2.086925000000000030e-01 1.436500000000000021e+01 6.728005000000000280e+01 2.225289999999999964e+03
4.100000000000000172e-02 2.086804999999999910e-01 1.367660000000000053e+01 6.562359999999999616e+01 2.225239999999999782e+03
4.200000000000000261e-02 2.086024999999999963e-01 1.237294999999999945e+01 6.201605000000000700e+01 2.224750000000000000e+03
4.300000000000000350e-02 2.084619999999999806e-01 1.052994499999999967e+01 5.677240000000000464e+01 2.223859999999999673e+03
4.400000000000000439e-02 2.082685000000000231e-01 8.268684999999999619e+00 5.035710000000000264e+01 2.222609999999999673e+03
4.499999999999999833e-02 2.080369999999999997e-01 5.729502000000000095e+00 4.327830000000000155e+01 2.221109999999999673e+03
4.599999999999999922e-02 2.077835000000000099e-01 3.053010000000000002e+00 3.600789999999999935e+01 2.219460000000000036e+03
4.700000000000000011e-02 2.075219999999999843e-01 3.697500000000002451e-01 2.893975000000000009e+01 2.217760000000000218e+03
4.800000000000000100e-02 2.072665000000000202e-01 -2.202509999999999746e+00 2.238400000000000034e+01 2.216085000000000036e+03
4.900000000000000189e-02 2.070285000000000042e-01 -4.556780700000000017e+00 1.658447999999999922e+01 2.214524999999999636e+03
5.000000000000000278e-02 2.068159999999999998e-01 -6.594144999999999257e+00 1.174303500000000078e+01 2.213119999999999891e+03
5.100000000000000366e-02 2.066379999999999884e-01 -8.222884999999999778e+00 8.038684999999999192e+00 2.211945000000000164e+03
5.200000000000000455e-02 2.065020000000000189e-01 -9.361004999999998688e+00 5.632754300000000214e+00 2.211029999999999745e+03
5.300000000000000544e-02 2.064139999999999864e-01 -9.941855000000000331e+00 4.660006000000000093e+00 2.210430000000000291e+03
5.399999999999999939e-02 2.063789999999999791e-01 -9.921050000000001035e+00 5.209900000000000198e+00 2.210164999999999964e+03
5.500000000000000028e-02 2.064000000000000001e-01 -9.283289999999999154e+00 7.305359999999999410e+00 2.210274999999999636e+03
5.600000000000000117e-02 2.064779999999999949e-01 -8.045925000000000438e+00 1.088742500000000035e+01 2.210744999999999891e+03
5.700000000000000205e-02 2.066089999999999871e-01 -6.259145000000000181e+00 1.581124999999999936e+01 2.211565000000000055e+03
5.800000000000000294e-02 2.067884999999999862e-01 -4.001668000000000447e+00 2.185549999999999926e+01 2.212704999999999927e+03
5.900000000000000383e-02 2.070079999999999976e-01 -1.373675000000000201e+00 2.874309999999999832e+01 2.214110000000000127e+03
6.000000000000000472e-02 2.072579999999999978e-01 1.512045000000000083e+00 3.616789999999999594e+01 2.215724999999999909e+03
6.099999999999999867e-02 2.075279999999999903e-01 4.538719999999999644e+00 4.382179999999999609e+01 2.217474999999999909e+03
6.199999999999999956e-02 2.078069999999999917e-01 7.592984999999999651e+00 5.141729999999999734e+01 2.219295000000000073e+03
6.300000000000000044e-02 2.080855000000000066e-01 1.057073499999999910e+01 5.870369999999999777e+01 2.221125000000000000e+03
6.400000000000000133e-02 2.083539999999999837e-01 1.338132000000000055e+01 6.547669999999999391e+01 2.222894999999999982e+03
6.500000000000000222e-02 2.086054999999999993e-01 1.595094999999999885e+01 7.158405000000000484e+01 2.224559999999999945e+03
6.600000000000000311e-02 2.088349999999999929e-01 1.822560000000000002e+01 7.692895000000000039e+01 2.226090000000000146e+03
6.700000000000000400e-02 2.090385000000000160e-01 2.017309999999999803e+01 8.147194999999999254e+01 2.227449999999999818e+03
6.800000000000000488e-02 2.092145000000000254e-01 2.178444999999999965e+01 8.523165000000000191e+01 2.228635000000000218e+03
6.900000000000000577e-02 2.093639999999999946e-01 2.307359999999999900e+01 8.828220000000000312e+01 2.229649999999999636e+03
7.000000000000000666e-02 2.094894999999999952e-01 2.407589999999999719e+01 9.074735000000001151e+01 2.230505000000000109e+03
7.100000000000000755e-02 2.095949999999999758e-01 2.484420000000000073e+01 9.278974999999999795e+01 2.231224999999999909e+03
7.200000000000000844e-02 2.096870000000000123e-01 2.544355000000000189e+01 9.459610000000000696e+01 2.231849999999999909e+03
7.300000000000000933e-02 2.097714999999999996e-01 2.594534999999999769e+01 9.635980000000000700e+01 2.232425000000000182e+03
7.399999999999999634e-02 2.098540000000000127e-01 2.642010000000000147e+01 9.826324999999999932e+01 2.232989999999999782e+03
7.499999999999999722e-02 2.099420000000000175e-01 2.693155000000000143e+01 1.004601499999999987e+02 2.233585000000000036e+03
7.599999999999999811e-02 2.100405000000000189e-01 2.753110000000000213e+01 1.030649999999999977e+02 2.234239999999999782e+03
7.699999999999999900e-02 2.101525000000000198e-01 2.825390000000000157e+01 1.061400000000000006e+02 2.234984999999999673e+03
7.799999999999999989e-02 2.102800000000000225e-01 2.911684999999999945e+01 1.096965000000000003e+02 2.235835000000000036e+03
7.900000000000000078e-02 2.104239999999999999e-01 3.011795000000000044e+01 1.136914999999999907e+02 2.236784999999999854e+03
8.000000000000000167e-02 2.105819999999999914e-01 3.123760000000000048e+01 1.180390000000000015e+02 2.237829999999999927e+03
8.100000000000000255e-02 2.107505000000000073e-01 3.244115000000000038e+01 1.226140000000000043e+02 2.238944999999999709e+03
8.200000000000000344e-02 2.109260000000000024e-01 3.368260000000000076e+01 1.272674999999999983e+02 2.240119999999999891e+03
8.300000000000000433e-02 2.111029999999999851e-01 3.490874999999999773e+01 1.318405000000000200e+02 2.241295000000000073e+03
8.400000000000000522e-02 2.112764999999999782e-01 3.606350000000000477e+01 1.361709999999999923e+02 2.242449999999999818e+03
8.500000000000000611e-02 2.114395000000000024e-01 3.709229999999999450e+01 1.401129999999999995e+02 2.243545000000000073e+03
8.600000000000000699e-02 2.115879999999999983e-01 3.794599999999999795e+01 1.435389999999999873e+02 2.244539999999999964e+03
8.700000000000000788e-02 2.117180000000000173e-01 3.858389999999999986e+01 1.463520000000000039e+02 2.245420000000000073e+03
8.800000000000000877e-02 2.118249999999999855e-01 3.897639999999999816e+01 1.484879999999999995e+02 2.246149999999999636e+03
8.899999999999999578e-02 2.119075000000000264e-01 3.910630000000000450e+01 1.499189999999999827e+02 2.246719999999999800e+03
8.999999999999999667e-02 2.119650000000000145e-01 3.896974999999999767e+01 1.506519999999999868e+02 2.247114999999999782e+03
9.099999999999999756e-02 2.119969999999999910e-01 3.857535000000000025e+01 1.507264999999999873e+02 2.247349999999999909e+03
9.199999999999999845e-02 2.120055000000000134e-01 3.794360000000000355e+01 1.502094999999999914e+02 2.247420000000000073e+03
9.299999999999999933e-02 2.119920000000000138e-01 3.710474999999999568e+01 1.491910000000000025e+02 2.247350000000000364e+03
9.400000000000000022e-02 2.119599999999999818e-01 3.609690000000000509e+01 1.477760000000000105e+02 2.247149999999999636e+03
9.500000000000000111e-02 2.119139999999999913e-01 3.496320000000000050e+01 1.460790000000000077e+02 2.246855000000000018e+03
9.600000000000000200e-02 2.118570000000000175e-01 3.374954999999999927e+01 1.442144999999999868e+02 2.246485000000000127e+03
9.700000000000000289e-02 2.117940000000000100e-01 3.250209999999999866e+01 1.422965000000000089e+02 2.246065000000000055e+03
9.800000000000000377e-02 2.117275000000000129e-01 3.126480000000000103e+01 1.404275000000000091e+02 2.245630000000000109e+03
9.900000000000000466e-02 2.116629999999999900e-01 3.007744999999999891e+01 1.386984999999999957e+02 2.245199999999999818e+03
1.000000000000000056e-01 2.116020000000000123e-01 2.897370000000000090e+01 1.371829999999999927e+02 2.244789999999999964e+03
1.010000000000000064e-01 2.115489999999999871e-01 2.797964999999999947e+01 1.359345000000000141e+02 2.244429999999999836e+03
1.020000000000000073e-01 2.115044999999999842e-01 2.711305000000000121e+01 1.349839999999999804e+02 2.244130000000000109e+03
1.030000000000000082e-01 2.114695000000000047e-01 2.638224999999999909e+01 1.343414999999999964e+02 2.243890000000000327e+03
1.040000000000000091e-01 2.114455000000000084e-01 2.578634999999999877e+01 1.339934999999999832e+02 2.243725000000000364e+03
1.050000000000000100e-01 2.114314999999999944e-01 2.531555000000000177e+01 1.339039999999999964e+02 2.243614999999999782e+03
1.059999999999999970e-01 2.114260000000000028e-01 2.495224999999999937e+01 1.340210000000000150e+02 2.243569999999999709e+03
1.069999999999999979e-01 2.114270000000000038e-01 2.467215000000000202e+01 1.342760000000000105e+02 2.243574999999999818e+03
1.079999999999999988e-01 2.114324999999999954e-01 2.444610000000000127e+01 1.345900000000000034e+02 2.243605000000000018e+03
1.089999999999999997e-01 2.114405000000000034e-01 2.424224999999999852e+01 1.348815000000000168e+02 2.243644999999999982e+03
1.100000000000000006e-01 2.114459999999999951e-01 2.402815000000000012e+01 1.350670000000000073e+02 2.243685000000000400e+03
1.110000000000000014e-01 2.114484999999999837e-01 2.377270000000000039e+01 1.350715000000000146e+02 2.243694999999999709e+03
1.120000000000000023e-01 2.114435000000000064e-01 2.344839999999999947e+01 1.348290000000000077e+02 2.243664999999999964e+03
1.130000000000000032e-01 2.114305000000000212e-01 2.303320000000000078e+01 1.342920000000000016e+02 2.243574999999999818e+03
1.140000000000000041e-01 2.114064999999999972e-01 2.251180000000000092e+01 1.334304999999999950e+02 2.243420000000000073e+03
1.150000000000000050e-01 2.113705000000000167e-01 2.187655000000000172e+01 1.322350000000000136e+02 2.243184999999999945e+03
1.160000000000000059e-01 2.113234999999999975e-01 2.112814999999999799e+01 1.307189999999999941e+02 2.242875000000000000e+03
1.170000000000000068e-01 2.112645000000000217e-01 2.027530000000000143e+01 1.289145000000000039e+02 2.242489999999999782e+03
1.180000000000000077e-01 2.111959999999999948e-01 1.933419999999999916e+01 1.268739999999999952e+02 2.242034999999999854e+03
1.190000000000000085e-01 2.111190000000000011e-01 1.832735000000000269e+01 1.246640000000000015e+02 2.241529999999999745e+03
1.200000000000000094e-01 2.110360000000000014e-01 1.728209999999999980e+01 1.223605000000000018e+02 2.240980000000000018e+03
1.209999999999999964e-01 2.109504999999999852e-01 1.622869999999999990e+01 1.200469999999999970e+02 2.240414999999999964e+03
1.219999999999999973e-01 2.108645000000000103e-01 1.519869999999999877e+01 1.178050000000000068e+02 2.239840000000000146e+03
1.229999999999999982e-01 2.107815000000000105e-01 1.422264999999999979e+01 1.157135000000000105e+02 2.239284999999999854e+03
1.239999999999999991e-01 2.107034999999999880e-01 1.332874999999999943e+01 1.138414999999999964e+02 2.238765000000000327e+03
1.250000000000000000e-01 2.106335000000000013e-01 1.254100000000000037e+01 1.122454999999999927e+02 2.238295000000000073e+03
1.260000000000000009e-01 2.105739999999999834e-01 1.187825000000000131e+01 1.109679999999999893e+02 2.237890000000000327e+03
1.270000000000000018e-01 2.105255000000000043e-01 1.135328499999999963e+01 1.100340000000000060e+02 2.237559999999999945e+03
1.280000000000000027e-01 2.104894999999999960e-01 1.097218499999999963e+01 1.094525000000000006e+02 2.237309999999999945e+03
1.290000000000000036e-01 2.104659999999999864e-01 1.073472999999999900e+01 1.092145000000000010e+02 2.237144999999999982e+03
1.300000000000000044e-01 2.104544999999999888e-01 1.063426000000000116e+01 1.092969999999999970e+02 2.237064999999999600e+03
1.310000000000000053e-01 2.104550000000000032e-01 1.065869999999999962e+01 1.096640000000000015e+02 2.237055000000000291e+03
1.320000000000000062e-01 2.104659999999999864e-01 1.079119999999999990e+01 1.102674999999999983e+02 2.237119999999999891e+03
1.330000000000000071e-01 2.104849999999999777e-01 1.101130000000000031e+01 1.110540000000000020e+02 2.237239999999999782e+03
1.340000000000000080e-01 2.105115000000000181e-01 1.129619999999999891e+01 1.119654999999999916e+02 2.237404999999999745e+03
1.350000000000000089e-01 2.105420000000000069e-01 1.162190000000000012e+01 1.129414999999999907e+02 2.237604999999999563e+03
1.360000000000000098e-01 2.105759999999999854e-01 1.196444999999999936e+01 1.139244999999999948e+02 2.237824999999999818e+03
1.370000000000000107e-01 2.106099999999999917e-01 1.230105000000000004e+01 1.148619999999999948e+02 2.238050000000000182e+03
1.380000000000000115e-01 2.106425000000000103e-01 1.261100000000000065e+01 1.157065000000000055e+02 2.238264999999999873e+03
1.390000000000000124e-01 2.106715000000000115e-01 1.287685000000000102e+01 1.164200000000000017e+02 2.238460000000000036e+03
1.400000000000000133e-01 2.106969999999999954e-01 1.308464999999999989e+01 1.169745000000000061e+02 2.238630000000000109e+03
1.410000000000000142e-01 2.107165000000000010e-01 1.322470000000000034e+01 1.173534999999999968e+02 2.238764999999999873e+03
1.420000000000000151e-01 2.107300000000000006e-01 1.329165000000000063e+01 1.175494999999999948e+02 2.238859999999999673e+03
1.430000000000000160e-01 2.107374999999999943e-01 1.328474999999999895e+01 1.175670000000000073e+02 2.238914999999999964e+03
1.440000000000000169e-01 2.107384999999999953e-01 1.320724999999999838e+01 1.174194999999999993e+02 2.238925000000000182e+03
1.450000000000000178e-01 2.107340000000000046e-01 1.306625000000000014e+01 1.171295000000000073e+02 2.238894999999999982e+03
1.459999999999999909e-01 2.107240000000000224e-01 1.287195000000000000e+01 1.167270000000000039e+02 2.238840000000000146e+03
1.469999999999999918e-01 2.107104999999999950e-01 1.263674999999999926e+01 1.162454999999999927e+02 2.238750000000000000e+03
1.479999999999999927e-01 2.106939999999999924e-01 1.237464999999999904e+01 1.157199999999999989e+02 2.238644999999999982e+03
1.489999999999999936e-01 2.106760000000000022e-01 1.210004999999999953e+01 1.151860000000000070e+02 2.238525000000000091e+03
1.499999999999999944e-01 2.106580000000000119e-01 1.182685000000000031e+01 1.146790000000000020e+02 2.238404999999999745e+03
1.509999999999999953e-01 2.106399999999999939e-01 1.156794999999999973e+01 1.142259999999999991e+02 2.238295000000000073e+03
1.519999999999999962e-01 2.106244999999999923e-01 1.133419999999999916e+01 1.138520000000000039e+02 2.238184999999999945e+03
1.529999999999999971e-01 2.106120000000000214e-01 1.113400000000000034e+01 1.135730000000000075e+02 2.238099999999999909e+03
1.539999999999999980e-01 2.106020000000000114e-01 1.097309999999999874e+01 1.133984999999999985e+02 2.238034999999999854e+03
1.549999999999999989e-01 2.105960000000000054e-01 1.085440000000000005e+01 1.133300000000000125e+02 2.237989999999999782e+03
1.559999999999999998e-01 2.105934999999999890e-01 1.077779999999999916e+01 1.133624999999999972e+02 2.237970000000000255e+03
1.570000000000000007e-01 2.105945000000000178e-01 1.074080000000000013e+01 1.134855000000000018e+02 2.237975000000000364e+03
1.580000000000000016e-01 2.105989999999999807e-01 1.073850000000000016e+01 1.136829999999999927e+02 2.238000000000000000e+03
1.590000000000000024e-01 2.106060000000000154e-01 1.076409999999999911e+01 1.139344999999999999e+02 2.238039999999999964e+03
