# t [s], A [cm^2], U [cm/s], P [cPa], c [cm/s]
1.000000000000000021e-03 1.821165000000000145e-01 4.191560000000000286e-01 9.522434999999998695e+01 2.316364999999999782e+03
2.000000000000000042e-03 1.820494999999999752e-01 2.057527999999999579e+00 9.106755000000001132e+01 2.315720000000000255e+03
3.000000000000000062e-03 1.819009999999999794e-01 4.069578500000000432e+00 8.537725000000000364e+01 2.314340000000000146e+03
4.000000000000000083e-03 1.817174999999999763e-01 6.361030000000000406e+00 7.972419999999999618e+01 2.312650000000000091e+03
5.000000000000000104e-03 1.815390000000000059e-01 8.772375000000000256e+00 7.516779999999999973e+01 2.311019999999999982e+03
6.000000000000000125e-03 1.813740000000000074e-01 1.095684499999999950e+01 7.150069999999999482e+01 2.309539999999999964e+03
7.000000000000000146e-03 1.812225000000000086e-01 1.271925500000000042e+01 6.817555000000000121e+01 2.308224999999999909e+03
8.000000000000000167e-03 1.810924999999999896e-01 1.412959999999999994e+01 6.529044999999999277e+01 2.307105000000000018e+03
9.000000000000001055e-03 1.809859999999999802e-01 1.524664999999999893e+01 6.300610000000000355e+01 2.306199999999999818e+03
1.000000000000000194e-02 1.809014999999999929e-01 1.609495000000000076e+01 6.126950000000000784e+01 2.305494999999999891e+03
1.099999999999999936e-02 1.808385000000000131e-01 1.670145000000000124e+01 5.999020000000000152e+01 2.304970000000000255e+03
1.200000000000000025e-02 1.807890000000000053e-01 1.706090000000000018e+01 5.896604999999999563e+01 2.304574999999999818e+03
1.300000000000000114e-02 1.807479999999999920e-01 1.721249999999999858e+01 5.802969999999999828e+01 2.304250000000000000e+03
1.400000000000000203e-02 1.807190000000000185e-01 1.734989999999999810e+01 5.746600000000000108e+01 2.304025000000000091e+03
1.499999999999999944e-02 1.807179999999999898e-01 1.775734999999999886e+01 5.801874999999999716e+01 2.304025000000000091e+03
1.600000000000000033e-02 1.807604999999999906e-01 1.860365000000000180e+01 6.030249999999999488e+01 2.304385000000000218e+03
1.700000000000000122e-02 1.808480000000000087e-01 1.979565000000000197e+01 6.418290000000000362e+01 2.305130000000000109e+03
1.800000000000000211e-02 1.809634999999999994e-01 2.100860000000000127e+01 6.867029999999999745e+01 2.306119999999999891e+03
1.900000000000000300e-02 1.810749999999999860e-01 2.185419999999999874e+01 7.236820000000000164e+01 2.307095000000000255e+03
2.000000000000000042e-02 1.811524999999999941e-01 2.206909999999999883e+01 7.414305000000000234e+01 2.307789999999999964e+03
2.100000000000000130e-02 1.811769999999999770e-01 2.162384999999999735e+01 7.362449999999999761e+01 2.308045000000000073e+03
2.200000000000000219e-02 1.811510000000000065e-01 2.070884999999999820e+01 7.129679999999999040e+01 2.307859999999999673e+03
2.299999999999999961e-02 1.810914999999999886e-01 1.961910000000000309e+01 6.817934999999999945e+01 2.307380000000000109e+03
2.400000000000000050e-02 1.810229999999999895e-01 1.861030000000000229e+01 6.530629999999999313e+01 2.306789999999999964e+03
2.500000000000000139e-02 1.809629999999999850e-01 1.779994999999999905e+01 6.328780000000000427e+01 2.306265000000000327e+03
2.600000000000000228e-02 1.809189999999999965e-01 1.714930000000000021e+01 6.214130000000000109e+01 2.305869999999999891e+03
2.700000000000000316e-02 1.808869999999999922e-01 1.651820000000000022e+01 6.141330000000000666e+01 2.305590000000000146e+03
2.800000000000000058e-02 1.808545000000000014e-01 1.575499999999999901e+01 6.048390000000000555e+01 2.305309999999999945e+03
2.900000000000000147e-02 1.808109999999999995e-01 1.478154999999999930e+01 5.890234999999999843e+01 2.304940000000000055e+03
3.000000000000000236e-02 1.807509999999999950e-01 1.364219999999999899e+01 5.662009999999999366e+01 2.304435000000000400e+03
3.099999999999999978e-02 1.806800000000000073e-01 1.249800000000000111e+01 5.403844999999999743e+01 2.303829999999999927e+03
3.200000000000000067e-02 1.806119999999999948e-01 1.157073000000000107e+01 5.185840000000000316e+01 2.303239999999999782e+03
3.300000000000000155e-02 1.805649999999999755e-01 1.106000500000000031e+01 5.080205000000000126e+01 2.302815000000000055e+03
3.400000000000000244e-02 1.805539999999999923e-01 1.107005000000000017e+01 5.132890000000000441e+01 2.302690000000000055e+03
3.500000000000000333e-02 1.805849999999999955e-01 1.157250000000000156e+01 5.345860000000000412e+01 2.302925000000000182e+03
3.600000000000000422e-02 1.806530000000000080e-01 1.241489999999999938e+01 5.675655000000000427e+01 2.303484999999999673e+03
3.700000000000000511e-02 1.807429999999999870e-01 1.336449999999999960e+01 6.046444999999999936e+01 2.304244999999999891e+03
3.799999999999999906e-02 1.808354999999999824e-01 1.416795000000000115e+01 6.371174999999999500e+01 2.305039999999999964e+03
3.899999999999999994e-02 1.809084999999999999e-01 1.460760000000000147e+01 6.573005000000000564e+01 2.305675000000000182e+03
4.000000000000000083e-02 1.809445000000000081e-01 1.453954999999999842e+01 6.601154999999999973e+01 2.306010000000000218e+03
4.100000000000000172e-02 1.809330000000000105e-01 1.390825000000000067e+01 6.437810000000000343e+01 2.305935000000000400e+03
4.200000000000000261e-02 1.808720000000000050e-01 1.273981999999999992e+01 6.096150000000000091e+01 2.305430000000000291e+03
4.300000000000000350e-02 1.807644999999999946e-01 1.111968000000000067e+01 5.611804999999999666e+01 2.304525000000000091e+03
4.400000000000000439e-02 1.806210000000000038e-01 9.164955000000000851e+00 5.031504999999999939e+01 2.303310000000000400e+03
4.499999999999999833e-02 1.804520000000000013e-01 7.000804999999999723e+00 4.402655000000000030e+01 2.301864999999999782e+03
4.599999999999999922e-02 1.802705000000000002e-01 4.744975500000000679e+00 3.766434999999999889e+01 2.300305000000000291e+03
4.700000000000000011e-02 1.800855000000000095e-01 2.501909999999999634e+00 3.155149999999999721e+01 2.298710000000000036e+03
4.800000000000000100e-02 1.799069999999999836e-01 3.643700000000000827e-01 2.593089999999999762e+01 2.297164999999999964e+03
4.900000000000000189e-02 1.797414999999999985e-01 -1.582149999999999945e+00 2.099259999999999948e+01 2.295730000000000018e+03
5.000000000000000278e-02 1.795954999999999913e-01 -3.255504299999999684e+00 1.690259000000000000e+01 2.294460000000000036e+03
5.100000000000000366e-02 1.794744999999999813e-01 -4.576184999999999725e+00 1.382091499999999940e+01 2.293400000000000091e+03
5.200000000000000455e-02 1.793845000000000023e-01 -5.470449999999999591e+00 1.190330499999999958e+01 2.292600000000000364e+03
5.300000000000000544e-02 1.793299999999999894e-01 -5.876535000000000508e+00 1.128766999999999854e+01 2.292100000000000364e+03
5.399999999999999939e-02 1.793144999999999878e-01 -5.752055000000000362e+00 1.207189999999999941e+01 2.291940000000000055e+03
5.500000000000000028e-02 1.793410000000000004e-01 -5.080199999999999605e+00 1.429190000000000005e+01 2.292130000000000109e+03
5.600000000000000117e-02 1.794105000000000005e-01 -3.873174999999999812e+00 1.790654999999999930e+01 2.292690000000000055e+03
5.700000000000000205e-02 1.795200000000000129e-01 -2.171854999999999869e+00 2.279500000000000171e+01 2.293599999999999909e+03
5.800000000000000294e-02 1.796670000000000211e-01 -4.200500000000007006e-02 2.876620000000000132e+01 2.294835000000000036e+03
5.900000000000000383e-02 1.798450000000000049e-01 2.431899999999999729e+00 3.557764999999999844e+01 2.296345000000000255e+03
6.000000000000000472e-02 1.800474999999999992e-01 5.153784800000000388e+00 4.295870000000000033e+01 2.298074999999999818e+03
6.099999999999999867e-02 1.802670000000000106e-01 8.023150000000001114e+00 5.063309999999999889e+01 2.299954999999999927e+03
6.199999999999999956e-02 1.804950000000000165e-01 1.094109500000000068e+01 5.833869999999999578e+01 2.301925000000000182e+03
6.300000000000000044e-02 1.807249999999999968e-01 1.381612499999999955e+01 6.584305000000000518e+01 2.303920000000000073e+03
6.400000000000000133e-02 1.809505000000000141e-01 1.656850000000000023e+01 7.295490000000000919e+01 2.305880000000000109e+03
6.500000000000000222e-02 1.811650000000000205e-01 1.913469999999999871e+01 7.953350000000000364e+01 2.307760000000000218e+03
6.600000000000000311e-02 1.813649999999999984e-01 2.147044999999999959e+01 8.549504999999999200e+01 2.309519999999999982e+03
6.700000000000000400e-02 1.815490000000000159e-01 2.355279999999999774e+01 9.081624999999999659e+01 2.311144999999999982e+03
6.800000000000000488e-02 1.817155000000000020e-01 2.538080000000000069e+01 9.553284999999999627e+01 2.312619999999999891e+03
6.900000000000000577e-02 1.818664999999999865e-01 2.697344999999999970e+01 9.973355000000000814e+01 2.313960000000000036e+03
7.000000000000000666e-02 1.820035000000000125e-01 2.836670000000000158e+01 1.035475999999999885e+02 2.315184999999999945e+03
7.100000000000000755e-02 1.821309999999999873e-01 2.960800000000000054e+01 1.071304999999999978e+02 2.316320000000000164e+03
7.200000000000000844e-02 1.822529999999999983e-01 3.075054999999999694e+01 1.106430000000000007e+02 2.317404999999999745e+03
7.300000000000000933e-02 1.823730000000000073e-01 3.184694999999999965e+01 1.142349999999999994e+02 2.318474999999999909e+03
7.399999999999999634e-02 1.824954999999999772e-01 3.294375000000000142e+01 1.180275000000000034e+02 2.319565000000000055e+03
7.499999999999999722e-02 1.826234999999999942e-01 3.407689999999999486e+01 1.221049999999999898e+02 2.320699999999999818e+03
7.599999999999999811e-02 1.827594999999999914e-01 3.526895000000000380e+01 1.265035000000000025e+02 2.321899999999999636e+03
7.699999999999999900e-02 1.829040000000000110e-01 3.652729999999999677e+01 1.312144999999999868e+02 2.323175000000000182e+03
7.799999999999999989e-02 1.830565000000000109e-01 3.784474999999999767e+01 1.361835000000000093e+02 2.324519999999999982e+03
7.900000000000000078e-02 1.832145000000000024e-01 3.920094999999999885e+01 1.413220000000000027e+02 2.325914999999999964e+03
8.000000000000000167e-02 1.833759999999999835e-01 4.056465000000000032e+01 1.465129999999999768e+02 2.327350000000000364e+03
8.100000000000000255e-02 1.835384999999999933e-01 4.189719999999999800e+01 1.516254999999999882e+02 2.328784999999999854e+03
8.200000000000000344e-02 1.836969999999999992e-01 4.315590000000000259e+01 1.565229999999999961e+02 2.330194999999999709e+03
8.300000000000000433e-02 1.838484999999999980e-01 4.429744999999999777e+01 1.610740000000000123e+02 2.331539999999999964e+03
8.400000000000000522e-02 1.839890000000000136e-01 4.528140000000000498e+01 1.651634999999999991e+02 2.332795000000000073e+03
8.500000000000000611e-02 1.841150000000000009e-01 4.607285000000000252e+01 1.686959999999999980e+02 2.333925000000000182e+03
8.600000000000000699e-02 1.842239999999999989e-01 4.664489999999999981e+01 1.716034999999999968e+02 2.334909999999999854e+03
8.700000000000000788e-02 1.843150000000000066e-01 4.698029999999999973e+01 1.738485000000000014e+02 2.335730000000000018e+03
8.800000000000000877e-02 1.843865000000000087e-01 4.707215000000000060e+01 1.754234999999999900e+02 2.336385000000000218e+03
8.899999999999999578e-02 1.844375000000000042e-01 4.692459999999999809e+01 1.763509999999999991e+02 2.336859999999999673e+03
8.999999999999999667e-02 1.844699999999999951e-01 4.655160000000000053e+01 1.766795000000000186e+02 2.337164999999999964e+03
9.099999999999999756e-02 1.844850000000000101e-01 4.597615000000000407e+01 1.764800000000000182e+02 2.337309999999999945e+03
9.199999999999999845e-02 1.844839999999999813e-01 4.522849999999999682e+01 1.758405000000000200e+02 2.337324999999999818e+03
9.299999999999999933e-02 1.844700000000000228e-01 4.434409999999999741e+01 1.748584999999999923e+02 2.337215000000000146e+03
9.400000000000000022e-02 1.844459999999999988e-01 4.336110000000000042e+01 1.736365000000000123e+02 2.337010000000000218e+03
9.500000000000000111e-02 1.844144999999999812e-01 4.231855000000000189e+01 1.722760000000000105e+02 2.336739999999999782e+03
9.600000000000000200e-02 1.843785000000000007e-01 4.125410000000000110e+01 1.708695000000000164e+02 2.336430000000000291e+03
9.700000000000000289e-02 1.843404999999999905e-01 4.020229999999999393e+01 1.695009999999999764e+02 2.336094999999999800e+03
9.800000000000000377e-02 1.843029999999999946e-01 3.919274999999999665e+01 1.682400000000000091e+02 2.335760000000000218e+03
9.900000000000000466e-02 1.842679999999999874e-01 3.824930000000000518e+01 1.671374999999999886e+02 2.335454999999999927e+03
1.000000000000000056e-01 1.842374999999999985e-01 3.738864999999999839e+01 1.662270000000000039e+02 2.335175000000000182e+03
1.010000000000000064e-01 1.842115000000000002e-01 3.662010000000000076e+01 1.655229999999999961e+02 2.334940000000000055e+03
1.020000000000000073e-01 1.841915000000000080e-01 3.594519999999999982e+01 1.650200000000000102e+02 2.334750000000000000e+03
1.030000000000000082e-01 1.841760000000000064e-01 3.535819999999999652e+01 1.646935000000000002e+02 2.334605000000000018e+03
1.040000000000000091e-01 1.841650000000000231e-01 3.484645000000000437e+01 1.645024999999999977e+02 2.334505000000000109e+03
1.050000000000000100e-01 1.841575000000000017e-01 3.439180000000000348e+01 1.643940000000000055e+02 2.334430000000000291e+03
1.059999999999999970e-01 1.841515000000000235e-01 3.397189999999999799e+01 1.643045000000000186e+02 2.334369999999999891e+03
1.069999999999999979e-01 1.841460000000000041e-01 3.356195000000000306e+01 1.641664999999999850e+02 2.334314999999999600e+03
1.079999999999999988e-01 1.841384999999999827e-01 3.313639999999999475e+01 1.639110000000000014e+02 2.334250000000000000e+03
1.089999999999999997e-01 1.841274999999999995e-01 3.267114999999999725e+01 1.634775000000000205e+02 2.334149999999999636e+03
1.100000000000000006e-01 1.841099999999999959e-01 3.214500000000000313e+01 1.628129999999999882e+02 2.334000000000000000e+03
1.110000000000000014e-01 1.840864999999999863e-01 3.154145000000000110e+01 1.618799999999999955e+02 2.333789999999999964e+03
1.120000000000000023e-01 1.840554999999999830e-01 3.084994999999999976e+01 1.606574999999999989e+02 2.333515000000000327e+03
1.130000000000000032e-01 1.840154999999999985e-01 3.006625000000000014e+01 1.591430000000000007e+02 2.333164999999999964e+03
1.140000000000000041e-01 1.839675000000000060e-01 2.919344999999999857e+01 1.573539999999999850e+02 2.332744999999999891e+03
1.150000000000000050e-01 1.839115000000000055e-01 2.824119999999999919e+01 1.553255000000000052e+02 2.332255000000000109e+03
1.160000000000000059e-01 1.838490000000000124e-01 2.722540000000000049e+01 1.531094999999999970e+02 2.331699999999999818e+03
1.170000000000000068e-01 1.837809999999999999e-01 2.616689999999999827e+01 1.507694999999999936e+02 2.331105000000000018e+03
1.180000000000000077e-01 1.837094999999999978e-01 2.509009999999999962e+01 1.483754999999999882e+02 2.330474999999999909e+03
1.190000000000000085e-01 1.836369999999999947e-01 2.402139999999999986e+01 1.460040000000000191e+02 2.329835000000000036e+03
1.200000000000000094e-01 1.835654999999999926e-01 2.298750000000000071e+01 1.437269999999999754e+02 2.329199999999999818e+03
1.209999999999999964e-01 1.834970000000000212e-01 2.201350000000000051e+01 1.416119999999999948e+02 2.328590000000000146e+03
1.219999999999999973e-01 1.834330000000000127e-01 2.112164999999999893e+01 1.397169999999999845e+02 2.328019999999999982e+03
1.229999999999999982e-01 1.833754999999999968e-01 2.033019999999999783e+01 1.380855000000000246e+02 2.327505000000000109e+03
1.239999999999999991e-01 1.833255000000000023e-01 1.965230000000000032e+01 1.367479999999999905e+02 2.327059999999999945e+03
1.250000000000000000e-01 1.832845000000000169e-01 1.909574999999999889e+01 1.357199999999999989e+02 2.326684999999999945e+03
1.260000000000000009e-01 1.832519999999999982e-01 1.866280000000000072e+01 1.350000000000000000e+02 2.326390000000000327e+03
1.270000000000000018e-01 1.832285000000000164e-01 1.835040000000000049e+01 1.345745000000000005e+02 2.326175000000000182e+03
1.280000000000000027e-01 1.832139999999999880e-01 1.815080000000000027e+01 1.344184999999999945e+02 2.326034999999999854e+03
1.290000000000000036e-01 1.832070000000000087e-01 1.805225000000000080e+01 1.344959999999999809e+02 2.325965000000000146e+03
1.300000000000000044e-01 1.832064999999999944e-01 1.803979999999999961e+01 1.347654999999999745e+02 2.325954999999999927e+03
1.310000000000000053e-01 1.832125000000000004e-01 1.809660000000000224e+01 1.351820000000000164e+02 2.325994999999999891e+03
1.320000000000000062e-01 1.832225000000000104e-01 1.820454999999999757e+01 1.356979999999999791e+02 2.326079999999999927e+03
1.330000000000000071e-01 1.832354999999999956e-01 1.834539999999999793e+01 1.362680000000000007e+02 2.326185000000000400e+03
1.340000000000000080e-01 1.832500000000000240e-01 1.850150000000000006e+01 1.368500000000000227e+02 2.326315000000000055e+03
1.350000000000000089e-01 1.832654999999999978e-01 1.865684999999999860e+01 1.374055000000000177e+02 2.326449999999999818e+03
1.360000000000000098e-01 1.832805000000000129e-01 1.879724999999999824e+01 1.379029999999999916e+02 2.326579999999999927e+03
1.370000000000000107e-01 1.832940000000000125e-01 1.891120000000000090e+01 1.383185000000000002e+02 2.326694999999999709e+03
1.380000000000000115e-01 1.833049999999999957e-01 1.899014999999999986e+01 1.386345000000000027e+02 2.326800000000000182e+03
1.390000000000000124e-01 1.833140000000000047e-01 1.902850000000000108e+01 1.388425000000000011e+02 2.326880000000000109e+03
1.400000000000000133e-01 1.833199999999999830e-01 1.902405000000000257e+01 1.389420000000000073e+02 2.326930000000000291e+03
1.410000000000000142e-01 1.833224999999999993e-01 1.897735000000000127e+01 1.389385000000000048e+02 2.326960000000000036e+03
1.420000000000000151e-01 1.833224999999999993e-01 1.889195000000000135e+01 1.388455000000000155e+02 2.326960000000000036e+03
1.430000000000000160e-01 1.833199999999999830e-01 1.877349999999999852e+01 1.386800000000000068e+02 2.326944999999999709e+03
1.440000000000000169e-01 1.833155000000000201e-01 1.862940000000000040e+01 1.384639999999999986e+02 2.326904999999999745e+03
1.450000000000000178e-01 1.833100000000000007e-01 1.846804999999999808e+01 1.382205000000000155e+02 2.326859999999999673e+03
1.459999999999999909e-01 1.833035000000000081e-01 1.829834999999999923e+01 1.379725000000000250e+02 2.326805000000000291e+03
1.469999999999999918e-01 1.832965000000000011e-01 1.812870000000000203e+01 1.377414999999999736e+02 2.326744999999999891e+03
1.479999999999999927e-01 1.832909999999999817e-01 1.796699999999999875e+01 1.375455000000000041e+02 2.326695000000000164e+03
1.489999999999999936e-01 1.832854999999999901e-01 1.781949999999999790e+01 1.373985000000000127e+02 2.326650000000000091e+03
1.499999999999999944e-01 1.832820000000000005e-01 1.769105000000000061e+01 1.373104999999999905e+02 2.326614999999999782e+03
1.509999999999999953e-01 1.832799999999999985e-01 1.758449999999999847e+01 1.372839999999999918e+02 2.326595000000000255e+03
1.519999999999999962e-01 1.832794999999999841e-01 1.750110000000000099e+01 1.373195000000000050e+02 2.326590000000000146e+03
1.529999999999999971e-01 1.832805000000000129e-01 1.744014999999999915e+01 1.374105000000000132e+02 2.326600000000000364e+03
1.539999999999999980e-01 1.832834999999999881e-01 1.739945000000000164e+01 1.375484999999999900e+02 2.326625000000000000e+03
1.549999999999999989e-01 1.832874999999999921e-01 1.737575000000000003e+01 1.377219999999999800e+02 2.326659999999999854e+03
1.559999999999999998e-01 1.832930000000000115e-01 1.736464999999999748e+01 1.379174999999999898e+02 2.326699999999999818e+03
1.570000000000000007e-01 1.832980000000000165e-01 1.736144999999999783e+01 1.381209999999999809e+02 2.326750000000000000e+03
1.580000000000000016e-01 1.833039999999999947e-01 1.736104999999999876e+01 1.383195000000000050e+02 2.326800000000000182e+03
1.590000000000000024e-01 1.833100000000000007e-01 1.735895000000000010e+01 1.385000000000000000e+02 2.326849999999999909e+03
