# t [s], A [cm^2], U [cm/s], P [cPa], c [cm/s]
1.000000000000000021e-03 2.059130000000000127e-01 2.896190000000000153e-01 8.766304999999999836e+01 2.005480000000000018e+03
2.000000000000000042e-03 2.058675000000000088e-01 1.664543499999999954e+00 8.475309999999998922e+01 2.005154999999999973e+03
3.000000000000000062e-03 2.057355000000000156e-01 3.348870000000000235e+00 8.079444999999999766e+01 2.004250000000000000e+03
4.000000000000000083e-03 2.055500000000000105e-01 5.233211000000000723e+00 7.648695000000000732e+01 2.002990000000000009e+03
5.000000000000000104e-03 2.053480000000000028e-01 7.261544999999999916e+00 7.261715000000000941e+01 2.001634999999999991e+03
6.000000000000000125e-03 2.051510000000000000e-01 9.286659999999999471e+00 6.946659999999999968e+01 2.000320000000000164e+03
7.000000000000000146e-03 2.049654999999999949e-01 1.111662000000000106e+01 6.682840000000000202e+01 1.999109999999999900e+03
8.000000000000000167e-03 2.047944999999999904e-01 1.266329999999999956e+01 6.446474999999999511e+01 1.998005000000000109e+03
9.000000000000001055e-03 2.046425000000000050e-01 1.395415000000000028e+01 6.239254999999999995e+01 1.997045000000000073e+03
1.000000000000000194e-02 2.045124999999999860e-01 1.502469999999999928e+01 6.068990000000000151e+01 1.996230000000000018e+03
1.099999999999999936e-02 2.044050000000000034e-01 1.588804999999999978e+01 5.934550000000000125e+01 1.995565000000000055e+03
1.200000000000000025e-02 2.043174999999999852e-01 1.655375000000000085e+01 5.830195000000000505e+01 1.995029999999999973e+03
1.300000000000000114e-02 2.042484999999999995e-01 1.702669999999999817e+01 5.747814999999999941e+01 1.994615000000000009e+03
1.400000000000000203e-02 2.041919999999999846e-01 1.731254999999999811e+01 5.677429999999999666e+01 1.994279999999999973e+03
1.499999999999999944e-02 2.041449999999999931e-01 1.745244999999999891e+01 5.615635000000000332e+01 1.994009999999999991e+03
1.600000000000000033e-02 2.041100000000000136e-01 1.754664999999999964e+01 5.575735000000000241e+01 1.993809999999999945e+03
1.700000000000000122e-02 2.040945000000000120e-01 1.772845000000000226e+01 5.586129999999999995e+01 1.993734999999999900e+03
1.800000000000000211e-02 2.041084999999999983e-01 1.810164999999999935e+01 5.674909999999999854e+01 1.993835000000000036e+03
1.900000000000000300e-02 2.041574999999999918e-01 1.868639999999999901e+01 5.851425000000000409e+01 1.994139999999999873e+03
2.000000000000000042e-02 2.042390000000000039e-01 1.940599999999999881e+01 6.096965000000000146e+01 1.994650000000000091e+03
2.100000000000000130e-02 2.043415000000000092e-01 2.011759999999999948e+01 6.369120000000000203e+01 1.995295000000000073e+03
2.200000000000000219e-02 2.044475000000000042e-01 2.066619999999999990e+01 6.616200000000000614e+01 1.995974999999999909e+03
2.299999999999999961e-02 2.045405000000000140e-01 2.093674999999999997e+01 6.794344999999999857e+01 1.996579999999999927e+03
2.400000000000000050e-02 2.046069999999999833e-01 2.088599999999999923e+01 6.880320000000000391e+01 1.997019999999999982e+03
2.500000000000000139e-02 2.046425000000000050e-01 2.054530000000000101e+01 6.875939999999999941e+01 1.997269999999999982e+03
2.600000000000000228e-02 2.046489999999999976e-01 1.999849999999999994e+01 6.803665000000000873e+01 1.997329999999999927e+03
2.700000000000000316e-02 2.046330000000000093e-01 1.934604999999999819e+01 6.696129999999999427e+01 1.997250000000000000e+03
2.800000000000000058e-02 2.046049999999999813e-01 1.867065000000000197e+01 6.584104999999999563e+01 1.997079999999999927e+03
2.900000000000000147e-02 2.045739999999999781e-01 1.801570000000000249e+01 6.487409999999999854e+01 1.996889999999999873e+03
3.000000000000000236e-02 2.045440000000000036e-01 1.738159999999999883e+01 6.411209999999999809e+01 1.996699999999999818e+03
3.099999999999999978e-02 2.045164999999999900e-01 1.673764999999999858e+01 6.347974999999999568e+01 1.996529999999999973e+03
3.200000000000000067e-02 2.044884999999999897e-01 1.604315000000000069e+01 6.283370000000000033e+01 1.996349999999999909e+03
3.300000000000000155e-02 2.044559999999999989e-01 1.526929999999999943e+01 6.203664999999999452e+01 1.996150000000000091e+03
3.400000000000000244e-02 2.044159999999999866e-01 1.441605000000000025e+01 6.102094999999999914e+01 1.995900000000000091e+03
3.500000000000000333e-02 2.043690000000000229e-01 1.351849999999999952e+01 5.982519999999999527e+01 1.995609999999999900e+03
3.600000000000000422e-02 2.043174999999999852e-01 1.264175000000000004e+01 5.859295000000000186e+01 1.995289999999999964e+03
3.700000000000000511e-02 2.042680000000000051e-01 1.186629999999999896e+01 5.753745000000000687e+01 1.994974999999999909e+03
3.799999999999999906e-02 2.042289999999999939e-01 1.126811499999999988e+01 5.688304999999999723e+01 1.994724999999999909e+03
3.899999999999999994e-02 2.042074999999999863e-01 1.089939999999999998e+01 5.680280000000000484e+01 1.994579999999999927e+03
4.000000000000000083e-02 2.042090000000000016e-01 1.077564999999999884e+01 5.736995000000000289e+01 1.994579999999999927e+03
4.100000000000000172e-02 2.042355000000000143e-01 1.087204999999999977e+01 5.853594999999999970e+01 1.994724999999999909e+03
4.200000000000000261e-02 2.042829999999999924e-01 1.112809999999999988e+01 6.013859999999999673e+01 1.995009999999999991e+03
4.300000000000000350e-02 2.043455000000000132e-01 1.145964999999999989e+01 6.193394999999999584e+01 1.995394999999999982e+03
4.400000000000000439e-02 2.044134999999999980e-01 1.177380000000000138e+01 6.364329999999999643e+01 1.995815000000000055e+03
4.499999999999999833e-02 2.044769999999999921e-01 1.198320000000000007e+01 6.500094999999998890e+01 1.996220000000000027e+03
4.599999999999999922e-02 2.045265000000000000e-01 1.201759999999999984e+01 6.579444999999999766e+01 1.996534999999999854e+03
4.700000000000000011e-02 2.045540000000000136e-01 1.183044999999999902e+01 6.588930000000000575e+01 1.996715000000000146e+03
4.800000000000000100e-02 2.045545000000000002e-01 1.140070000000000050e+01 6.523699999999999477e+01 1.996730000000000018e+03
4.900000000000000189e-02 2.045259999999999856e-01 1.073063499999999948e+01 6.386700000000000443e+01 1.996554999999999836e+03
5.000000000000000278e-02 2.044684999999999975e-01 9.840530000000001110e+00 6.186905000000000143e+01 1.996204999999999927e+03
5.100000000000000366e-02 2.043860000000000121e-01 8.763124999999998721e+00 5.936969999999999459e+01 1.995694999999999936e+03
5.200000000000000455e-02 2.042819999999999914e-01 7.537565000000000737e+00 5.651054999999999495e+01 1.995045000000000073e+03
5.300000000000000544e-02 2.041614999999999958e-01 6.205875000000000696e+00 5.343115000000000236e+01 1.994289999999999964e+03
5.399999999999999939e-02 2.040299999999999891e-01 4.809944999999999915e+00 5.025854999999999961e+01 1.993460000000000036e+03
5.500000000000000028e-02 2.038925000000000043e-01 3.391036000000000161e+00 4.710430000000000206e+01 1.992594999999999800e+03
5.600000000000000117e-02 2.037539999999999907e-01 1.989765000000000228e+00 4.406555000000000177e+01 1.991719999999999800e+03
5.700000000000000205e-02 2.036184999999999801e-01 6.466899999999999871e-01 4.122950000000000159e+01 1.990865000000000009e+03
5.800000000000000294e-02 2.034905000000000186e-01 -5.973500000000000476e-01 3.867820000000000391e+01 1.990055000000000064e+03
5.900000000000000383e-02 2.033739999999999992e-01 -1.701414999999999900e+00 3.649105000000000132e+01 1.989309999999999945e+03
6.000000000000000472e-02 2.032729999999999815e-01 -2.625415999999999972e+00 3.474595000000000056e+01 1.988664999999999964e+03
6.099999999999999867e-02 2.031900000000000095e-01 -3.331725000000000048e+00 3.351659999999999684e+01 1.988134999999999991e+03
6.199999999999999956e-02 2.031304999999999916e-01 -3.787179999999999769e+00 3.286885000000000190e+01 1.987740000000000009e+03
6.300000000000000044e-02 2.030954999999999844e-01 -3.965304999999999858e+00 3.285504999999999853e+01 1.987505000000000109e+03
6.400000000000000133e-02 2.030885000000000051e-01 -3.848214999999999719e+00 3.350905000000000200e+01 1.987444999999999936e+03
6.500000000000000222e-02 2.031109999999999860e-01 -3.428049999999999820e+00 3.484190000000000254e+01 1.987565000000000055e+03
6.600000000000000311e-02 2.031629999999999825e-01 -2.707679999999999865e+00 3.683934999999999604e+01 1.987875000000000000e+03
6.700000000000000400e-02 2.032444999999999946e-01 -1.700634999999999897e+00 3.946240000000000236e+01 1.988369999999999891e+03
6.800000000000000488e-02 2.033539999999999792e-01 -4.302999999999999048e-01 4.264855000000000018e+01 1.989039999999999964e+03
6.900000000000000577e-02 2.034890000000000032e-01 1.071510000000000185e+00 4.631650000000000489e+01 1.989869999999999891e+03
7.000000000000000666e-02 2.036459999999999937e-01 2.766414999999999846e+00 5.037075000000000102e+01 1.990845000000000027e+03
7.100000000000000755e-02 2.038210000000000022e-01 4.611553000000000679e+00 5.470775000000000432e+01 1.991940000000000055e+03
7.200000000000000844e-02 2.040104999999999835e-01 6.561874999999999680e+00 5.922205000000000297e+01 1.993125000000000000e+03
7.300000000000000933e-02 2.042084999999999873e-01 8.572295000000000442e+00 6.381175000000000352e+01 1.994380000000000109e+03
7.399999999999999634e-02 2.044124999999999970e-01 1.059983000000000075e+01 6.838389999999999702e+01 1.995670000000000073e+03
7.499999999999999722e-02 2.046179999999999943e-01 1.260539499999999968e+01 7.285880000000000223e+01 1.996974999999999909e+03
7.599999999999999811e-02 2.048210000000000031e-01 1.455525000000000091e+01 7.717324999999999591e+01 1.998264999999999873e+03
7.699999999999999900e-02 2.050190000000000068e-01 1.642249999999999943e+01 8.128255000000000052e+01 1.999529999999999973e+03
7.799999999999999989e-02 2.052100000000000035e-01 1.818710000000000093e+01 8.516124999999999545e+01 2.000750000000000000e+03
7.900000000000000078e-02 2.053925000000000056e-01 1.983664999999999878e+01 8.880244999999999322e+01 2.001924999999999955e+03
8.000000000000000167e-02 2.055659999999999987e-01 2.136560000000000059e+01 9.221594999999999231e+01 2.003045000000000073e+03
8.100000000000000255e-02 2.057305000000000106e-01 2.277475000000000094e+01 9.542515000000000214e+01 2.004110000000000127e+03
8.200000000000000344e-02 2.058875000000000011e-01 2.406989999999999696e+01 9.846269999999999811e+01 2.005125000000000000e+03
8.300000000000000433e-02 2.060369999999999979e-01 2.526060000000000016e+01 1.013684499999999957e+02 2.006099999999999909e+03
8.400000000000000522e-02 2.061810000000000032e-01 2.635875000000000057e+01 1.041812000000000040e+02 2.007029999999999973e+03
8.500000000000000611e-02 2.063214999999999910e-01 2.737699999999999889e+01 1.069389999999999930e+02 2.007950000000000045e+03
8.600000000000000699e-02 2.064590000000000036e-01 2.832750000000000057e+01 1.096740000000000066e+02 2.008840000000000146e+03
8.700000000000000788e-02 2.065950000000000009e-01 2.922109999999999985e+01 1.124090000000000060e+02 2.009730000000000018e+03
8.800000000000000877e-02 2.067299999999999971e-01 3.006605000000000061e+01 1.151589999999999918e+02 2.010605000000000018e+03
8.899999999999999578e-02 2.068655000000000077e-01 3.086779999999999902e+01 1.179269999999999925e+02 2.011490000000000009e+03
8.999999999999999667e-02 2.070015000000000049e-01 3.162870000000000203e+01 1.207079999999999984e+02 2.012375000000000000e+03
9.099999999999999756e-02 2.071375000000000022e-01 3.234799999999999898e+01 1.234869999999999948e+02 2.013259999999999991e+03
9.199999999999999845e-02 2.072724999999999984e-01 3.302200000000000557e+01 1.262404999999999973e+02 2.014135000000000218e+03
9.299999999999999933e-02 2.074060000000000070e-01 3.364455000000000240e+01 1.289405000000000143e+02 2.015009999999999991e+03
9.400000000000000022e-02 2.075374999999999859e-01 3.420749999999999602e+01 1.315554999999999950e+02 2.015860000000000127e+03
9.500000000000000111e-02 2.076639999999999875e-01 3.470139999999999958e+01 1.340509999999999877e+02 2.016690000000000055e+03
9.600000000000000200e-02 2.077855000000000119e-01 3.511599999999999966e+01 1.363924999999999841e+02 2.017480000000000018e+03
9.700000000000000289e-02 2.078995000000000148e-01 3.544105000000000416e+01 1.385475000000000136e+02 2.018230000000000018e+03
9.800000000000000377e-02 2.080055000000000098e-01 3.566674999999999329e+01 1.404870000000000232e+02 2.018925000000000182e+03
9.900000000000000466e-02 2.081020000000000092e-01 3.578459999999999752e+01 1.421850000000000023e+02 2.019555000000000064e+03
1.000000000000000056e-01 2.081874999999999976e-01 3.578759999999999764e+01 1.436220000000000141e+02 2.020119999999999891e+03
1.010000000000000064e-01 2.082610000000000017e-01 3.567110000000000269e+01 1.447849999999999966e+02 2.020610000000000127e+03
1.020000000000000073e-01 2.083225000000000215e-01 3.543264999999999532e+01 1.456670000000000016e+02 2.021014999999999873e+03
1.030000000000000082e-01 2.083710000000000007e-01 3.507285000000000252e+01 1.462685000000000173e+02 2.021345000000000027e+03
1.040000000000000091e-01 2.084074999999999955e-01 3.459494999999999720e+01 1.465970000000000084e+02 2.021590000000000146e+03
1.050000000000000100e-01 2.084310000000000052e-01 3.400509999999999877e+01 1.466664999999999850e+02 2.021755000000000109e+03
1.059999999999999970e-01 2.084429999999999894e-01 3.331215000000000259e+01 1.464989999999999952e+02 2.021839999999999918e+03
1.069999999999999979e-01 2.084440000000000182e-01 3.252724999999999511e+01 1.461184999999999832e+02 2.021855000000000018e+03
1.079999999999999988e-01 2.084345000000000225e-01 3.166370000000000218e+01 1.455554999999999950e+02 2.021804999999999836e+03
1.089999999999999997e-01 2.084165000000000045e-01 3.073600000000000065e+01 1.448439999999999941e+02 2.021695000000000164e+03
1.100000000000000006e-01 2.083909999999999929e-01 2.975985000000000014e+01 1.440169999999999959e+02 2.021539999999999964e+03
1.110000000000000014e-01 2.083599999999999897e-01 2.875100000000000122e+01 1.431089999999999804e+02 2.021344999999999800e+03
1.120000000000000023e-01 2.083245000000000235e-01 2.772510000000000119e+01 1.421525000000000034e+02 2.021115000000000009e+03
1.130000000000000032e-01 2.082855000000000123e-01 2.669699999999999918e+01 1.411784999999999854e+02 2.020869999999999891e+03
1.140000000000000041e-01 2.082455000000000001e-01 2.568005000000000138e+01 1.402125000000000057e+02 2.020605000000000018e+03
1.150000000000000050e-01 2.082050000000000012e-01 2.468605000000000160e+01 1.392769999999999868e+02 2.020345000000000027e+03
1.160000000000000059e-01 2.081644999999999746e-01 2.372460000000000235e+01 1.383890000000000100e+02 2.020085000000000036e+03
1.170000000000000068e-01 2.081255000000000188e-01 2.280304999999999893e+01 1.375589999999999975e+02 2.019825000000000045e+03
1.180000000000000077e-01 2.080885000000000096e-01 2.192620000000000147e+01 1.367934999999999945e+02 2.019585000000000036e+03
1.190000000000000085e-01 2.080529999999999879e-01 2.109655000000000058e+01 1.360925000000000011e+02 2.019355000000000018e+03
1.200000000000000094e-01 2.080204999999999971e-01 2.031400000000000006e+01 1.354519999999999982e+02 2.019139999999999873e+03
1.209999999999999964e-01 2.079900000000000082e-01 1.957639999999999958e+01 1.348615000000000066e+02 2.018940000000000055e+03
1.219999999999999973e-01 2.079610000000000070e-01 1.887944999999999851e+01 1.343075000000000045e+02 2.018744999999999891e+03
1.229999999999999982e-01 2.079340000000000077e-01 1.821730000000000160e+01 1.337749999999999773e+02 2.018565000000000055e+03
1.239999999999999991e-01 2.079070000000000085e-01 1.758279999999999887e+01 1.332450000000000045e+02 2.018389999999999873e+03
1.250000000000000000e-01 2.078804999999999958e-01 1.696784999999999854e+01 1.326974999999999909e+02 2.018210000000000036e+03
1.260000000000000009e-01 2.078530000000000100e-01 1.636410000000000053e+01 1.321140000000000043e+02 2.018029999999999973e+03
1.270000000000000018e-01 2.078240000000000087e-01 1.576314999999999955e+01 1.314759999999999991e+02 2.017835000000000036e+03
1.280000000000000027e-01 2.077924999999999911e-01 1.515709999999999980e+01 1.307655000000000030e+02 2.017630000000000109e+03
1.290000000000000036e-01 2.077574999999999839e-01 1.453894999999999982e+01 1.299705000000000155e+02 2.017404999999999973e+03
1.300000000000000044e-01 2.077195000000000014e-01 1.390295000000000059e+01 1.290805000000000007e+02 2.017154999999999973e+03
1.310000000000000053e-01 2.076770000000000005e-01 1.324489999999999945e+01 1.280885000000000105e+02 2.016880000000000109e+03
1.320000000000000062e-01 2.076299999999999812e-01 1.256240000000000023e+01 1.269934999999999974e+02 2.016575000000000045e+03
1.330000000000000071e-01 2.075790000000000135e-01 1.185505500000000012e+01 1.257989999999999924e+02 2.016244999999999891e+03
1.340000000000000080e-01 2.075239999999999863e-01 1.112451000000000079e+01 1.245125000000000028e+02 2.015884999999999991e+03
1.350000000000000089e-01 2.074639999999999818e-01 1.037417500000000103e+01 1.231465000000000032e+02 2.015505000000000109e+03
1.360000000000000098e-01 2.074010000000000020e-01 9.609415000000000262e+00 1.217175000000000011e+02 2.015095000000000027e+03
1.370000000000000107e-01 2.073349999999999915e-01 8.837085000000000079e+00 1.202439999999999998e+02 2.014670000000000073e+03
1.380000000000000115e-01 2.072674999999999934e-01 8.065430000000000987e+00 1.187494999999999976e+02 2.014230000000000018e+03
1.390000000000000124e-01 2.071979999999999933e-01 7.303329999999999878e+00 1.172560000000000002e+02 2.013785000000000082e+03
1.400000000000000133e-01 2.071284999999999932e-01 6.560354999999999492e+00 1.157879999999999967e+02 2.013335000000000036e+03
1.410000000000000142e-01 2.070605000000000084e-01 5.845989999999999576e+00 1.143689999999999998e+02 2.012894999999999982e+03
1.420000000000000151e-01 2.069944999999999979e-01 5.169374999999999609e+00 1.130200000000000102e+02 2.012464999999999918e+03
1.430000000000000160e-01 2.069304999999999894e-01 4.538854999999999862e+00 1.117609999999999957e+02 2.012049999999999955e+03
1.440000000000000169e-01 2.068709999999999993e-01 3.961650000000000116e+00 1.106075000000000017e+02 2.011660000000000082e+03
1.450000000000000178e-01 2.068154999999999855e-01 3.443579999999999863e+00 1.095705000000000098e+02 2.011299999999999955e+03
1.459999999999999909e-01 2.067650000000000043e-01 2.988849999999999785e+00 1.086595000000000084e+02 2.010970000000000027e+03
1.469999999999999918e-01 2.067200000000000149e-01 2.599944999999999951e+00 1.078780000000000001e+02 2.010679999999999836e+03
1.479999999999999927e-01 2.066804999999999892e-01 2.277549999999999741e+00 1.072249999999999943e+02 2.010414999999999964e+03
1.489999999999999936e-01 2.066465000000000107e-01 2.020649999999999835e+00 1.066965000000000003e+02 2.010190000000000055e+03
1.499999999999999944e-01 2.066184999999999827e-01 1.826570000000000027e+00 1.062854999999999990e+02 2.010005000000000109e+03
1.509999999999999953e-01 2.065950000000000009e-01 1.691190000000000193e+00 1.059795000000000016e+02 2.009849999999999909e+03
1.519999999999999962e-01 2.065770000000000106e-01 1.609150000000000080e+00 1.057669999999999959e+02 2.009724999999999909e+03
1.529999999999999971e-01 2.065624999999999822e-01 1.574060000000000015e+00 1.056314999999999884e+02 2.009630000000000109e+03
1.539999999999999980e-01 2.065525000000000000e-01 1.578840000000000021e+00 1.055579999999999927e+02 2.009555000000000064e+03
1.549999999999999989e-01 2.065449999999999786e-01 1.615909999999999958e+00 1.055294999999999987e+02 2.009505000000000109e+03
1.559999999999999998e-01 2.065400000000000014e-01 1.677545000000000064e+00 1.055304999999999893e+02 2.009470000000000027e+03
1.570000000000000007e-01 2.065365000000000117e-01 1.756075000000000053e+00 1.055444999999999993e+02 2.009445000000000164e+03
1.580000000000000016e-01 2.065339999999999954e-01 1.844155000000000211e+00 1.055579999999999927e+02 2.009424999999999955e+03
1.590000000000000024e-01 2.065319999999999934e-01 1.934949999999999948e+00 1.055579999999999927e+02 2.009409999999999854e+03
