# t [s], A [cm^2], U [cm/s], P [cPa], c [cm/s]
1.000000000000000021e-03 4.552249999999999908e-01 2.766749999999998377e-03 9.882374999999998977e+01 1.433385000000000218e+03
2.000000000000000042e-03 4.552184999999999704e-01 3.784650000000001381e-04 9.880949999999999989e+01 1.433384999999999991e+03
3.000000000000000062e-03 4.552429999999999533e-01 5.126014999999999738e-02 9.885434999999999661e+01 1.433394999999999982e+03
4.000000000000000083e-03 4.552829999999999933e-01 1.328635499999999969e-01 9.894984999999999786e+01 1.433425000000000182e+03
5.000000000000000104e-03 4.552910000000000013e-01 1.532683999999999991e-01 9.897935000000001082e+01 1.433440000000000055e+03
6.000000000000000125e-03 4.552674999999999916e-01 1.050284999999999969e-01 9.890250000000000341e+01 1.433424999999999955e+03
7.000000000000000146e-03 4.552370000000000028e-01 3.885399999999999965e-02 9.875835000000000719e+01 1.433394999999999982e+03
8.000000000000000167e-03 4.552050000000000263e-01 -3.315299999999998803e-02 9.856604999999998995e+01 1.433345000000000027e+03
9.000000000000001055e-03 4.551529999999999743e-01 -1.541964999999999586e-01 9.828135000000000332e+01 1.433275000000000091e+03
1.000000000000000194e-02 4.550679999999999725e-01 -3.527150000000000007e-01 9.785745000000000005e+01 1.433170000000000073e+03
1.099999999999999936e-02 4.549465000000000314e-01 -6.351049999999999196e-01 9.726404999999999745e+01 1.433014999999999873e+03
1.200000000000000025e-02 4.547795000000000032e-01 -1.010055000000000147e+00 9.646729999999999450e+01 1.432809999999999945e+03
1.300000000000000114e-02 4.545620000000000216e-01 -1.480194999999999927e+00 9.543834999999999980e+01 1.432539999999999964e+03
1.400000000000000203e-02 4.542990000000000084e-01 -2.017475000000000129e+00 9.418309999999999604e+01 1.432195000000000164e+03
1.499999999999999944e-02 4.540135000000000143e-01 -2.557640000000000136e+00 9.275809999999999889e+01 1.431795000000000073e+03
1.600000000000000033e-02 4.537304999999999811e-01 -3.020140000000000047e+00 9.125645000000000095e+01 1.431365000000000009e+03
1.700000000000000122e-02 4.534734999999999738e-01 -3.336244999999999905e+00 8.977620000000000289e+01 1.430920000000000073e+03
1.800000000000000211e-02 4.532519999999999882e-01 -3.468067999999999707e+00 8.839089999999998781e+01 1.430485000000000127e+03
1.900000000000000300e-02 4.530635000000000079e-01 -3.412970999999999755e+00 8.713485000000000014e+01 1.430069999999999936e+03
2.000000000000000042e-02 4.528965000000000352e-01 -3.196651499999999757e+00 8.600260000000000105e+01 1.429674999999999955e+03
2.100000000000000130e-02 4.527360000000000273e-01 -2.860486499999999932e+00 8.495910000000000650e+01 1.429295000000000073e+03
2.200000000000000219e-02 4.525675000000000114e-01 -2.448030999999999846e+00 8.395535000000000991e+01 1.428925000000000182e+03
2.299999999999999961e-02 4.523804999999999632e-01 -1.993994999999999962e+00 8.294384999999999764e+01 1.428550000000000182e+03
2.400000000000000050e-02 4.521719999999999628e-01 -1.517879999999999896e+00 8.189170000000000016e+01 1.428170000000000073e+03
2.500000000000000139e-02 4.519444999999999713e-01 -1.023414999999999964e+00 8.078610000000000468e+01 1.427764999999999873e+03
2.600000000000000228e-02 4.517039999999999944e-01 -5.032750000000001389e-01 7.963335000000000719e+01 1.427355000000000018e+03
2.700000000000000316e-02 4.514584999999999848e-01 5.309000000000008157e-02 7.845150000000001000e+01 1.426940000000000055e+03
2.800000000000000058e-02 4.512129999999999752e-01 6.514400000000000190e-01 7.726035000000000252e+01 1.426514999999999873e+03
2.900000000000000147e-02 4.509689999999999532e-01 1.287090000000000067e+00 7.607245000000000346e+01 1.426085000000000036e+03
3.000000000000000236e-02 4.507240000000000135e-01 1.942789999999999795e+00 7.488689999999999714e+01 1.425660000000000082e+03
3.099999999999999978e-02 4.504704999999999959e-01 2.590270000000000294e+00 7.368780000000000996e+01 1.425224999999999909e+03
3.200000000000000067e-02 4.502005000000000035e-01 3.194574999999999942e+00 7.244700000000000273e+01 1.424784999999999854e+03
3.300000000000000155e-02 4.499049999999999994e-01 3.720034999999999314e+00 7.113030000000000541e+01 1.424325000000000045e+03
3.400000000000000244e-02 4.495765000000000455e-01 4.136614999999999931e+00 6.970490000000000919e+01 1.423840000000000146e+03
3.500000000000000333e-02 4.492130000000000289e-01 4.425124999999999531e+00 6.814785000000000537e+01 1.423315000000000055e+03
3.600000000000000422e-02 4.488159999999999927e-01 4.580754999999999910e+00 6.645244999999999891e+01 1.422759999999999991e+03
3.700000000000000511e-02 4.483924999999999716e-01 4.613984999999999559e+00 6.463210000000000832e+01 1.422170000000000073e+03
3.799999999999999906e-02 4.479529999999999346e-01 4.548334999999999795e+00 6.272039999999999793e+01 1.421559999999999945e+03
3.899999999999999994e-02 4.475124999999999797e-01 4.416970000000000951e+00 6.076805000000000234e+01 1.420930000000000064e+03
4.000000000000000083e-02 4.470849999999999547e-01 4.257690000000000197e+00 5.883729999999999905e+01 1.420309999999999945e+03
4.100000000000000172e-02 4.466845000000000399e-01 4.108254999999999768e+00 5.699535000000000196e+01 1.419704999999999927e+03
4.200000000000000261e-02 4.463249999999999718e-01 4.002595000000000347e+00 5.530765000000000242e+01 1.419139999999999873e+03
4.300000000000000350e-02 4.460155000000000092e-01 3.968535000000000146e+00 5.383310000000000173e+01 1.418634999999999991e+03
4.400000000000000439e-02 4.457649999999999668e-01 4.027000000000000135e+00 5.262010000000000076e+01 1.418200000000000045e+03
4.499999999999999833e-02 4.455779999999999741e-01 4.192220999999999975e+00 5.170534999999999570e+01 1.417849999999999909e+03
4.599999999999999922e-02 4.454574999999999507e-01 4.473099999999999632e+00 5.111374999999999602e+01 1.417595000000000027e+03
4.700000000000000011e-02 4.454049999999999954e-01 4.874750000000000583e+00 5.085970000000000368e+01 1.417440000000000055e+03
4.800000000000000100e-02 4.454209999999999559e-01 5.400095000000000312e+00 5.094915000000000305e+01 1.417384999999999991e+03
4.900000000000000189e-02 4.455044999999999700e-01 6.051064999999999472e+00 5.138179999999999836e+01 1.417445000000000164e+03
5.000000000000000278e-02 4.456559999999999966e-01 6.829245000000000232e+00 5.215300000000000580e+01 1.417610000000000127e+03
5.100000000000000366e-02 4.458735000000000337e-01 7.735915000000000319e+00 5.325509999999999877e+01 1.417880000000000109e+03
5.200000000000000455e-02 4.461549999999999683e-01 8.771530000000000271e+00 5.467799999999999727e+01 1.418255000000000109e+03
5.300000000000000544e-02 4.465000000000000080e-01 9.934999999999998721e+00 5.640925000000000011e+01 1.418730000000000018e+03
5.399999999999999939e-02 4.469039999999999679e-01 1.122293999999999947e+01 5.843359999999999843e+01 1.419305000000000064e+03
5.500000000000000028e-02 4.473639999999999839e-01 1.262877499999999920e+01 6.073229999999999507e+01 1.419970000000000027e+03
5.600000000000000117e-02 4.478750000000000231e-01 1.414264500000000169e+01 6.328289999999999793e+01 1.420720000000000027e+03
5.700000000000000205e-02 4.484310000000000240e-01 1.575138000000000105e+01 6.605920000000000414e+01 1.421549999999999955e+03
5.800000000000000294e-02 4.490259999999999807e-01 1.743881000000000014e+01 6.903130000000000166e+01 1.422450000000000045e+03
5.900000000000000383e-02 4.496525000000000105e-01 1.918684999999999974e+01 7.216674999999999329e+01 1.423414999999999964e+03
6.000000000000000472e-02 4.503035000000000232e-01 2.097605000000000075e+01 7.543144999999999811e+01 1.424424999999999955e+03
6.099999999999999867e-02 4.509720000000000395e-01 2.278685000000000116e+01 7.879104999999999848e+01 1.425480000000000018e+03
6.199999999999999956e-02 4.516514999999999835e-01 2.460050000000000026e+01 8.221240000000000236e+01 1.426569999999999936e+03
6.300000000000000044e-02 4.523359999999999603e-01 2.639979999999999905e+01 8.566474999999999795e+01 1.427675000000000182e+03
6.400000000000000133e-02 4.530204999999999371e-01 2.816969999999999885e+01 8.912109999999999843e+01 1.428789999999999964e+03
6.500000000000000222e-02 4.537019999999999942e-01 2.989780000000000371e+01 9.255859999999999843e+01 1.429914999999999964e+03
6.600000000000000311e-02 4.543760000000000021e-01 3.157415000000000305e+01 9.596010000000001128e+01 1.431039999999999964e+03
6.700000000000000400e-02 4.550420000000000020e-01 3.319169999999999732e+01 9.931190000000000850e+01 1.432150000000000091e+03
6.800000000000000488e-02 4.556974999999999776e-01 3.474545000000000528e+01 1.026063499999999920e+02 1.433259999999999991e+03
6.900000000000000577e-02 4.563435000000000130e-01 3.623270000000000124e+01 1.058395500000000027e+02 1.434349999999999909e+03
7.000000000000000666e-02 4.569794999999999829e-01 3.765240000000000009e+01 1.090114000000000090e+02 1.435430000000000064e+03
7.100000000000000755e-02 4.576069999999999860e-01 3.900464999999999804e+01 1.121239999999999952e+02 1.436500000000000000e+03
7.200000000000000844e-02 4.582264999999999810e-01 4.029049999999999443e+01 1.151829999999999927e+02 1.437549999999999955e+03
7.300000000000000933e-02 4.588379999999999681e-01 4.151149999999999807e+01 1.181920000000000073e+02 1.438585000000000036e+03
7.399999999999999634e-02 4.594440000000000190e-01 4.266920000000000357e+01 1.211585000000000036e+02 1.439615000000000009e+03
7.499999999999999722e-02 4.600440000000000085e-01 4.376505000000000223e+01 1.240849999999999937e+02 1.440625000000000000e+03
7.599999999999999811e-02 4.606385000000000618e-01 4.479990000000000094e+01 1.269764999999999873e+02 1.441630000000000109e+03
7.699999999999999900e-02 4.612284999999999857e-01 4.577420000000000044e+01 1.298349999999999795e+02 1.442625000000000000e+03
7.799999999999999989e-02 4.618120000000000003e-01 4.668744999999999834e+01 1.326589999999999918e+02 1.443610000000000127e+03
7.900000000000000078e-02 4.623895000000000088e-01 4.753835000000000122e+01 1.354455000000000098e+02 1.444585000000000036e+03
8.000000000000000167e-02 4.629580000000000362e-01 4.832495000000000118e+01 1.381899999999999977e+02 1.445545000000000073e+03
8.100000000000000255e-02 4.635175000000000267e-01 4.904449999999999932e+01 1.408845000000000027e+02 1.446494999999999891e+03
8.200000000000000344e-02 4.640644999999999909e-01 4.969379999999999598e+01 1.435185000000000173e+02 1.447420000000000073e+03
8.300000000000000433e-02 4.645970000000000377e-01 5.026924999999999955e+01 1.460825000000000102e+02 1.448329999999999927e+03
8.400000000000000522e-02 4.651125000000000398e-01 5.076725000000000421e+01 1.485629999999999882e+02 1.449215000000000146e+03
8.500000000000000611e-02 4.656084999999999807e-01 5.118424999999999869e+01 1.509484999999999957e+02 1.450069999999999936e+03
8.600000000000000699e-02 4.660824999999999552e-01 5.151700000000000301e+01 1.532264999999999873e+02 1.450889999999999873e+03
8.700000000000000788e-02 4.665319999999999467e-01 5.176295000000000357e+01 1.553859999999999957e+02 1.451680000000000064e+03
8.800000000000000877e-02 4.669559999999999822e-01 5.192020000000000124e+01 1.574155000000000086e+02 1.452420000000000073e+03
8.899999999999999578e-02 4.673515000000000308e-01 5.198760000000000048e+01 1.593069999999999879e+02 1.453119999999999891e+03
8.999999999999999667e-02 4.677179999999999671e-01 5.196495000000000175e+01 1.610529999999999973e+02 1.453775000000000091e+03
9.099999999999999756e-02 4.680549999999999988e-01 5.185314999999999941e+01 1.626494999999999891e+02 1.454380000000000109e+03
9.199999999999999845e-02 4.683614999999999862e-01 5.165395000000000181e+01 1.640930000000000177e+02 1.454934999999999945e+03
9.299999999999999933e-02 4.686374999999999846e-01 5.137024999999999864e+01 1.653834999999999980e+02 1.455440000000000055e+03
9.400000000000000022e-02 4.688824999999999799e-01 5.100584999999999525e+01 1.665225000000000080e+02 1.455894999999999982e+03
9.500000000000000111e-02 4.690995000000000026e-01 5.056539999999999679e+01 1.675144999999999982e+02 1.456299999999999955e+03
9.600000000000000200e-02 4.692880000000000384e-01 5.005464999999999520e+01 1.683650000000000091e+02 1.456654999999999973e+03
9.700000000000000289e-02 4.694504999999999928e-01 4.947979999999999734e+01 1.690810000000000173e+02 1.456964999999999918e+03
9.800000000000000377e-02 4.695880000000000054e-01 4.884799999999999898e+01 1.696730000000000018e+02 1.457230000000000018e+03
9.900000000000000466e-02 4.697029999999999816e-01 4.816669999999999874e+01 1.701504999999999939e+02 1.457450000000000045e+03
1.000000000000000056e-01 4.697974999999999790e-01 4.744384999999999764e+01 1.705255000000000223e+02 1.457634999999999991e+03
1.010000000000000064e-01 4.698740000000000139e-01 4.668744999999999834e+01 1.708100000000000023e+02 1.457784999999999854e+03
1.020000000000000073e-01 4.699349999999999916e-01 4.590554999999999808e+01 1.710160000000000196e+02 1.457904999999999973e+03
1.030000000000000082e-01 4.699829999999999841e-01 4.510620000000000118e+01 1.711554999999999893e+02 1.457994999999999891e+03
1.040000000000000091e-01 4.700195000000000345e-01 4.429664999999999964e+01 1.712420000000000186e+02 1.458065000000000055e+03
1.050000000000000100e-01 4.700475000000000625e-01 4.348390000000000555e+01 1.712855000000000132e+02 1.458115000000000009e+03
1.059999999999999970e-01 4.700689999999999591e-01 4.267409999999999570e+01 1.712969999999999970e+02 1.458150000000000091e+03
1.069999999999999979e-01 4.700849999999999751e-01 4.187234999999999729e+01 1.712839999999999918e+02 1.458170000000000073e+03
1.079999999999999988e-01 4.700965000000000282e-01 4.108289999999999509e+01 1.712549999999999955e+02 1.458179999999999836e+03
1.089999999999999997e-01 4.701059999999999683e-01 4.030880000000000507e+01 1.712155000000000200e+02 1.458179999999999836e+03
1.100000000000000006e-01 4.701125000000000442e-01 3.955190000000000339e+01 1.711684999999999945e+02 1.458184999999999945e+03
1.110000000000000014e-01 4.701164999999999927e-01 3.881295000000000073e+01 1.711164999999999736e+02 1.458175000000000182e+03
1.120000000000000023e-01 4.701189999999999536e-01 3.809175000000000466e+01 1.710595000000000141e+02 1.458159999999999854e+03
1.130000000000000032e-01 4.701174999999999660e-01 3.738689999999999714e+01 1.709954999999999927e+02 1.458144999999999982e+03
1.140000000000000041e-01 4.701134999999999620e-01 3.669650000000000034e+01 1.709230000000000018e+02 1.458125000000000000e+03
1.150000000000000050e-01 4.701054999999999540e-01 3.601780000000000115e+01 1.708369999999999891e+02 1.458099999999999909e+03
1.160000000000000059e-01 4.700920000000000099e-01 3.534765000000000157e+01 1.707324999999999875e+02 1.458065000000000055e+03
1.170000000000000068e-01 4.700725000000000042e-01 3.468265000000000242e+01 1.706055000000000064e+02 1.458025000000000091e+03
1.180000000000000077e-01 4.700455000000000050e-01 3.401930000000000121e+01 1.704499999999999886e+02 1.457980000000000018e+03
1.190000000000000085e-01 4.700110000000000121e-01 3.335420000000000584e+01 1.702609999999999957e+02 1.457914999999999964e+03
1.200000000000000094e-01 4.699674999999999825e-01 3.268415000000000248e+01 1.700339999999999918e+02 1.457845000000000027e+03
1.209999999999999964e-01 4.699145000000000127e-01 3.200650000000000261e+01 1.697644999999999982e+02 1.457764999999999873e+03
1.219999999999999973e-01 4.698520000000000474e-01 3.131889999999999930e+01 1.694499999999999886e+02 1.457664999999999964e+03
1.229999999999999982e-01 4.697784999999999878e-01 3.061990000000000123e+01 1.690894999999999868e+02 1.457550000000000182e+03
1.239999999999999991e-01 4.696954999999999880e-01 2.990830000000000055e+01 1.686804999999999950e+02 1.457420000000000073e+03
1.250000000000000000e-01 4.696025000000000338e-01 2.918390000000000128e+01 1.682250000000000227e+02 1.457279999999999973e+03
1.260000000000000009e-01 4.695004999999999873e-01 2.844709999999999894e+01 1.677245000000000061e+02 1.457119999999999891e+03
1.270000000000000018e-01 4.693899999999999739e-01 2.769890000000000185e+01 1.671820000000000164e+02 1.456945000000000164e+03
1.280000000000000027e-01 4.692714999999999526e-01 2.694120000000000203e+01 1.666009999999999991e+02 1.456755000000000109e+03
1.290000000000000036e-01 4.691464999999999663e-01 2.617614999999999981e+01 1.659870000000000232e+02 1.456559999999999945e+03
1.300000000000000044e-01 4.690170000000000172e-01 2.540675000000000239e+01 1.653464999999999918e+02 1.456355000000000018e+03
1.310000000000000053e-01 4.688829999999999942e-01 2.463629999999999853e+01 1.646850000000000023e+02 1.456134999999999991e+03
1.320000000000000062e-01 4.687464999999999549e-01 2.386840000000000117e+01 1.640104999999999791e+02 1.455914999999999964e+03
1.330000000000000071e-01 4.686100000000000265e-01 2.310689999999999955e+01 1.633290000000000077e+02 1.455694999999999936e+03
1.340000000000000080e-01 4.684739999999999460e-01 2.235600000000000165e+01 1.626494999999999891e+02 1.455464999999999918e+03
1.350000000000000089e-01 4.683395000000000197e-01 2.161965000000000003e+01 1.619780000000000086e+02 1.455239999999999782e+03
1.360000000000000098e-01 4.682085000000000274e-01 2.090184999999999960e+01 1.613220000000000027e+02 1.455019999999999982e+03
1.370000000000000107e-01 4.680825000000000125e-01 2.020645000000000024e+01 1.606884999999999764e+02 1.454804999999999836e+03
1.380000000000000115e-01 4.679630000000000178e-01 1.953689999999999927e+01 1.600824999999999818e+02 1.454590000000000146e+03
1.390000000000000124e-01 4.678494999999999737e-01 1.889639999999999986e+01 1.595104999999999791e+02 1.454394999999999982e+03
1.400000000000000133e-01 4.677445000000000075e-01 1.828754999999999953e+01 1.589749999999999943e+02 1.454204999999999927e+03
1.410000000000000142e-01 4.676474999999999937e-01 1.771269999999999811e+01 1.584809999999999945e+02 1.454029999999999973e+03
1.420000000000000151e-01 4.675595000000000168e-01 1.717345000000000255e+01 1.580300000000000011e+02 1.453865000000000009e+03
1.430000000000000160e-01 4.674805000000000210e-01 1.667074999999999818e+01 1.576235000000000070e+02 1.453710000000000036e+03
1.440000000000000169e-01 4.674105000000000065e-01 1.620514999999999972e+01 1.572615000000000123e+02 1.453575000000000045e+03
1.450000000000000178e-01 4.673484999999999445e-01 1.577665000000000006e+01 1.569440000000000168e+02 1.453450000000000045e+03
1.459999999999999909e-01 4.672954999999999748e-01 1.538455000000000084e+01 1.566700000000000159e+02 1.453340000000000146e+03
1.469999999999999918e-01 4.672499999999999432e-01 1.502765000000000128e+01 1.564354999999999905e+02 1.453244999999999891e+03
1.479999999999999927e-01 4.672119999999999607e-01 1.470449999999999946e+01 1.562384999999999877e+02 1.453159999999999854e+03
1.489999999999999936e-01 4.671800000000000397e-01 1.441310000000000002e+01 1.560749999999999886e+02 1.453085000000000036e+03
1.499999999999999944e-01 4.671544999999999725e-01 1.415129999999999910e+01 1.559415000000000191e+02 1.453029999999999973e+03
1.509999999999999953e-01 4.671325000000000061e-01 1.391654999999999909e+01 1.558335000000000150e+02 1.452974999999999909e+03
1.519999999999999962e-01 4.671155000000000168e-01 1.370645000000000024e+01 1.557470000000000141e+02 1.452929999999999836e+03
1.529999999999999971e-01 4.671009999999999884e-01 1.351829999999999998e+01 1.556775000000000091e+02 1.452890000000000100e+03
1.539999999999999980e-01 4.670889999999999764e-01 1.334955000000000069e+01 1.556209999999999809e+02 1.452860000000000127e+03
1.549999999999999989e-01 4.670785000000000631e-01 1.319770000000000110e+01 1.555735000000000241e+02 1.452829999999999927e+03
1.559999999999999998e-01 4.670689999999999564e-01 1.306034999999999968e+01 1.555314999999999941e+02 1.452805000000000064e+03
1.570000000000000007e-01 4.670600000000000307e-01 1.293529999999999980e+01 1.554929999999999950e+02 1.452784999999999854e+03
1.580000000000000016e-01 4.670505000000000351e-01 1.282055000000000078e+01 1.554549999999999841e+02 1.452764999999999873e+03
1.590000000000000024e-01 4.670410000000000394e-01 1.271439999999999948e+01 1.554145000000000039e+02 1.452740000000000009e+03
