# t [s], A [cm^2], U [cm/s], P [cPa], c [cm/s]
1.000000000000000021e-03 4.945714999999999972e-01 3.797299999999996512e-03 1.038659999999999997e+02 1.479119999999999891e+03
2.000000000000000042e-03 4.945640000000000036e-01 -5.044204999999999522e-04 1.038479999999999990e+02 1.479115000000000009e+03
3.000000000000000062e-03 4.945954999999999657e-01 6.061205000000000065e-02 1.039055000000000035e+02 1.479134999999999991e+03
4.000000000000000083e-03 4.946389999999999953e-01 1.485999000000000070e-01 1.040125000000000028e+02 1.479164999999999964e+03
5.000000000000000104e-03 4.946420000000000261e-01 1.612389999999999934e-01 1.040270000000000010e+02 1.479175000000000182e+03
6.000000000000000125e-03 4.946065000000000045e-01 9.692499999999999727e-02 1.039134999999999991e+02 1.479150000000000091e+03
7.000000000000000146e-03 4.945680000000000076e-01 2.137000000000000011e-02 1.037309999999999945e+02 1.479105000000000018e+03
8.000000000000000167e-03 4.945249999999999924e-01 -6.780599999999997740e-02 1.034885000000000019e+02 1.479045000000000073e+03
9.000000000000001055e-03 4.944520000000000026e-01 -2.270915000000000572e-01 1.031225000000000023e+02 1.478954999999999927e+03
1.000000000000000194e-02 4.943385000000000140e-01 -4.785499999999999199e-01 1.025844999999999914e+02 1.478820000000000164e+03
1.099999999999999936e-02 4.941794999999999938e-01 -8.263900000000000690e-01 1.018425000000000011e+02 1.478630000000000109e+03
1.200000000000000025e-02 4.939639999999999587e-01 -1.283220000000000027e+00 1.008517999999999972e+02 1.478369999999999891e+03
1.300000000000000114e-02 4.936875000000000013e-01 -1.844754999999999923e+00 9.958559999999999945e+01 1.478029999999999973e+03
1.400000000000000203e-02 4.933655000000000124e-01 -2.458895000000000053e+00 9.807474999999999454e+01 1.477619999999999891e+03
1.499999999999999944e-02 4.930319999999999703e-01 -3.031484999999999985e+00 9.641655000000000086e+01 1.477150000000000091e+03
1.600000000000000033e-02 4.927225000000000077e-01 -3.462844999999999729e+00 9.474134999999999707e+01 1.476664999999999964e+03
1.700000000000000122e-02 4.924589999999999801e-01 -3.684186500000000031e+00 9.316200000000000614e+01 1.476180000000000064e+03
1.800000000000000211e-02 4.922429999999999861e-01 -3.674503000000000075e+00 9.174349999999999739e+01 1.475720000000000027e+03
1.900000000000000300e-02 4.920629999999999726e-01 -3.456965499999999913e+00 9.049195000000000277e+01 1.475289999999999964e+03
2.000000000000000042e-02 4.918959999999999999e-01 -3.083060000000000134e+00 8.936554999999999893e+01 1.474884999999999991e+03
2.100000000000000130e-02 4.917199999999999904e-01 -2.612760500000000263e+00 8.829615000000001146e+01 1.474494999999999891e+03
2.200000000000000219e-02 4.915194999999999981e-01 -2.096810000000000063e+00 8.721375000000000455e+01 1.474099999999999909e+03
2.299999999999999961e-02 4.912860000000000005e-01 -1.565180000000000016e+00 8.606739999999999213e+01 1.473690000000000055e+03
2.400000000000000050e-02 4.910240000000000160e-01 -1.024189999999999934e+00 8.483644999999999925e+01 1.473255000000000109e+03
2.500000000000000139e-02 4.907430000000000403e-01 -4.622299999999999187e-01 8.353059999999999263e+01 1.472799999999999955e+03
2.600000000000000228e-02 4.904545000000000154e-01 1.388200000000003875e-01 8.217895000000000039e+01 1.472335000000000036e+03
2.700000000000000316e-02 4.901679999999999926e-01 7.912400000000001654e-01 8.081489999999999441e+01 1.471865000000000009e+03
2.800000000000000058e-02 4.898859999999999881e-01 1.492380000000000040e+00 7.946059999999999945e+01 1.471389999999999873e+03
2.900000000000000147e-02 4.896055000000000268e-01 2.221095000000000041e+00 7.811780000000000257e+01 1.470914999999999964e+03
3.000000000000000236e-02 4.893159999999999732e-01 2.939630000000000187e+00 7.676489999999999725e+01 1.470434999999999945e+03
3.099999999999999978e-02 4.890050000000000230e-01 3.599980000000000402e+00 7.536070000000000846e+01 1.469944999999999936e+03
3.200000000000000067e-02 4.886580000000000368e-01 4.152675000000000338e+00 7.385394999999999754e+01 1.469434999999999945e+03
3.300000000000000155e-02 4.882650000000000046e-01 4.556190000000000850e+00 7.219514999999999816e+01 1.468884999999999991e+03
3.400000000000000244e-02 4.878214999999999635e-01 4.784790000000000099e+00 7.034950000000000614e+01 1.468284999999999854e+03
3.500000000000000333e-02 4.873310000000000142e-01 4.833625000000000504e+00 6.830649999999999977e+01 1.467640000000000100e+03
3.600000000000000422e-02 4.868025000000000269e-01 4.719314999999999927e+00 6.608545000000000869e+01 1.466940000000000055e+03
3.700000000000000511e-02 4.862524999999999764e-01 4.476490000000000080e+00 6.373454999999999870e+01 1.466210000000000036e+03
3.799999999999999906e-02 4.857010000000000494e-01 4.151849999999999596e+00 6.132535000000000025e+01 1.465454999999999927e+03
3.899999999999999994e-02 4.851690000000000169e-01 3.796405000000000030e+00 5.894304999999999950e+01 1.464710000000000036e+03
4.000000000000000083e-02 4.846739999999999937e-01 3.458855000000000235e+00 5.667664999999999509e+01 1.463990000000000009e+03
4.100000000000000172e-02 4.842335000000000389e-01 3.180579999999999963e+00 5.460914999999999964e+01 1.463315000000000055e+03
4.200000000000000261e-02 4.838574999999999959e-01 2.993110000000000159e+00 5.281074999999999875e+01 1.462710000000000036e+03
4.300000000000000350e-02 4.835550000000000126e-01 2.917625000000000135e+00 5.133485000000000298e+01 1.462190000000000055e+03
4.400000000000000439e-02 4.833294999999999675e-01 2.966260000000000119e+00 5.021710000000000207e+01 1.461775000000000091e+03
4.499999999999999833e-02 4.831820000000000004e-01 3.144350499999999826e+00 4.947644999999999982e+01 1.461470000000000027e+03
4.599999999999999922e-02 4.831119999999999859e-01 3.453054999999999986e+00 4.911795000000000044e+01 1.461279999999999973e+03
4.700000000000000011e-02 4.831174999999999775e-01 3.891729999999999912e+00 4.913710000000000377e+01 1.461204999999999927e+03
4.800000000000000100e-02 4.831960000000000144e-01 4.459490000000000620e+00 4.952250000000000085e+01 1.461244999999999891e+03
4.900000000000000189e-02 4.833454999999999835e-01 5.155870000000000175e+00 5.025955000000000439e+01 1.461394999999999982e+03
5.000000000000000278e-02 4.835635000000000350e-01 5.980554999999999843e+00 5.133159999999999457e+01 1.461654999999999973e+03
5.100000000000000366e-02 4.838464999999999572e-01 6.932425000000000281e+00 5.272034999999999627e+01 1.462014999999999873e+03
5.200000000000000455e-02 4.841914999999999969e-01 8.008350000000000080e+00 5.440579999999999927e+01 1.462474999999999909e+03
5.300000000000000544e-02 4.845935000000000104e-01 9.201995000000000147e+00 5.636529999999999774e+01 1.463025000000000091e+03
5.399999999999999939e-02 4.850465000000000471e-01 1.050308500000000045e+01 5.857245000000000346e+01 1.463654999999999973e+03
5.500000000000000028e-02 4.855439999999999756e-01 1.189745000000000097e+01 6.099674999999999869e+01 1.464364999999999782e+03
5.600000000000000117e-02 4.860784999999999689e-01 1.336706500000000020e+01 6.360399999999999920e+01 1.465134999999999991e+03
5.700000000000000205e-02 4.866405000000000314e-01 1.489140000000000086e+01 6.635670000000000357e+01 1.465965000000000146e+03
5.800000000000000294e-02 4.872229999999999617e-01 1.644838999999999984e+01 6.921590000000000487e+01 1.466835000000000036e+03
5.900000000000000383e-02 4.878160000000000274e-01 1.801590000000000202e+01 7.214244999999999663e+01 1.467735000000000127e+03
6.000000000000000472e-02 4.884140000000000148e-01 1.957310000000000016e+01 7.509935000000000116e+01 1.468659999999999854e+03
6.099999999999999867e-02 4.890090000000000270e-01 2.110159999999999769e+01 7.805324999999999136e+01 1.469589999999999918e+03
6.199999999999999956e-02 4.895960000000000312e-01 2.258605000000000018e+01 8.097620000000000573e+01 1.470525000000000091e+03
6.300000000000000044e-02 4.901719999999999411e-01 2.401469999999999771e+01 8.384619999999999607e+01 1.471454999999999927e+03
6.400000000000000133e-02 4.907354999999999912e-01 2.537955000000000183e+01 8.664815000000000111e+01 1.472365000000000009e+03
6.500000000000000222e-02 4.912839999999999985e-01 2.667585000000000051e+01 8.937344999999999118e+01 1.473264999999999873e+03
6.600000000000000311e-02 4.918194999999999650e-01 2.790210000000000079e+01 9.201990000000000691e+01 1.474144999999999982e+03
6.700000000000000400e-02 4.923410000000000286e-01 2.905910000000000082e+01 9.458975000000000932e+01 1.475005000000000109e+03
6.800000000000000488e-02 4.928514999999999979e-01 3.014965000000000117e+01 9.709069999999999823e+01 1.475849999999999909e+03
6.900000000000000577e-02 4.933535000000000004e-01 3.117769999999999797e+01 9.953225000000000477e+01 1.476670000000000073e+03
7.000000000000000666e-02 4.938494999999999968e-01 3.214795000000000158e+01 1.019260000000000019e+02 1.477485000000000127e+03
7.100000000000000755e-02 4.943404999999999605e-01 3.306530000000000058e+01 1.042831999999999937e+02 1.478280000000000200e+03
7.200000000000000844e-02 4.948294999999999777e-01 3.393420000000000414e+01 1.066160999999999888e+02 1.479075000000000045e+03
7.300000000000000933e-02 4.953170000000000073e-01 3.475849999999999795e+01 1.089329999999999927e+02 1.479865000000000009e+03
7.399999999999999634e-02 4.958044999999999813e-01 3.554099999999999682e+01 1.112409999999999997e+02 1.480650000000000091e+03
7.499999999999999722e-02 4.962925000000000253e-01 3.628314999999999912e+01 1.135440000000000111e+02 1.481430000000000064e+03
7.599999999999999811e-02 4.967799999999999994e-01 3.698505000000000109e+01 1.158414999999999964e+02 1.482210000000000036e+03
7.699999999999999900e-02 4.972659999999999858e-01 3.764555000000000007e+01 1.181289999999999907e+02 1.482985000000000127e+03
7.799999999999999989e-02 4.977489999999999970e-01 3.826189999999999714e+01 1.204004999999999939e+02 1.483755000000000109e+03
7.900000000000000078e-02 4.982254999999999878e-01 3.883039999999999736e+01 1.226449999999999960e+02 1.484519999999999982e+03
8.000000000000000167e-02 4.986929999999999974e-01 3.934624999999999773e+01 1.248499999999999943e+02 1.485275000000000091e+03
8.100000000000000255e-02 4.991484999999999950e-01 3.980440000000000111e+01 1.269989999999999952e+02 1.486009999999999991e+03
8.200000000000000344e-02 4.995884999999999909e-01 4.019920000000000471e+01 1.290775000000000148e+02 1.486730000000000018e+03
8.300000000000000433e-02 5.000090000000000368e-01 4.052555000000000263e+01 1.310679999999999836e+02 1.487420000000000073e+03
8.400000000000000522e-02 5.004075000000000051e-01 4.077835000000000321e+01 1.329560000000000173e+02 1.488079999999999927e+03
8.500000000000000611e-02 5.007814999999999905e-01 4.095354999999999990e+01 1.347255000000000109e+02 1.488710000000000036e+03
8.600000000000000699e-02 5.011280000000000179e-01 4.104800000000000182e+01 1.363650000000000091e+02 1.489295000000000073e+03
8.700000000000000788e-02 5.014454999999999885e-01 4.105939999999999657e+01 1.378634999999999877e+02 1.489835000000000036e+03
8.800000000000000877e-02 5.017320000000000668e-01 4.098699999999999477e+01 1.392129999999999939e+02 1.490335000000000036e+03
8.899999999999999578e-02 5.019875000000000309e-01 4.083105000000000473e+01 1.404099999999999966e+02 1.490784999999999854e+03
8.999999999999999667e-02 5.022109999999999630e-01 4.059340000000000259e+01 1.414519999999999982e+02 1.491184999999999945e+03
9.099999999999999756e-02 5.024035000000000029e-01 4.027684999999999604e+01 1.423400000000000034e+02 1.491529999999999973e+03
9.199999999999999845e-02 5.025654999999999983e-01 3.988554999999999495e+01 1.430769999999999982e+02 1.491835000000000036e+03
9.299999999999999933e-02 5.026984999999999371e-01 3.942480000000000473e+01 1.436705000000000041e+02 1.492085000000000036e+03
9.400000000000000022e-02 5.028044999999999876e-01 3.890084999999999837e+01 1.441279999999999859e+02 1.492289999999999964e+03
9.500000000000000111e-02 5.028854999999999853e-01 3.832090000000000174e+01 1.444610000000000127e+02 1.492454999999999927e+03
9.600000000000000200e-02 5.029440000000000577e-01 3.769265000000000043e+01 1.446809999999999832e+02 1.492579999999999927e+03
9.700000000000000289e-02 5.029824999999999990e-01 3.702445000000000164e+01 1.448009999999999877e+02 1.492664999999999964e+03
9.800000000000000377e-02 5.030040000000000067e-01 3.632495000000000118e+01 1.448360000000000127e+02 1.492720000000000027e+03
9.900000000000000466e-02 5.030115000000000558e-01 3.560280000000000200e+01 1.447990000000000066e+02 1.492744999999999891e+03
1.000000000000000056e-01 5.030075000000000518e-01 3.486639999999999873e+01 1.447040000000000077e+02 1.492750000000000000e+03
1.010000000000000064e-01 5.029945000000000110e-01 3.412369999999999948e+01 1.445660000000000025e+02 1.492734999999999900e+03
1.020000000000000073e-01 5.029755000000000198e-01 3.338204999999999956e+01 1.443965000000000032e+02 1.492704999999999927e+03
1.030000000000000082e-01 5.029520000000000657e-01 3.264795000000000158e+01 1.442065000000000055e+02 1.492664999999999964e+03
1.040000000000000091e-01 5.029259999999999842e-01 3.192654999999999887e+01 1.440060000000000002e+02 1.492615000000000009e+03
1.050000000000000100e-01 5.028989999999999849e-01 3.122210000000000107e+01 1.438019999999999925e+02 1.492559999999999945e+03
1.059999999999999970e-01 5.028719999999999857e-01 3.053725000000000023e+01 1.436000000000000227e+02 1.492505000000000109e+03
1.069999999999999979e-01 5.028444999999999165e-01 2.987355000000000160e+01 1.434030000000000200e+02 1.492444999999999936e+03
1.079999999999999988e-01 5.028164999999999996e-01 2.923114999999999952e+01 1.432115000000000009e+02 1.492385000000000218e+03
1.089999999999999997e-01 5.027890000000000414e-01 2.860889999999999844e+01 1.430240000000000009e+02 1.492325000000000045e+03
1.100000000000000006e-01 5.027604999999999436e-01 2.800480000000000302e+01 1.428380000000000223e+02 1.492264999999999873e+03
1.110000000000000014e-01 5.027289999999999814e-01 2.741590000000000060e+01 1.426485000000000127e+02 1.492195000000000164e+03
1.120000000000000023e-01 5.026939999999999742e-01 2.683849999999999980e+01 1.424490000000000123e+02 1.492134999999999991e+03
1.130000000000000032e-01 5.026539999999999342e-01 2.626859999999999928e+01 1.422330000000000041e+02 1.492065000000000055e+03
1.140000000000000041e-01 5.026085000000000136e-01 2.570195000000000007e+01 1.419939999999999998e+02 1.491980000000000018e+03
1.150000000000000050e-01 5.025545000000000151e-01 2.513430000000000319e+01 1.417250000000000227e+02 1.491894999999999982e+03
1.160000000000000059e-01 5.024919999999999387e-01 2.456159999999999854e+01 1.414189999999999827e+02 1.491795000000000073e+03
1.170000000000000068e-01 5.024195000000000189e-01 2.398029999999999973e+01 1.410704999999999814e+02 1.491684999999999945e+03
1.180000000000000077e-01 5.023364999999999636e-01 2.338734999999999786e+01 1.406744999999999948e+02 1.491559999999999945e+03
1.190000000000000085e-01 5.022419999999999662e-01 2.278049999999999997e+01 1.402275000000000205e+02 1.491414999999999964e+03
1.200000000000000094e-01 5.021364999999999856e-01 2.215820000000000078e+01 1.397289999999999850e+02 1.491259999999999991e+03
1.209999999999999964e-01 5.020195000000000629e-01 2.151995000000000147e+01 1.391770000000000209e+02 1.491089999999999918e+03
1.219999999999999973e-01 5.018914999999999349e-01 2.086605000000000132e+01 1.385740000000000123e+02 1.490900000000000091e+03
1.229999999999999982e-01 5.017544999999999922e-01 2.019785000000000252e+01 1.379234999999999900e+02 1.490699999999999818e+03
1.239999999999999991e-01 5.016085000000000127e-01 1.951764999999999972e+01 1.372300000000000182e+02 1.490480000000000018e+03
1.250000000000000000e-01 5.014545000000000252e-01 1.882850000000000179e+01 1.364989999999999952e+02 1.490250000000000000e+03
1.260000000000000009e-01 5.012959999999999638e-01 1.813419999999999987e+01 1.357400000000000091e+02 1.490005000000000109e+03
1.270000000000000018e-01 5.011335000000000095e-01 1.743945000000000078e+01 1.349604999999999961e+02 1.489755000000000109e+03
1.280000000000000027e-01 5.009699999999999154e-01 1.674924999999999997e+01 1.341700000000000159e+02 1.489500000000000000e+03
1.290000000000000036e-01 5.008064999999999323e-01 1.606900000000000261e+01 1.333795000000000073e+02 1.489244999999999891e+03
1.300000000000000044e-01 5.006459999999999244e-01 1.540435000000000088e+01 1.325989999999999895e+02 1.488990000000000009e+03
1.310000000000000053e-01 5.004904999999999493e-01 1.476087000000000060e+01 1.318389999999999986e+02 1.488740000000000009e+03
1.320000000000000062e-01 5.003425000000000233e-01 1.414409000000000027e+01 1.311094999999999970e+02 1.488494999999999891e+03
1.330000000000000071e-01 5.002024999999999944e-01 1.355902000000000029e+01 1.304200000000000159e+02 1.488259999999999991e+03
1.340000000000000080e-01 5.000740000000000185e-01 1.301016500000000065e+01 1.297775000000000034e+02 1.488039999999999964e+03
1.350000000000000089e-01 4.999559999999999560e-01 1.250151999999999930e+01 1.291910000000000025e+02 1.487840000000000146e+03
1.360000000000000098e-01 4.998515000000000041e-01 1.203611000000000075e+01 1.286645000000000039e+02 1.487650000000000091e+03
1.370000000000000107e-01 4.997599999999999820e-01 1.161612000000000045e+01 1.282019999999999982e+02 1.487485000000000127e+03
1.380000000000000115e-01 4.996824999999999739e-01 1.124285000000000068e+01 1.278064999999999998e+02 1.487329999999999927e+03
1.390000000000000124e-01 4.996184999999999654e-01 1.091655499999999890e+01 1.274780000000000086e+02 1.487204999999999927e+03
1.400000000000000133e-01 4.995674999999999977e-01 1.063673000000000002e+01 1.272154999999999916e+02 1.487095000000000027e+03
1.410000000000000142e-01 4.995300000000000296e-01 1.040177999999999869e+01 1.270165000000000077e+02 1.487009999999999991e+03
1.420000000000000151e-01 4.995034999999999892e-01 1.020951499999999967e+01 1.268764999999999930e+02 1.486944999999999936e+03
1.430000000000000160e-01 4.994875000000000287e-01 1.005687999999999960e+01 1.267905000000000086e+02 1.486890000000000100e+03
1.440000000000000169e-01 4.994804999999999939e-01 9.940369999999999706e+00 1.267520000000000095e+02 1.486860000000000127e+03
1.450000000000000178e-01 4.994815000000000227e-01 9.856090000000000018e+00 1.267549999999999955e+02 1.486840000000000146e+03
1.459999999999999909e-01 4.994889999999999608e-01 9.799889999999999546e+00 1.267914999999999992e+02 1.486835000000000036e+03
1.469999999999999918e-01 4.995005000000000139e-01 9.767450000000000188e+00 1.268540000000000134e+02 1.486835000000000036e+03
1.479999999999999927e-01 4.995159999999999600e-01 9.754480000000000928e+00 1.269364999999999952e+02 1.486845000000000027e+03
1.489999999999999936e-01 4.995335000000000192e-01 9.756865000000001231e+00 1.270310000000000059e+02 1.486864999999999782e+03
1.499999999999999944e-01 4.995514999999999817e-01 9.770749999999999602e+00 1.271324999999999932e+02 1.486884999999999991e+03
1.509999999999999953e-01 4.995699999999999585e-01 9.792525000000001256e+00 1.272355000000000018e+02 1.486909999999999854e+03
1.519999999999999962e-01 4.995870000000000033e-01 9.819074999999999775e+00 1.273344999999999914e+02 1.486929999999999836e+03
1.529999999999999971e-01 4.996025000000000049e-01 9.847709999999999297e+00 1.274269999999999925e+02 1.486954999999999927e+03
1.539999999999999980e-01 4.996165000000000189e-01 9.876079999999999970e+00 1.275099999999999909e+02 1.486980000000000018e+03
1.549999999999999989e-01 4.996275000000000022e-01 9.902504999999999669e+00 1.275815000000000055e+02 1.487000000000000000e+03
1.559999999999999998e-01 4.996369999999999978e-01 9.925549999999999429e+00 1.276405000000000030e+02 1.487019999999999982e+03
1.570000000000000007e-01 4.996435000000000182e-01 9.944414999999999338e+00 1.276869999999999976e+02 1.487029999999999973e+03
1.580000000000000016e-01 4.996479999999999810e-01 9.958549999999998903e+00 1.277220000000000084e+02 1.487045000000000073e+03
1.590000000000000024e-01 4.996504999999999974e-01 9.967890000000000583e+00 1.277464999999999975e+02 1.487054999999999836e+03
