# t [s], A [cm^2], U [cm/s], P [cPa], c [cm/s]
1.000000000000000021e-03 1.382530000000000148e-01 3.469115000000000393e-01 1.038780000000000001e+02 1.847460000000000036e+03
2.000000000000000042e-03 1.382285000000000041e-01 1.956868999999999748e+00 1.007019999999999982e+02 1.847194999999999936e+03
3.000000000000000062e-03 1.381364999999999954e-01 3.905918999999999919e+00 9.660960000000000036e+01 1.846255000000000109e+03
4.000000000000000083e-03 1.379984999999999962e-01 6.050715499999999913e+00 9.211889999999999645e+01 1.844869999999999891e+03
5.000000000000000104e-03 1.378385000000000027e-01 8.333239999999999981e+00 8.794984999999999786e+01 1.843284999999999854e+03
6.000000000000000125e-03 1.376760000000000206e-01 1.064001500000000178e+01 8.444769999999999754e+01 1.841679999999999836e+03
7.000000000000000146e-03 1.375184999999999880e-01 1.281339999999999968e+01 8.155084999999999695e+01 1.840150000000000091e+03
8.000000000000000167e-03 1.373699999999999921e-01 1.474007500000000093e+01 7.904449999999999932e+01 1.838724999999999909e+03
9.000000000000001055e-03 1.372335000000000083e-01 1.640115000000000123e+01 7.683379999999999654e+01 1.837440000000000055e+03
1.000000000000000194e-02 1.371120000000000116e-01 1.782365000000000066e+01 7.494874999999998977e+01 1.836300000000000182e+03
1.099999999999999936e-02 1.370065000000000033e-01 1.902694999999999936e+01 7.340619999999999834e+01 1.835324999999999818e+03
1.200000000000000025e-02 1.369170000000000109e-01 2.002019999999999911e+01 7.217144999999999300e+01 1.834505000000000109e+03
1.300000000000000114e-02 1.368435000000000068e-01 2.081190000000000140e+01 7.119004999999999939e+01 1.833835000000000036e+03
1.400000000000000203e-02 1.367820000000000147e-01 2.140934999999999988e+01 7.039844999999999686e+01 1.833295000000000073e+03
1.499999999999999944e-02 1.367319999999999924e-01 2.182495000000000118e+01 6.973464999999998781e+01 1.832855000000000018e+03
1.600000000000000033e-02 1.366899999999999782e-01 2.209315000000000140e+01 6.918075000000000330e+01 1.832494999999999891e+03
1.700000000000000122e-02 1.366574999999999873e-01 2.228144999999999953e+01 6.880920000000000414e+01 1.832219999999999800e+03
1.800000000000000211e-02 1.366370000000000084e-01 2.247794999999999987e+01 6.877705000000000268e+01 1.832059999999999945e+03
1.900000000000000300e-02 1.366319999999999757e-01 2.276075000000000159e+01 6.925714999999999577e+01 1.832029999999999973e+03
2.000000000000000042e-02 1.366469999999999907e-01 2.316769999999999996e+01 7.034614999999999441e+01 1.832179999999999836e+03
2.100000000000000130e-02 1.366809999999999969e-01 2.368200000000000216e+01 7.200229999999999109e+01 1.832505000000000109e+03
2.200000000000000219e-02 1.367320000000000202e-01 2.423979999999999890e+01 7.404105000000001269e+01 1.832990000000000009e+03
2.299999999999999961e-02 1.367944999999999856e-01 2.475220000000000198e+01 7.618465000000000487e+01 1.833569999999999936e+03
2.400000000000000050e-02 1.368594999999999950e-01 2.513329999999999842e+01 7.814005000000000223e+01 1.834194999999999936e+03
2.500000000000000139e-02 1.369210000000000149e-01 2.532294999999999874e+01 7.967445000000000732e+01 1.834779999999999973e+03
2.600000000000000228e-02 1.369724999999999970e-01 2.529885000000000161e+01 8.066564999999999941e+01 1.835275000000000091e+03
2.700000000000000316e-02 1.370109999999999939e-01 2.507639999999999958e+01 8.111500000000000909e+01 1.835650000000000091e+03
2.800000000000000058e-02 1.370354999999999768e-01 2.469789999999999708e+01 8.112500000000000000e+01 1.835900000000000091e+03
2.900000000000000147e-02 1.370490000000000042e-01 2.421624999999999872e+01 8.085354999999999848e+01 1.836039999999999964e+03
3.000000000000000236e-02 1.370534999999999948e-01 2.367925000000000324e+01 8.046110000000000184e+01 1.836099999999999909e+03
3.099999999999999978e-02 1.370534999999999948e-01 2.311844999999999928e+01 8.006790000000000873e+01 1.836110000000000127e+03
3.200000000000000067e-02 1.370514999999999928e-01 2.254530000000000101e+01 7.973165000000000191e+01 1.836095000000000027e+03
3.300000000000000155e-02 1.370480000000000032e-01 2.195400000000000063e+01 7.944769999999999754e+01 1.836069999999999936e+03
3.400000000000000244e-02 1.370429999999999982e-01 2.132954999999999757e+01 7.916814999999999714e+01 1.836025000000000091e+03
3.500000000000000333e-02 1.370359999999999912e-01 2.065755000000000052e+01 7.883074999999999477e+01 1.835970000000000027e+03
3.600000000000000422e-02 1.370259999999999811e-01 1.993270000000000053e+01 7.838814999999999600e+01 1.835880000000000109e+03
3.700000000000000511e-02 1.370125000000000093e-01 1.916440000000000055e+01 7.783035000000000991e+01 1.835759999999999991e+03
3.799999999999999906e-02 1.369954999999999923e-01 1.837809999999999988e+01 7.719470000000001164e+01 1.835610000000000127e+03
3.899999999999999994e-02 1.369770000000000154e-01 1.761185000000000045e+01 7.656165000000000020e+01 1.835440000000000055e+03
4.000000000000000083e-02 1.369585000000000108e-01 1.690984999999999872e+01 7.603834999999999411e+01 1.835275000000000091e+03
4.100000000000000172e-02 1.369440000000000102e-01 1.631344999999999956e+01 7.573529999999999518e+01 1.835139999999999873e+03
4.200000000000000261e-02 1.369364999999999888e-01 1.585335000000000072e+01 7.574089999999999634e+01 1.835059999999999945e+03
4.300000000000000350e-02 1.369374999999999898e-01 1.554329999999999856e+01 7.610079999999999245e+01 1.835065000000000055e+03
4.400000000000000439e-02 1.369489999999999874e-01 1.537729999999999997e+01 7.680699999999998795e+01 1.835164999999999964e+03
4.499999999999999833e-02 1.369704999999999950e-01 1.533099999999999952e+01 7.779730000000000700e+01 1.835355000000000018e+03
4.599999999999999922e-02 1.370000000000000107e-01 1.536485000000000056e+01 7.896520000000001005e+01 1.835615000000000009e+03
4.700000000000000011e-02 1.370350000000000179e-01 1.543084999999999951e+01 8.017650000000000432e+01 1.835934999999999945e+03
4.800000000000000100e-02 1.370715000000000128e-01 1.547844999999999871e+01 8.128934999999999889e+01 1.836275000000000091e+03
4.900000000000000189e-02 1.371060000000000056e-01 1.546089999999999876e+01 8.217295000000000016e+01 1.836589999999999918e+03
5.000000000000000278e-02 1.371340000000000059e-01 1.533980000000000032e+01 8.272275000000000489e+01 1.836849999999999909e+03
5.100000000000000366e-02 1.371529999999999971e-01 1.508790000000000120e+01 8.286945000000000050e+01 1.837025000000000091e+03
5.200000000000000455e-02 1.371605000000000185e-01 1.468990000000000151e+01 8.258189999999999031e+01 1.837099999999999909e+03
5.300000000000000544e-02 1.371549999999999991e-01 1.414179999999999993e+01 8.186445000000000505e+01 1.837055000000000064e+03
5.399999999999999939e-02 1.371359999999999801e-01 1.344904999999999973e+01 8.075034999999999741e+01 1.836884999999999991e+03
5.500000000000000028e-02 1.371045000000000180e-01 1.262454999999999927e+01 7.929309999999999548e+01 1.836595000000000027e+03
5.600000000000000117e-02 1.370605000000000018e-01 1.168613000000000035e+01 7.755785000000000196e+01 1.836194999999999936e+03
5.700000000000000205e-02 1.370069999999999899e-01 1.065466499999999961e+01 7.561384999999999934e+01 1.835704999999999927e+03
5.800000000000000294e-02 1.369454999999999978e-01 9.552810000000000912e+00 7.352915000000000134e+01 1.835134999999999991e+03
5.900000000000000383e-02 1.368774999999999853e-01 8.404234999999999900e+00 7.136809999999999832e+01 1.834509999999999991e+03
6.000000000000000472e-02 1.368055000000000243e-01 7.233159999999999812e+00 6.919004999999999939e+01 1.833840000000000146e+03
6.099999999999999867e-02 1.367315000000000058e-01 6.064515000000000100e+00 6.705029999999999291e+01 1.833154999999999973e+03
6.199999999999999956e-02 1.366570000000000007e-01 4.923809999999999576e+00 6.500114999999999554e+01 1.832465000000000146e+03
6.300000000000000044e-02 1.365844999999999976e-01 3.837169999999999970e+00 6.309350000000000591e+01 1.831789999999999964e+03
6.400000000000000133e-02 1.365149999999999975e-01 2.831017000000000117e+00 6.137715000000000032e+01 1.831144999999999982e+03
6.500000000000000222e-02 1.364520000000000177e-01 1.931499500000000147e+00 5.990109999999999957e+01 1.830554999999999836e+03
6.600000000000000311e-02 1.363955000000000028e-01 1.163721999999999923e+00 5.871200000000000330e+01 1.830025000000000091e+03
6.700000000000000400e-02 1.363480000000000247e-01 5.507149999999999546e-01 5.785285000000000366e+01 1.829579999999999927e+03
6.800000000000000488e-02 1.363115000000000021e-01 1.123800000000000354e-01 5.736034999999999684e+01 1.829230000000000018e+03
6.900000000000000577e-02 1.362864999999999771e-01 -1.355539999999999523e-01 5.726259999999999906e+01 1.828989999999999782e+03
7.000000000000000666e-02 1.362754999999999939e-01 -1.823747500000000021e-01 5.757720000000000482e+01 1.828865000000000009e+03
7.100000000000000755e-02 1.362769999999999815e-01 -2.303800000000000292e-02 5.830920000000000414e+01 1.828875000000000000e+03
7.200000000000000844e-02 1.362935000000000119e-01 3.415569999999999995e-01 5.945109999999999673e+01 1.829009999999999991e+03
7.300000000000000933e-02 1.363240000000000007e-01 9.046049999999999924e-01 6.098229999999999507e+01 1.829280000000000200e+03
7.399999999999999634e-02 1.363685000000000036e-01 1.653780900000000109e+00 6.287054999999999438e+01 1.829670000000000073e+03
7.499999999999999722e-02 1.364254999999999773e-01 2.571899499999999783e+00 6.507345000000000823e+01 1.830184999999999945e+03
7.599999999999999811e-02 1.364940000000000042e-01 3.637809999999999988e+00 6.754130000000000678e+01 1.830804999999999836e+03
7.699999999999999900e-02 1.365730000000000000e-01 4.827460000000000306e+00 7.021914999999999907e+01 1.831525000000000091e+03
7.799999999999999989e-02 1.366605000000000181e-01 6.115009999999999835e+00 7.305035000000000878e+01 1.832329999999999927e+03
7.900000000000000078e-02 1.367545000000000011e-01 7.473964999999999748e+00 7.597894999999999754e+01 1.833194999999999936e+03
8.000000000000000167e-02 1.368530000000000024e-01 8.878389999999999560e+00 7.895239999999999725e+01 1.834105000000000018e+03
8.100000000000000255e-02 1.369555000000000078e-01 1.030357500000000037e+01 8.192369999999999663e+01 1.835050000000000182e+03
8.200000000000000344e-02 1.370589999999999864e-01 1.172731999999999886e+01 8.485314999999999941e+01 1.836014999999999873e+03
8.300000000000000433e-02 1.371625000000000205e-01 1.313010000000000055e+01 8.770959999999999468e+01 1.836985000000000127e+03
8.400000000000000522e-02 1.372655000000000125e-01 1.449595000000000056e+01 9.047074999999999534e+01 1.837940000000000055e+03
8.500000000000000611e-02 1.373659999999999881e-01 1.581224999999999881e+01 9.312324999999999875e+01 1.838884999999999991e+03
8.600000000000000699e-02 1.374640000000000029e-01 1.707014999999999816e+01 9.566210000000000946e+01 1.839805000000000064e+03
8.700000000000000788e-02 1.375589999999999868e-01 1.826399999999999935e+01 9.808995000000000175e+01 1.840699999999999818e+03
8.800000000000000877e-02 1.376514999999999822e-01 1.939114999999999966e+01 1.004149500000000046e+02 1.841575000000000045e+03
8.899999999999999578e-02 1.377404999999999879e-01 2.045165000000000077e+01 1.026497999999999990e+02 1.842420000000000073e+03
8.999999999999999667e-02 1.378269999999999773e-01 2.144720000000000226e+01 1.048089999999999975e+02 1.843235000000000127e+03
9.099999999999999756e-02 1.379104999999999914e-01 2.238109999999999999e+01 1.069095000000000084e+02 1.844035000000000082e+03
9.199999999999999845e-02 1.379930000000000045e-01 2.325724999999999909e+01 1.089660000000000082e+02 1.844815000000000055e+03
9.299999999999999933e-02 1.380730000000000013e-01 2.407970000000000255e+01 1.109920000000000044e+02 1.845575000000000045e+03
9.400000000000000022e-02 1.381525000000000114e-01 2.485235000000000127e+01 1.129964999999999975e+02 1.846329999999999927e+03
9.500000000000000111e-02 1.382304999999999784e-01 2.557815000000000083e+01 1.149869999999999948e+02 1.847079999999999927e+03
9.600000000000000200e-02 1.383074999999999999e-01 2.625939999999999941e+01 1.169660000000000082e+02 1.847820000000000164e+03
9.700000000000000289e-02 1.383844999999999936e-01 2.689705000000000013e+01 1.189304999999999950e+02 1.848555000000000064e+03
9.800000000000000377e-02 1.384610000000000007e-01 2.749080000000000013e+01 1.208750000000000000e+02 1.849279999999999973e+03
9.900000000000000466e-02 1.385365000000000069e-01 2.803930000000000078e+01 1.227899999999999920e+02 1.850005000000000109e+03
1.000000000000000056e-01 1.386104999999999976e-01 2.854005000000000081e+01 1.246630000000000109e+02 1.850714999999999918e+03
1.010000000000000064e-01 1.386840000000000017e-01 2.898949999999999960e+01 1.264795000000000016e+02 1.851414999999999964e+03
1.020000000000000073e-01 1.387550000000000172e-01 2.938354999999999961e+01 1.282235000000000014e+02 1.852095000000000027e+03
1.030000000000000082e-01 1.388230000000000020e-01 2.971744999999999948e+01 1.298785000000000025e+02 1.852750000000000000e+03
1.040000000000000091e-01 1.388890000000000124e-01 2.998624999999999829e+01 1.314265000000000043e+02 1.853380000000000109e+03
1.050000000000000100e-01 1.389505000000000046e-01 3.018495000000000061e+01 1.328525000000000205e+02 1.853980000000000018e+03
1.059999999999999970e-01 1.390080000000000204e-01 3.030890000000000128e+01 1.341410000000000196e+02 1.854529999999999973e+03
1.069999999999999979e-01 1.390615000000000046e-01 3.035385000000000133e+01 1.352789999999999964e+02 1.855045000000000073e+03
1.079999999999999988e-01 1.391089999999999827e-01 3.031615000000000038e+01 1.362549999999999955e+02 1.855505000000000109e+03
1.089999999999999997e-01 1.391514999999999835e-01 3.019324999999999903e+01 1.370609999999999786e+02 1.855914999999999964e+03
1.100000000000000006e-01 1.391874999999999918e-01 2.998349999999999937e+01 1.376904999999999859e+02 1.856275000000000091e+03
1.110000000000000014e-01 1.392180000000000084e-01 2.968650000000000233e+01 1.381399999999999864e+02 1.856570000000000164e+03
1.120000000000000023e-01 1.392420000000000047e-01 2.930320000000000036e+01 1.384114999999999895e+02 1.856804999999999836e+03
1.130000000000000032e-01 1.392594999999999805e-01 2.883595000000000041e+01 1.385079999999999814e+02 1.856980000000000018e+03
1.140000000000000041e-01 1.392700000000000049e-01 2.828845000000000098e+01 1.384350000000000023e+02 1.857095000000000027e+03
1.150000000000000050e-01 1.392750000000000099e-01 2.766570000000000107e+01 1.382030000000000030e+02 1.857150000000000091e+03
1.160000000000000059e-01 1.392740000000000089e-01 2.697415000000000163e+01 1.378240000000000123e+02 1.857150000000000091e+03
1.170000000000000068e-01 1.392674999999999885e-01 2.622129999999999939e+01 1.373125000000000000e+02 1.857089999999999918e+03
1.180000000000000077e-01 1.392555000000000043e-01 2.541554999999999964e+01 1.366854999999999905e+02 1.856985000000000127e+03
1.190000000000000085e-01 1.392394999999999883e-01 2.456600000000000250e+01 1.359600000000000080e+02 1.856840000000000146e+03
1.200000000000000094e-01 1.392194999999999960e-01 2.368234999999999957e+01 1.351544999999999845e+02 1.856650000000000091e+03
1.209999999999999964e-01 1.391954999999999998e-01 2.277425000000000210e+01 1.342884999999999991e+02 1.856424999999999955e+03
1.219999999999999973e-01 1.391689999999999872e-01 2.185135000000000005e+01 1.333785000000000025e+02 1.856179999999999836e+03
1.229999999999999982e-01 1.391405000000000003e-01 2.092295000000000016e+01 1.324420000000000073e+02 1.855909999999999854e+03
1.239999999999999991e-01 1.391100000000000114e-01 1.999765000000000015e+01 1.314944999999999879e+02 1.855619999999999891e+03
1.250000000000000000e-01 1.390784999999999938e-01 1.908314999999999984e+01 1.305484999999999900e+02 1.855324999999999818e+03
1.260000000000000009e-01 1.390460000000000029e-01 1.818619999999999948e+01 1.296154999999999973e+02 1.855019999999999982e+03
1.270000000000000018e-01 1.390135000000000121e-01 1.731234999999999857e+01 1.287019999999999982e+02 1.854710000000000036e+03
1.280000000000000027e-01 1.389815000000000078e-01 1.646584999999999965e+01 1.278154999999999859e+02 1.854404999999999973e+03
1.290000000000000036e-01 1.389500000000000179e-01 1.564969999999999928e+01 1.269569999999999936e+02 1.854099999999999909e+03
1.300000000000000044e-01 1.389185000000000003e-01 1.486554999999999893e+01 1.261269999999999953e+02 1.853800000000000182e+03
1.310000000000000053e-01 1.388880000000000114e-01 1.411374999999999957e+01 1.253240000000000123e+02 1.853510000000000218e+03
1.320000000000000062e-01 1.388579999999999814e-01 1.339369999999999905e+01 1.245420000000000016e+02 1.853220000000000027e+03
1.330000000000000071e-01 1.388285000000000213e-01 1.270350000000000001e+01 1.237770000000000010e+02 1.852934999999999945e+03
1.340000000000000080e-01 1.388000000000000067e-01 1.204064999999999941e+01 1.230199999999999960e+02 1.852655000000000200e+03
1.350000000000000089e-01 1.387705000000000188e-01 1.140169500000000014e+01 1.222640000000000100e+02 1.852375000000000000e+03
1.360000000000000098e-01 1.387420000000000042e-01 1.078285500000000141e+01 1.214985000000000070e+02 1.852099999999999909e+03
1.370000000000000107e-01 1.387125000000000163e-01 1.018007500000000043e+01 1.207155000000000058e+02 1.851815000000000055e+03
1.380000000000000115e-01 1.386824999999999863e-01 9.589064999999999728e+00 1.199060000000000059e+02 1.851529999999999973e+03
1.390000000000000124e-01 1.386519999999999975e-01 9.005779999999999674e+00 1.190625000000000000e+02 1.851235000000000127e+03
1.400000000000000133e-01 1.386200000000000210e-01 8.426330000000000098e+00 1.181784999999999997e+02 1.850930000000000064e+03
1.410000000000000142e-01 1.385870000000000157e-01 7.847534999999999705e+00 1.172479999999999905e+02 1.850615000000000009e+03
1.420000000000000151e-01 1.385520000000000085e-01 7.266655000000000086e+00 1.162685000000000031e+02 1.850279999999999973e+03
1.430000000000000160e-01 1.385155000000000136e-01 6.681840000000000224e+00 1.152369999999999948e+02 1.849934999999999945e+03
1.440000000000000169e-01 1.384775000000000034e-01 6.092105000000000103e+00 1.141544999999999987e+02 1.849570000000000164e+03
1.450000000000000178e-01 1.384380000000000055e-01 5.497444999999999915e+00 1.130250000000000057e+02 1.849190000000000055e+03
1.459999999999999909e-01 1.383960000000000190e-01 4.898825000000000429e+00 1.118520000000000039e+02 1.848795000000000073e+03
1.469999999999999918e-01 1.383530000000000038e-01 4.298220000000000596e+00 1.106435000000000031e+02 1.848389999999999873e+03
1.479999999999999927e-01 1.383085000000000009e-01 3.698550000000000004e+00 1.094074999999999989e+02 1.847970000000000027e+03
1.489999999999999936e-01 1.382629999999999970e-01 3.103559999999999874e+00 1.081560000000000059e+02 1.847534999999999854e+03
1.499999999999999944e-01 1.382170000000000065e-01 2.517725999999999686e+00 1.069000000000000057e+02 1.847095000000000027e+03
1.509999999999999953e-01 1.381705000000000017e-01 1.946090000000000098e+00 1.056525000000000034e+02 1.846659999999999854e+03
1.519999999999999962e-01 1.381239999999999968e-01 1.394069500000000073e+00 1.044269999999999925e+02 1.846215000000000146e+03
1.529999999999999971e-01 1.380784999999999929e-01 8.672484999999998667e-01 1.032379999999999995e+02 1.845779999999999973e+03
1.539999999999999980e-01 1.380335000000000034e-01 3.711849999999999872e-01 1.020964500000000044e+02 1.845355000000000018e+03
1.549999999999999989e-01 1.379894999999999872e-01 -8.879999999999999005e-02 1.010160999999999945e+02 1.844940000000000055e+03
1.559999999999999998e-01 1.379480000000000151e-01 -5.078210000000000779e-01 1.000075500000000090e+02 1.844545000000000073e+03
1.570000000000000007e-01 1.379084999999999894e-01 -8.816064999999999596e-01 9.907925000000000182e+01 1.844174999999999955e+03
1.580000000000000016e-01 1.378725000000000089e-01 -1.206611899999999959e+00 9.823900000000000432e+01 1.843825000000000045e+03
1.590000000000000024e-01 1.378384999999999749e-01 -1.480181500000000039e+00 9.749199999999999022e+01 1.843494999999999891e+03
