# t [s], A [cm^2], U [cm/s], P [cPa], c [cm/s]
1.000000000000000021e-03 5.204429999999999890e-01 3.458099999999998675e-03 1.093290000000000077e+02 1.467340000000000146e+03
2.000000000000000042e-03 5.204360000000000097e-01 9.270965000000000369e-04 1.093125000000000000e+02 1.467340000000000146e+03
3.000000000000000062e-03 5.204699999999999882e-01 6.274535000000000529e-02 1.093714999999999975e+02 1.467355000000000018e+03
4.000000000000000083e-03 5.205149999999999499e-01 1.460020000000000207e-01 1.094740000000000038e+02 1.467389999999999873e+03
5.000000000000000104e-03 5.205180000000000362e-01 1.545529999999999959e-01 1.094874999999999972e+02 1.467394999999999982e+03
6.000000000000000125e-03 5.204845000000000166e-01 9.408700000000000396e-02 1.093820000000000050e+02 1.467369999999999891e+03
7.000000000000000146e-03 5.204474999999999518e-01 2.286050000000000582e-02 1.092090000000000032e+02 1.467335000000000036e+03
8.000000000000000167e-03 5.204050000000000065e-01 -6.447049999999998615e-02 1.089720000000000084e+02 1.467279999999999973e+03
9.000000000000001055e-03 5.203299999999999592e-01 -2.200365000000000237e-01 1.086099999999999994e+02 1.467200000000000045e+03
1.000000000000000194e-02 5.202115000000000489e-01 -4.662749999999999950e-01 1.080755000000000052e+02 1.467075000000000045e+03
1.099999999999999936e-02 5.200439999999999507e-01 -8.084999999999999964e-01 1.073329999999999984e+02 1.466894999999999982e+03
1.200000000000000025e-02 5.198169999999999735e-01 -1.256310000000000038e+00 1.063420000000000130e+02 1.466650000000000091e+03
1.300000000000000114e-02 5.195265000000000022e-01 -1.801969999999999850e+00 1.050805000000000007e+02 1.466335000000000036e+03
1.400000000000000203e-02 5.191894999999999705e-01 -2.395349999999999646e+00 1.035784000000000020e+02 1.465950000000000045e+03
1.499999999999999944e-02 5.188369999999999926e-01 -2.950194999999999901e+00 1.019252500000000055e+02 1.465505000000000109e+03
1.600000000000000033e-02 5.185039999999999649e-01 -3.375589999999999868e+00 1.002397500000000008e+02 1.465039999999999964e+03
1.700000000000000122e-02 5.182109999999999772e-01 -3.607231000000000076e+00 9.862784999999999513e+01 1.464575000000000045e+03
1.800000000000000211e-02 5.179639999999999800e-01 -3.622361000000000164e+00 9.715520000000000778e+01 1.464125000000000000e+03
1.900000000000000300e-02 5.177519999999999900e-01 -3.437459000000000042e+00 9.583705000000000496e+01 1.463704999999999927e+03
2.000000000000000042e-02 5.175560000000000160e-01 -3.095238000000000156e+00 9.464510000000001355e+01 1.463299999999999955e+03
2.100000000000000130e-02 5.173569999999999558e-01 -2.647928499999999907e+00 9.352549999999999386e+01 1.462914999999999964e+03
2.200000000000000219e-02 5.171394999999999742e-01 -2.142035000000000355e+00 9.241884999999999195e+01 1.462525000000000091e+03
2.299999999999999961e-02 5.168954999999999522e-01 -1.608010000000000161e+00 9.127840000000000487e+01 1.462134999999999991e+03
2.400000000000000050e-02 5.166260000000000296e-01 -1.057059999999999889e+00 9.008074999999999477e+01 1.461724999999999909e+03
2.500000000000000139e-02 5.163389999999999924e-01 -4.851000000000000867e-01 8.882679999999999154e+01 1.461305000000000064e+03
2.600000000000000228e-02 5.160430000000000295e-01 1.181999999999998607e-01 8.753444999999999254e+01 1.460875000000000000e+03
2.700000000000000316e-02 5.157454999999999679e-01 7.593350000000000932e-01 8.622614999999998986e+01 1.460434999999999945e+03
2.800000000000000058e-02 5.154484999999999761e-01 1.433174999999999866e+00 8.491689999999999827e+01 1.460000000000000000e+03
2.900000000000000147e-02 5.151495000000000379e-01 2.119625000000000092e+00 8.360569999999999879e+01 1.459555000000000064e+03
3.000000000000000236e-02 5.148390000000000466e-01 2.784975000000000200e+00 8.227289999999999281e+01 1.459105000000000018e+03
3.099999999999999978e-02 5.145055000000000600e-01 3.386954999999999938e+00 8.088309999999999889e+01 1.458644999999999982e+03
3.200000000000000067e-02 5.141369999999999552e-01 3.882010000000000183e+00 7.939249999999999829e+01 1.458159999999999854e+03
3.300000000000000155e-02 5.137240000000000695e-01 4.233149999999999302e+00 7.775864999999998872e+01 1.457639999999999873e+03
3.400000000000000244e-02 5.132609999999999673e-01 4.416464999999999641e+00 7.595090000000000430e+01 1.457079999999999927e+03
3.500000000000000333e-02 5.127515000000000267e-01 4.425655000000000783e+00 7.395895000000000152e+01 1.456480000000000018e+03
3.600000000000000422e-02 5.122035000000000338e-01 4.272590000000000110e+00 7.179704999999999870e+01 1.455835000000000036e+03
3.700000000000000511e-02 5.116309999999999469e-01 3.985289999999999555e+00 6.950479999999998881e+01 1.455150000000000091e+03
3.799999999999999906e-02 5.110520000000000618e-01 3.602999999999999758e+00 6.714249999999999829e+01 1.454450000000000045e+03
3.899999999999999994e-02 5.104859999999999953e-01 3.170055000000000067e+00 6.478409999999999513e+01 1.453744999999999891e+03
4.000000000000000083e-02 5.099500000000000144e-01 2.730434999999999945e+00 6.250865000000000293e+01 1.453059999999999945e+03
4.100000000000000172e-02 5.094615000000000116e-01 2.322985000000000078e+00 6.039220000000000255e+01 1.452409999999999854e+03
4.200000000000000261e-02 5.090324999999999989e-01 1.979070000000000107e+00 5.850155000000000172e+01 1.451809999999999945e+03
4.300000000000000350e-02 5.086715000000000542e-01 1.721410000000000107e+00 5.689005000000000223e+01 1.451285000000000082e+03
4.400000000000000439e-02 5.083845000000000169e-01 1.564929999999999932e+00 5.559579999999999700e+01 1.450845000000000027e+03
4.499999999999999833e-02 5.081729999999999858e-01 1.518240000000000034e+00 5.464220000000000255e+01 1.450494999999999891e+03
4.599999999999999922e-02 5.080390000000000184e-01 1.585640000000000160e+00 5.403985000000000127e+01 1.450244999999999891e+03
4.700000000000000011e-02 5.079804999999999460e-01 1.768979999999999997e+00 5.378914999999999935e+01 1.450095000000000027e+03
4.800000000000000100e-02 5.079964999999999620e-01 2.069004999999999761e+00 5.388325000000000387e+01 1.450049999999999955e+03
4.900000000000000189e-02 5.080850000000000088e-01 2.486060000000000159e+00 5.431034999999999968e+01 1.450105000000000018e+03
5.000000000000000278e-02 5.082420000000000826e-01 3.019957500000000294e+00 5.505540000000000589e+01 1.450250000000000000e+03
5.100000000000000366e-02 5.084649999999999448e-01 3.669476500000000030e+00 5.610079999999999956e+01 1.450490000000000009e+03
5.200000000000000455e-02 5.087500000000000355e-01 4.431432000000000038e+00 5.742640000000000100e+01 1.450819999999999936e+03
5.300000000000000544e-02 5.090924999999999478e-01 5.299880500000000438e+00 5.900910000000000366e+01 1.451230000000000018e+03
5.399999999999999939e-02 5.094855000000000356e-01 6.265446999999999989e+00 6.082250000000000512e+01 1.451710000000000036e+03
5.500000000000000028e-02 5.099234999999999740e-01 7.315370000000000594e+00 6.283660000000000423e+01 1.452260000000000218e+03
5.600000000000000117e-02 5.103965000000000307e-01 8.433524999999999494e+00 6.501784999999999570e+01 1.452865000000000009e+03
5.700000000000000205e-02 5.108979999999999633e-01 9.601369999999999294e+00 6.733019999999999072e+01 1.453514999999999873e+03
5.800000000000000294e-02 5.114175000000000804e-01 1.079894499999999979e+01 6.973569999999999425e+01 1.454204999999999927e+03
5.900000000000000383e-02 5.119474999999999998e-01 1.200577999999999967e+01 7.219665000000000532e+01 1.454920000000000073e+03
6.000000000000000472e-02 5.124805000000000055e-01 1.320238499999999959e+01 7.467664999999999509e+01 1.455650000000000091e+03
6.099999999999999867e-02 5.130080000000000195e-01 1.437094499999999897e+01 7.714239999999999498e+01 1.456384999999999991e+03
6.199999999999999956e-02 5.135260000000000380e-01 1.549639499999999970e+01 7.956504999999999939e+01 1.457119999999999891e+03
6.300000000000000044e-02 5.140284999999999993e-01 1.656664999999999921e+01 8.192130000000000223e+01 1.457845000000000027e+03
6.400000000000000133e-02 5.145140000000000269e-01 1.757290000000000063e+01 8.419395000000000095e+01 1.458550000000000182e+03
6.500000000000000222e-02 5.149795000000000345e-01 1.850969999999999871e+01 8.637199999999999989e+01 1.459234999999999900e+03
6.600000000000000311e-02 5.154255000000000919e-01 1.937450000000000117e+01 8.845044999999998936e+01 1.459900000000000091e+03
6.700000000000000400e-02 5.158525000000000471e-01 2.016740000000000066e+01 9.042969999999999686e+01 1.460535000000000082e+03
6.800000000000000488e-02 5.162614999999999288e-01 2.089045000000000130e+01 9.231454999999999700e+01 1.461150000000000091e+03
6.900000000000000577e-02 5.166554999999999342e-01 2.154735000000000156e+01 9.411330000000000950e+01 1.461740000000000009e+03
7.000000000000000666e-02 5.170360000000000511e-01 2.214285000000000281e+01 9.583670000000000755e+01 1.462305000000000064e+03
7.100000000000000755e-02 5.174050000000000038e-01 2.268205000000000027e+01 9.749639999999999418e+01 1.462855000000000018e+03
7.200000000000000844e-02 5.177659999999999485e-01 2.317009999999999792e+01 9.910370000000000346e+01 1.463385000000000218e+03
7.300000000000000933e-02 5.181204999999999838e-01 2.361185000000000045e+01 1.006698000000000093e+02 1.463904999999999973e+03
7.399999999999999634e-02 5.184699999999999864e-01 2.401140000000000185e+01 1.022040499999999952e+02 1.464414999999999964e+03
7.499999999999999722e-02 5.188154999999999850e-01 2.437189999999999657e+01 1.037119999999999891e+02 1.464914999999999964e+03
7.599999999999999811e-02 5.191565000000000207e-01 2.469534999999999769e+01 1.051980000000000075e+02 1.465400000000000091e+03
7.699999999999999900e-02 5.194940000000000113e-01 2.498270000000000124e+01 1.066629999999999967e+02 1.465884999999999991e+03
7.799999999999999989e-02 5.198264999999999691e-01 2.523359999999999914e+01 1.081024999999999920e+02 1.466360000000000127e+03
7.900000000000000078e-02 5.201519999999999477e-01 2.544655000000000200e+01 1.095130000000000052e+02 1.466829999999999927e+03
8.000000000000000167e-02 5.204689999999999594e-01 2.561945000000000050e+01 1.108850000000000051e+02 1.467280000000000200e+03
8.100000000000000255e-02 5.207744999999999180e-01 2.574920000000000186e+01 1.122085000000000008e+02 1.467720000000000027e+03
8.200000000000000344e-02 5.210654999999999593e-01 2.583259999999999934e+01 1.134719999999999942e+02 1.468144999999999982e+03
8.300000000000000433e-02 5.213404999999999845e-01 2.586609999999999943e+01 1.146630000000000109e+02 1.468549999999999955e+03
8.400000000000000522e-02 5.215954999999999897e-01 2.584624999999999773e+01 1.157690000000000055e+02 1.468929999999999836e+03
8.500000000000000611e-02 5.218289999999999873e-01 2.577009999999999934e+01 1.167779999999999916e+02 1.469279999999999973e+03
8.600000000000000699e-02 5.220374999999999321e-01 2.563524999999999920e+01 1.176790000000000020e+02 1.469595000000000027e+03
8.700000000000000788e-02 5.222204999999999764e-01 2.543994999999999962e+01 1.184634999999999962e+02 1.469884999999999991e+03
8.800000000000000877e-02 5.223754999999999926e-01 2.518329999999999913e+01 1.191235000000000070e+02 1.470130000000000109e+03
8.899999999999999578e-02 5.225020000000000220e-01 2.486534999999999940e+01 1.196539999999999964e+02 1.470340000000000146e+03
8.999999999999999667e-02 5.225999999999999535e-01 2.448730000000000118e+01 1.200529999999999973e+02 1.470505000000000109e+03
9.099999999999999756e-02 5.226684999999999803e-01 2.405105000000000004e+01 1.203199999999999932e+02 1.470634999999999991e+03
9.199999999999999845e-02 5.227094999999999381e-01 2.355980000000000274e+01 1.204569999999999936e+02 1.470724999999999909e+03
9.299999999999999933e-02 5.227224999999999788e-01 2.301745000000000019e+01 1.204685000000000059e+02 1.470775000000000091e+03
9.400000000000000022e-02 5.227094999999999381e-01 2.242884999999999707e+01 1.203609999999999900e+02 1.470784999999999854e+03
9.500000000000000111e-02 5.226729999999999432e-01 2.179964999999999975e+01 1.201434999999999889e+02 1.470755000000000109e+03
9.600000000000000200e-02 5.226144999999999818e-01 2.113604999999999734e+01 1.198255000000000052e+02 1.470699999999999818e+03
9.700000000000000289e-02 5.225364999999999593e-01 2.044474999999999909e+01 1.194184999999999945e+02 1.470609999999999900e+03
9.800000000000000377e-02 5.224425000000000319e-01 1.973290000000000077e+01 1.189355000000000047e+02 1.470490000000000009e+03
9.900000000000000466e-02 5.223349999999999937e-01 1.900775000000000148e+01 1.183890000000000100e+02 1.470349999999999909e+03
1.000000000000000056e-01 5.222160000000000135e-01 1.827645000000000053e+01 1.177924999999999898e+02 1.470190000000000055e+03
1.010000000000000064e-01 5.220890000000000253e-01 1.754605000000000103e+01 1.171595000000000084e+02 1.470014999999999873e+03
1.020000000000000073e-01 5.219565000000000454e-01 1.682305000000000206e+01 1.165014999999999930e+02 1.469829999999999927e+03
1.030000000000000082e-01 5.218209999999999793e-01 1.611345000000000027e+01 1.158310000000000031e+02 1.469634999999999991e+03
1.040000000000000091e-01 5.216849999999999543e-01 1.542229999999999990e+01 1.151589999999999918e+02 1.469434999999999945e+03
1.050000000000000100e-01 5.215494999999999992e-01 1.475375000000000014e+01 1.144939999999999998e+02 1.469235000000000127e+03
1.059999999999999970e-01 5.214164999999999495e-01 1.411101000000000028e+01 1.138435000000000059e+02 1.469035000000000082e+03
1.069999999999999979e-01 5.212870000000000559e-01 1.349598499999999923e+01 1.132134999999999962e+02 1.468835000000000036e+03
1.079999999999999988e-01 5.211620000000000141e-01 1.290951000000000093e+01 1.126069999999999993e+02 1.468639999999999873e+03
1.089999999999999997e-01 5.210405000000000175e-01 1.235125500000000009e+01 1.120260000000000105e+02 1.468454999999999927e+03
1.100000000000000006e-01 5.209234999999999838e-01 1.181981500000000018e+01 1.114699999999999989e+02 1.468275000000000091e+03
1.110000000000000014e-01 5.208099999999999952e-01 1.131304499999999891e+01 1.109370000000000118e+02 1.468099999999999909e+03
1.120000000000000023e-01 5.206990000000000229e-01 1.082776999999999923e+01 1.104234999999999900e+02 1.467930000000000064e+03
1.130000000000000032e-01 5.205899999999999972e-01 1.036042000000000129e+01 1.099254999999999995e+02 1.467764999999999873e+03
1.140000000000000041e-01 5.204815000000000413e-01 9.906980000000000786e+00 1.094360000000000070e+02 1.467599999999999909e+03
1.150000000000000050e-01 5.203719999999999457e-01 9.463165000000000049e+00 1.089509999999999934e+02 1.467440000000000055e+03
1.160000000000000059e-01 5.202609999999999735e-01 9.024815000000000254e+00 1.084639999999999986e+02 1.467279999999999973e+03
1.170000000000000068e-01 5.201474999999999849e-01 8.587915000000000632e+00 1.079685000000000059e+02 1.467115000000000009e+03
1.180000000000000077e-01 5.200289999999999635e-01 8.148820000000000618e+00 1.074600000000000080e+02 1.466950000000000045e+03
1.190000000000000085e-01 5.199059999999999793e-01 7.704335000000000377e+00 1.069339999999999975e+02 1.466779999999999973e+03
1.200000000000000094e-01 5.197785000000000322e-01 7.251979999999999649e+00 1.063870000000000005e+02 1.466605000000000018e+03
1.209999999999999964e-01 5.196450000000000236e-01 6.790059999999999540e+00 1.058179999999999978e+02 1.466429999999999836e+03
1.219999999999999973e-01 5.195060000000000233e-01 6.317574999999999719e+00 1.052259999999999991e+02 1.466240000000000009e+03
1.229999999999999982e-01 5.193624999999999492e-01 5.834455000000000169e+00 1.046105000000000018e+02 1.466055000000000064e+03
1.239999999999999991e-01 5.192145000000000232e-01 5.341439999999999522e+00 1.039749999999999943e+02 1.465855000000000018e+03
1.250000000000000000e-01 5.190630000000000521e-01 4.840129999999999377e+00 1.033230999999999966e+02 1.465654999999999973e+03
1.260000000000000009e-01 5.189094999999999125e-01 4.332905000000000229e+00 1.026590999999999951e+02 1.465450000000000045e+03
1.270000000000000018e-01 5.187549999999999661e-01 3.822847000000000328e+00 1.019898000000000025e+02 1.465244999999999891e+03
1.280000000000000027e-01 5.186020000000000074e-01 3.313672999999999647e+00 1.013213999999999970e+02 1.465034999999999854e+03
1.290000000000000036e-01 5.184520000000000239e-01 2.809574699999999758e+00 1.006622999999999877e+02 1.464829999999999927e+03
1.300000000000000044e-01 5.183060000000000445e-01 2.315104999999999968e+00 1.000204999999999984e+02 1.464625000000000000e+03
1.310000000000000053e-01 5.181670000000000442e-01 1.835016999999999898e+00 9.940444999999999709e+01 1.464434999999999945e+03
1.320000000000000062e-01 5.180365000000000109e-01 1.374099999999999877e+00 9.882280000000000086e+01 1.464244999999999891e+03
1.330000000000000071e-01 5.179165000000000019e-01 9.370249999999998858e-01 9.828354999999999109e+01 1.464069999999999936e+03
1.340000000000000080e-01 5.178080000000000460e-01 5.281900000000000484e-01 9.779364999999999952e+01 1.463909999999999854e+03
1.350000000000000089e-01 5.177129999999999788e-01 1.515199999999999880e-01 9.736029999999999518e+01 1.463764999999999873e+03
1.360000000000000098e-01 5.176319999999999810e-01 -1.896000000000001018e-01 9.698904999999999177e+01 1.463634999999999991e+03
1.370000000000000107e-01 5.175659999999999705e-01 -4.924794999999999590e-01 9.668350000000000932e+01 1.463525000000000091e+03
1.380000000000000115e-01 5.175155000000000172e-01 -7.552105999999999542e-01 9.644655000000000200e+01 1.463434999999999945e+03
1.390000000000000124e-01 5.174805000000000099e-01 -9.767034999999999467e-01 9.627944999999999709e+01 1.463365000000000009e+03
1.400000000000000133e-01 5.174609999999999488e-01 -1.156730000000000036e+00 9.618174999999999386e+01 1.463315000000000055e+03
1.410000000000000142e-01 5.174560000000000271e-01 -1.295879999999999921e+00 9.615155000000000030e+01 1.463284999999999854e+03
1.420000000000000151e-01 5.174655000000000227e-01 -1.395564999999999944e+00 9.618545000000000300e+01 1.463279999999999973e+03
1.430000000000000160e-01 5.174874999999999892e-01 -1.457891999999999966e+00 9.627889999999999304e+01 1.463284999999999854e+03
1.440000000000000169e-01 5.175210000000000088e-01 -1.485608999999999957e+00 9.642600000000000193e+01 1.463315000000000055e+03
1.450000000000000178e-01 5.175644999999999829e-01 -1.481969000000000092e+00 9.662014999999999532e+01 1.463349999999999909e+03
1.459999999999999909e-01 5.176159999999999650e-01 -1.450621500000000008e+00 9.685405000000000086e+01 1.463404999999999973e+03
1.469999999999999918e-01 5.176749999999999963e-01 -1.395463499999999968e+00 9.712010000000000787e+01 1.463470000000000027e+03
1.479999999999999927e-01 5.177380000000000315e-01 -1.320521049999999974e+00 9.741040000000000987e+01 1.463549999999999955e+03
1.489999999999999936e-01 5.178050000000000708e-01 -1.229835999999999929e+00 9.771735000000001037e+01 1.463630000000000109e+03
1.499999999999999944e-01 5.178730000000000278e-01 -1.127338000000000173e+00 9.803364999999999441e+01 1.463715000000000146e+03
1.509999999999999953e-01 5.179415000000000546e-01 -1.016762500000000014e+00 9.835235000000000127e+01 1.463805000000000064e+03
1.519999999999999962e-01 5.180095000000000116e-01 -9.015675000000000772e-01 9.866734999999999900e+01 1.463894999999999982e+03
1.529999999999999971e-01 5.180750000000000632e-01 -7.848579999999998336e-01 9.897339999999999804e+01 1.463985000000000127e+03
1.539999999999999980e-01 5.181374999999999176e-01 -6.693649999999999878e-01 9.926585000000000036e+01 1.464075000000000045e+03
1.549999999999999989e-01 5.181964999999999488e-01 -5.573829999999999618e-01 9.954099999999999682e+01 1.464159999999999854e+03
1.559999999999999998e-01 5.182510000000000172e-01 -4.507979999999999765e-01 9.979654999999999632e+01 1.464235000000000127e+03
1.570000000000000007e-01 5.183014999999999706e-01 -3.510419999999999652e-01 1.000302000000000078e+02 1.464309999999999945e+03
1.580000000000000016e-01 5.183470000000000022e-01 -2.591534999999999811e-01 1.002410500000000013e+02 1.464380000000000109e+03
1.590000000000000024e-01 5.183869999999999312e-01 -1.757624999999999882e-01 1.004287499999999937e+02 1.464440000000000055e+03
