# t [s], A [cm^2], U [cm/s], P [cPa], c [cm/s]
1.000000000000000021e-03 1.821504999999999930e-01 2.685049999999999937e-01 9.711990000000000123e+01 2.101625000000000000e+03
2.000000000000000042e-03 1.821045000000000025e-01 1.745050499999999838e+00 9.391569999999998686e+01 2.101250000000000000e+03
3.000000000000000062e-03 1.819755000000000122e-01 3.595872500000000027e+00 8.940520000000000778e+01 2.100260000000000218e+03
4.000000000000000083e-03 1.817964999999999998e-01 5.690537500000000470e+00 8.441329999999999245e+01 2.098905000000000200e+03
5.000000000000000104e-03 1.816039999999999877e-01 7.957095000000000695e+00 7.987099999999999511e+01 2.097465000000000146e+03
6.000000000000000125e-03 1.814184999999999826e-01 1.021828999999999965e+01 7.612270000000000891e+01 2.096085000000000036e+03
7.000000000000000146e-03 1.812449999999999894e-01 1.224474999999999980e+01 7.292999999999999261e+01 2.094824999999999818e+03
8.000000000000000167e-03 1.810849999999999960e-01 1.394182500000000147e+01 7.004505000000000337e+01 2.093689999999999600e+03
9.000000000000001055e-03 1.809445000000000081e-01 1.534860000000000113e+01 6.752684999999999604e+01 2.092699999999999818e+03
1.000000000000000194e-02 1.808265000000000011e-01 1.650430000000000064e+01 6.546770000000000778e+01 2.091880000000000109e+03
1.099999999999999936e-02 1.807300000000000018e-01 1.742770000000000152e+01 6.385255000000000081e+01 2.091215000000000146e+03
1.200000000000000025e-02 1.806539999999999813e-01 1.813560000000000016e+01 6.262169999999999703e+01 2.090704999999999927e+03
1.300000000000000114e-02 1.805940000000000045e-01 1.863260000000000005e+01 6.166944999999999766e+01 2.090304999999999836e+03
1.400000000000000203e-02 1.805459999999999843e-01 1.892640000000000100e+01 6.086305000000000121e+01 2.089994999999999891e+03
1.499999999999999944e-02 1.805065000000000142e-01 1.908034999999999926e+01 6.018630000000000280e+01 2.089739999999999782e+03
1.600000000000000033e-02 1.804815000000000169e-01 1.923239999999999839e+01 5.985855000000000103e+01 2.089590000000000146e+03
1.700000000000000122e-02 1.804790000000000005e-01 1.954135000000000133e+01 6.025374999999999659e+01 2.089579999999999927e+03
1.800000000000000211e-02 1.805085000000000162e-01 2.010004999999999953e+01 6.165675000000000239e+01 2.089784999999999854e+03
1.900000000000000300e-02 1.805709999999999815e-01 2.088064999999999927e+01 6.404295000000000471e+01 2.090225000000000364e+03
2.000000000000000042e-02 1.806595000000000006e-01 2.174334999999999951e+01 6.702615000000000123e+01 2.090845000000000255e+03
2.100000000000000130e-02 1.807579999999999742e-01 2.249605000000000032e+01 6.999004999999999654e+01 2.091534999999999854e+03
2.200000000000000219e-02 1.808474999999999944e-01 2.297025000000000006e+01 7.231680000000000064e+01 2.092184999999999945e+03
2.299999999999999961e-02 1.809135000000000049e-01 2.307885000000000275e+01 7.360089999999999577e+01 2.092675000000000182e+03
2.400000000000000050e-02 1.809485000000000121e-01 2.283589999999999876e+01 7.376279999999999859e+01 2.092949999999999818e+03
2.500000000000000139e-02 1.809545000000000181e-01 2.233684999999999832e+01 7.303170000000000073e+01 2.093010000000000218e+03
2.600000000000000228e-02 1.809375000000000011e-01 2.171209999999999951e+01 7.181884999999999764e+01 2.092914999999999964e+03
2.700000000000000316e-02 1.809100000000000152e-01 2.107529999999999859e+01 7.054499999999998749e+01 2.092730000000000018e+03
2.800000000000000058e-02 1.808815000000000006e-01 2.048734999999999928e+01 6.949429999999999552e+01 2.092525000000000091e+03
2.900000000000000147e-02 1.808559999999999890e-01 1.994640000000000057e+01 6.874299999999999500e+01 2.092344999999999800e+03
3.000000000000000236e-02 1.808339999999999947e-01 1.940259999999999962e+01 6.817570000000000618e+01 2.092190000000000055e+03
3.099999999999999978e-02 1.808120000000000005e-01 1.878835000000000122e+01 6.756884999999999764e+01 2.092034999999999854e+03
3.200000000000000067e-02 1.807834999999999859e-01 1.805270000000000152e+01 6.670300000000000296e+01 2.091840000000000146e+03
3.300000000000000155e-02 1.807449999999999890e-01 1.718775000000000119e+01 6.546500000000000341e+01 2.091574999999999818e+03
3.400000000000000244e-02 1.806960000000000233e-01 1.623995000000000033e+01 6.390755000000000052e+01 2.091234999999999673e+03
3.500000000000000333e-02 1.806404999999999816e-01 1.530220000000000091e+01 6.224880000000000280e+01 2.090849999999999909e+03
3.600000000000000422e-02 1.805875000000000119e-01 1.449000000000000199e+01 6.081345000000000312e+01 2.090475000000000364e+03
3.700000000000000511e-02 1.805459999999999843e-01 1.390970000000000084e+01 5.993724999999999881e+01 2.090175000000000182e+03
3.799999999999999906e-02 1.805269999999999930e-01 1.362955000000000005e+01 5.986655000000000371e+01 2.090025000000000091e+03
3.899999999999999994e-02 1.805329999999999990e-01 1.366144999999999854e+01 6.068654999999999688e+01 2.090055000000000291e+03
4.000000000000000083e-02 1.805669999999999775e-01 1.395899999999999963e+01 6.229630000000000223e+01 2.090274999999999636e+03
4.100000000000000172e-02 1.806225000000000191e-01 1.442880000000000074e+01 6.443280000000000030e+01 2.090644999999999982e+03
4.200000000000000261e-02 1.806915000000000049e-01 1.495104999999999862e+01 6.673130000000000450e+01 2.091119999999999891e+03
4.300000000000000350e-02 1.807619999999999783e-01 1.540264999999999951e+01 6.880225000000000080e+01 2.091614999999999782e+03
4.400000000000000439e-02 1.808224999999999971e-01 1.567774999999999963e+01 7.030310000000000059e+01 2.092039999999999964e+03
4.499999999999999833e-02 1.808639999999999970e-01 1.570139999999999958e+01 7.099129999999999541e+01 2.092340000000000146e+03
4.599999999999999922e-02 1.808784999999999976e-01 1.543515000000000015e+01 7.074934999999999263e+01 2.092460000000000036e+03
4.700000000000000011e-02 1.808639999999999970e-01 1.487549999999999883e+01 6.958265000000000100e+01 2.092369999999999891e+03
4.800000000000000100e-02 1.808194999999999941e-01 1.404645000000000010e+01 6.759485000000000809e+01 2.092074999999999818e+03
4.900000000000000189e-02 1.807495000000000074e-01 1.298979999999999890e+01 6.495204999999999984e+01 2.091590000000000146e+03
5.000000000000000278e-02 1.806579999999999853e-01 1.175562000000000040e+01 6.184454999999999814e+01 2.090960000000000036e+03
5.100000000000000366e-02 1.805505000000000027e-01 1.039481500000000125e+01 5.845664999999999623e+01 2.090204999999999927e+03
5.200000000000000455e-02 1.804319999999999813e-01 8.955255000000001075e+00 5.494794999999999874e+01 2.089375000000000000e+03
5.300000000000000544e-02 1.803084999999999827e-01 7.480660000000000309e+00 5.144745000000000346e+01 2.088510000000000218e+03
5.399999999999999939e-02 1.801834999999999964e-01 6.011899999999999800e+00 4.805774999999999864e+01 2.087625000000000000e+03
5.500000000000000028e-02 1.800619999999999998e-01 4.588940000000000019e+00 4.486504999999999654e+01 2.086765000000000327e+03
5.600000000000000117e-02 1.799459999999999948e-01 3.252929399999999749e+00 4.194965000000000543e+01 2.085939999999999600e+03
5.700000000000000205e-02 1.798389999999999989e-01 2.046960499999999961e+00 3.939424999999999955e+01 2.085184999999999945e+03
5.800000000000000294e-02 1.797449999999999881e-01 1.015474999999999905e+00 3.728665000000000163e+01 2.084514999999999873e+03
5.900000000000000383e-02 1.796679999999999944e-01 2.023350000000000426e-01 3.571809999999999974e+01 2.083960000000000036e+03
6.000000000000000472e-02 1.796105000000000063e-01 -3.521699999999999831e-01 3.477629999999999910e+01 2.083539999999999964e+03
6.099999999999999867e-02 1.795749999999999846e-01 -6.145906500000000161e-01 3.453654999999999831e+01 2.083275000000000091e+03
6.199999999999999956e-02 1.795660000000000034e-01 -5.614069999999999894e-01 3.505235000000000412e+01 2.083190000000000055e+03
6.300000000000000044e-02 1.795835000000000070e-01 -1.812109999999999554e-01 3.634810000000000230e+01 2.083295000000000073e+03
6.400000000000000133e-02 1.796289999999999831e-01 5.241654999999998399e-01 3.841485000000000127e+01 2.083594999999999800e+03
6.500000000000000222e-02 1.797020000000000006e-01 1.539766500000000038e+00 4.120994999999999919e+01 2.084085000000000036e+03
6.600000000000000311e-02 1.798009999999999886e-01 2.838667800000000074e+00 4.465990000000000038e+01 2.084760000000000218e+03
6.700000000000000400e-02 1.799229999999999996e-01 4.383969999999999700e+00 4.866604999999999848e+01 2.085605000000000018e+03
6.800000000000000488e-02 1.800654999999999895e-01 6.131270000000000664e+00 5.311209999999999809e+01 2.086595000000000255e+03
6.900000000000000577e-02 1.802245000000000097e-01 8.031409999999999272e+00 5.787214999999999776e+01 2.087699999999999818e+03
7.000000000000000666e-02 1.803945000000000132e-01 1.003318999999999939e+01 6.281860000000000355e+01 2.088894999999999982e+03
7.100000000000000755e-02 1.805729999999999835e-01 1.208629499999999979e+01 6.783010000000000161e+01 2.090150000000000091e+03
7.200000000000000844e-02 1.807544999999999846e-01 1.414374000000000109e+01 7.279769999999999186e+01 2.091434999999999945e+03
7.300000000000000933e-02 1.809354999999999991e-01 1.616400000000000148e+01 7.763079999999999359e+01 2.092720000000000255e+03
7.399999999999999634e-02 1.811139999999999972e-01 1.811314999999999742e+01 8.226109999999999900e+01 2.093984999999999673e+03
7.499999999999999722e-02 1.812854999999999883e-01 1.996580000000000155e+01 8.664515000000000100e+01 2.095220000000000255e+03
7.599999999999999811e-02 1.814500000000000002e-01 2.170579999999999998e+01 9.076470000000000482e+01 2.096394999999999982e+03
7.699999999999999900e-02 1.816070000000000184e-01 2.332600000000000051e+01 9.462479999999999336e+01 2.097525000000000091e+03
7.799999999999999989e-02 1.817555000000000143e-01 2.482735000000000269e+01 9.825145000000000550e+01 2.098595000000000255e+03
7.900000000000000078e-02 1.818964999999999888e-01 2.621734999999999971e+01 1.016839499999999958e+02 2.099614999999999782e+03
8.000000000000000167e-02 1.820319999999999994e-01 2.750829999999999842e+01 1.049719499999999925e+02 2.100595000000000255e+03
8.100000000000000255e-02 1.821625000000000050e-01 2.871504999999999797e+01 1.081654999999999944e+02 2.101534999999999854e+03
8.200000000000000344e-02 1.822904999999999942e-01 2.985304999999999964e+01 1.113144999999999953e+02 2.102460000000000036e+03
8.300000000000000433e-02 1.824160000000000226e-01 3.093690000000000140e+01 1.144574999999999960e+02 2.103369999999999891e+03
8.400000000000000522e-02 1.825414999999999954e-01 3.197865000000000180e+01 1.176230000000000047e+02 2.104279999999999745e+03
8.500000000000000611e-02 1.826675000000000104e-01 3.298684999999999690e+01 1.208275000000000006e+02 2.105190000000000055e+03
8.600000000000000699e-02 1.827944999999999987e-01 3.396640000000000015e+01 1.240709999999999980e+02 2.106110000000000127e+03
8.700000000000000788e-02 1.829215000000000146e-01 3.491799999999999926e+01 1.273439999999999941e+02 2.107034999999999854e+03
8.800000000000000877e-02 1.830499999999999905e-01 3.583859999999999957e+01 1.306245000000000118e+02 2.107954999999999927e+03
8.899999999999999578e-02 1.831774999999999931e-01 3.672175000000000011e+01 1.338815000000000168e+02 2.108880000000000109e+03
8.999999999999999667e-02 1.833040000000000225e-01 3.755825000000000102e+01 1.370765000000000100e+02 2.109800000000000182e+03
9.099999999999999756e-02 1.834279999999999800e-01 3.833669999999999334e+01 1.401694999999999993e+02 2.110694999999999709e+03
9.199999999999999845e-02 1.835475000000000023e-01 3.904444999999999766e+01 1.431179999999999950e+02 2.111559999999999945e+03
9.299999999999999933e-02 1.836615000000000053e-01 3.966825000000000045e+01 1.458795000000000073e+02 2.112390000000000327e+03
9.400000000000000022e-02 1.837679999999999869e-01 4.019500000000000028e+01 1.484155000000000086e+02 2.113170000000000073e+03
9.500000000000000111e-02 1.838670000000000027e-01 4.061254999999999882e+01 1.506895000000000095e+02 2.113890000000000327e+03
9.600000000000000200e-02 1.839560000000000084e-01 4.091035000000000110e+01 1.526745000000000232e+02 2.114534999999999854e+03
9.700000000000000289e-02 1.840340000000000031e-01 4.108024999999999949e+01 1.543464999999999918e+02 2.115114999999999782e+03
9.800000000000000377e-02 1.841010000000000146e-01 4.111684999999999945e+01 1.556920000000000073e+02 2.115605000000000018e+03
9.900000000000000466e-02 1.841559999999999864e-01 4.101789999999999736e+01 1.567060000000000173e+02 2.116014999999999873e+03
1.000000000000000056e-01 1.841984999999999872e-01 4.078504999999999825e+01 1.573924999999999841e+02 2.116335000000000036e+03
1.010000000000000064e-01 1.842294999999999905e-01 4.042314999999999969e+01 1.577644999999999982e+02 2.116569999999999709e+03
1.020000000000000073e-01 1.842484999999999817e-01 3.994084999999999752e+01 1.578444999999999823e+02 2.116715000000000146e+03
1.030000000000000082e-01 1.842564999999999897e-01 3.934969999999999857e+01 1.576614999999999895e+02 2.116784999999999854e+03
1.040000000000000091e-01 1.842555000000000165e-01 3.866419999999999391e+01 1.572500000000000000e+02 2.116784999999999854e+03
1.050000000000000100e-01 1.842455000000000065e-01 3.790039999999999765e+01 1.566514999999999986e+02 2.116724999999999909e+03
1.059999999999999970e-01 1.842285000000000172e-01 3.707600000000000051e+01 1.559060000000000059e+02 2.116609999999999673e+03
1.069999999999999979e-01 1.842055000000000220e-01 3.620889999999999986e+01 1.550559999999999832e+02 2.116449999999999818e+03
1.079999999999999988e-01 1.841784999999999950e-01 3.531685000000000230e+01 1.541419999999999959e+02 2.116260000000000218e+03
1.089999999999999997e-01 1.841490000000000071e-01 3.441655000000000086e+01 1.532015000000000100e+02 2.116050000000000182e+03
1.100000000000000006e-01 1.841174999999999895e-01 3.352309999999999945e+01 1.522669999999999959e+02 2.115820000000000164e+03
1.110000000000000014e-01 1.840855000000000130e-01 3.264950000000000330e+01 1.513645000000000209e+02 2.115595000000000255e+03
1.120000000000000023e-01 1.840545000000000098e-01 3.180615000000000236e+01 1.505134999999999934e+02 2.115369999999999891e+03
1.130000000000000032e-01 1.840244999999999798e-01 3.100074999999999648e+01 1.497280000000000086e+02 2.115149999999999636e+03
1.140000000000000041e-01 1.839959999999999929e-01 3.023785000000000167e+01 1.490135000000000218e+02 2.114944999999999709e+03
1.150000000000000050e-01 1.839699999999999946e-01 2.951920000000000144e+01 1.483695000000000164e+02 2.114750000000000000e+03
1.160000000000000059e-01 1.839454999999999840e-01 2.884340000000000259e+01 1.477869999999999777e+02 2.114574999999999818e+03
1.170000000000000068e-01 1.839234999999999898e-01 2.820655000000000001e+01 1.472540000000000191e+02 2.114404999999999745e+03
1.180000000000000077e-01 1.839024999999999965e-01 2.760239999999999938e+01 1.467504999999999882e+02 2.114250000000000000e+03
1.190000000000000085e-01 1.838819999999999899e-01 2.702280000000000015e+01 1.462554999999999836e+02 2.114099999999999909e+03
1.200000000000000094e-01 1.838615000000000110e-01 2.645810000000000173e+01 1.457434999999999832e+02 2.113949999999999818e+03
1.209999999999999964e-01 1.838410000000000044e-01 2.589825000000000088e+01 1.451895000000000095e+02 2.113800000000000182e+03
1.219999999999999973e-01 1.838180000000000092e-01 2.533270000000000266e+01 1.445679999999999836e+02 2.113630000000000109e+03
1.229999999999999982e-01 1.837924999999999975e-01 2.475179999999999936e+01 1.438564999999999827e+02 2.113449999999999818e+03
1.239999999999999991e-01 1.837640000000000107e-01 2.414659999999999940e+01 1.430360000000000014e+02 2.113239999999999782e+03
1.250000000000000000e-01 1.837314999999999920e-01 2.351014999999999944e+01 1.420919999999999845e+02 2.113005000000000109e+03
1.260000000000000009e-01 1.836944999999999828e-01 2.283739999999999881e+01 1.410149999999999864e+02 2.112739999999999782e+03
1.270000000000000018e-01 1.836530000000000107e-01 2.212575000000000003e+01 1.398029999999999973e+02 2.112440000000000055e+03
1.280000000000000027e-01 1.836065000000000058e-01 2.137525000000000119e+01 1.384600000000000080e+02 2.112109999999999673e+03
1.290000000000000036e-01 1.835554999999999826e-01 2.058865000000000123e+01 1.369979999999999905e+02 2.111744999999999891e+03
1.300000000000000044e-01 1.835005000000000108e-01 1.977139999999999986e+01 1.354335000000000093e+02 2.111345000000000255e+03
1.310000000000000053e-01 1.834419999999999940e-01 1.893110000000000070e+01 1.337895000000000039e+02 2.110930000000000291e+03
1.320000000000000062e-01 1.833805000000000018e-01 1.807754999999999868e+01 1.320935000000000059e+02 2.110484999999999673e+03
1.330000000000000071e-01 1.833170000000000077e-01 1.722210000000000107e+01 1.303770000000000095e+02 2.110029999999999745e+03
1.340000000000000080e-01 1.832535000000000136e-01 1.637689999999999912e+01 1.286709999999999923e+02 2.109569999999999709e+03
1.350000000000000089e-01 1.831895000000000051e-01 1.555470000000000041e+01 1.270089999999999861e+02 2.109109999999999673e+03
1.360000000000000098e-01 1.831274999999999986e-01 1.476785000000000103e+01 1.254224999999999994e+02 2.108659999999999854e+03
1.370000000000000107e-01 1.830680000000000085e-01 1.402795000000000059e+01 1.239385000000000048e+02 2.108234999999999673e+03
1.380000000000000115e-01 1.830120000000000080e-01 1.334520000000000017e+01 1.225819999999999936e+02 2.107824999999999818e+03
1.390000000000000124e-01 1.829604999999999981e-01 1.272799999999999976e+01 1.213714999999999975e+02 2.107449999999999818e+03
1.400000000000000133e-01 1.829145000000000076e-01 1.218270000000000053e+01 1.203209999999999980e+02 2.107114999999999782e+03
1.410000000000000142e-01 1.828735000000000221e-01 1.171328499999999906e+01 1.194375000000000000e+02 2.106820000000000164e+03
1.420000000000000151e-01 1.828390000000000015e-01 1.132151999999999958e+01 1.187224999999999966e+02 2.106559999999999945e+03
1.430000000000000160e-01 1.828095000000000137e-01 1.100668500000000094e+01 1.181724999999999994e+02 2.106345000000000255e+03
1.440000000000000169e-01 1.827870000000000050e-01 1.076601499999999945e+01 1.177780000000000058e+02 2.106175000000000182e+03
1.450000000000000178e-01 1.827695000000000014e-01 1.059493499999999955e+01 1.175254999999999939e+02 2.106039999999999964e+03
1.459999999999999909e-01 1.827570000000000028e-01 1.048708500000000043e+01 1.173990000000000009e+02 2.105949999999999818e+03
1.469999999999999918e-01 1.827495000000000092e-01 1.043513000000000090e+01 1.173805000000000121e+02 2.105889999999999873e+03
1.479999999999999927e-01 1.827459999999999918e-01 1.043065999999999960e+01 1.174484999999999957e+02 2.105859999999999673e+03
1.489999999999999936e-01 1.827455000000000052e-01 1.046481500000000153e+01 1.175835000000000008e+02 2.105850000000000364e+03
1.499999999999999944e-01 1.827479999999999938e-01 1.052873999999999910e+01 1.177650000000000006e+02 2.105864999999999782e+03
1.509999999999999953e-01 1.827524999999999844e-01 1.061350000000000016e+01 1.179745000000000061e+02 2.105889999999999873e+03
1.519999999999999962e-01 1.827575000000000172e-01 1.071090000000000053e+01 1.181945000000000050e+02 2.105925000000000182e+03
1.529999999999999971e-01 1.827639999999999820e-01 1.081320000000000014e+01 1.184089999999999918e+02 2.105969999999999800e+03
1.539999999999999980e-01 1.827699999999999880e-01 1.091375000000000028e+01 1.186064999999999969e+02 2.106010000000000218e+03
1.549999999999999989e-01 1.827759999999999940e-01 1.100685000000000002e+01 1.187770000000000010e+02 2.106050000000000182e+03
1.559999999999999998e-01 1.827814999999999857e-01 1.108794999999999931e+01 1.189120000000000061e+02 2.106090000000000146e+03
1.570000000000000007e-01 1.827854999999999897e-01 1.115390000000000015e+01 1.190074999999999932e+02 2.106119999999999891e+03
1.580000000000000016e-01 1.827884999999999927e-01 1.120240000000000080e+01 1.190625000000000000e+02 2.106139999999999873e+03
1.590000000000000024e-01 1.827900000000000080e-01 1.123280000000000101e+01 1.190765000000000100e+02 2.106149999999999636e+03
