# t [s], A [cm^2], U [cm/s], P [cPa], c [cm/s]
1.000000000000000021e-03 1.891690000000000038e-01 1.635079999999999867e-01 9.321059999999999945e+01 2.198210000000000036e+03
2.000000000000000042e-03 1.891275000000000039e-01 1.434096999999999955e+00 9.036330000000000950e+01 2.197850000000000364e+03
3.000000000000000062e-03 1.890094999999999970e-01 3.082648999999999972e+00 8.619939999999999714e+01 2.196885000000000218e+03
4.000000000000000083e-03 1.888454999999999995e-01 4.975361750000000249e+00 8.142894999999998618e+01 2.195570000000000164e+03
5.000000000000000104e-03 1.886680000000000024e-01 7.048150000000000581e+00 7.695765000000000100e+01 2.194154999999999745e+03
6.000000000000000125e-03 1.884965000000000113e-01 9.146729999999999805e+00 7.321184999999999832e+01 2.192804999999999836e+03
7.000000000000000146e-03 1.883369999999999767e-01 1.104210499999999939e+01 7.002355000000000018e+01 2.191574999999999818e+03
8.000000000000000167e-03 1.881909999999999972e-01 1.261978500000000025e+01 6.714314999999999145e+01 2.190465000000000146e+03
9.000000000000001055e-03 1.880620000000000069e-01 1.390900500000000051e+01 6.462010000000000787e+01 2.189510000000000218e+03
1.000000000000000194e-02 1.879544999999999966e-01 1.494975000000000165e+01 6.255894999999999584e+01 2.188720000000000255e+03
1.099999999999999936e-02 1.878679999999999795e-01 1.576409999999999911e+01 6.096309999999999718e+01 2.188095000000000255e+03
1.200000000000000025e-02 1.878015000000000101e-01 1.637085000000000079e+01 5.978310000000000457e+01 2.187614999999999782e+03
1.300000000000000114e-02 1.877510000000000012e-01 1.677110000000000056e+01 5.890444999999999709e+01 2.187260000000000218e+03
1.400000000000000203e-02 1.877099999999999880e-01 1.696580000000000155e+01 5.816924999999999812e+01 2.186984999999999673e+03
1.499999999999999944e-02 1.876774999999999971e-01 1.701585000000000036e+01 5.754299999999999926e+01 2.186765000000000327e+03
1.600000000000000033e-02 1.876579999999999915e-01 1.706394999999999840e+01 5.725164999999999793e+01 2.186644999999999982e+03
1.700000000000000122e-02 1.876609999999999945e-01 1.727680000000000149e+01 5.769464999999999577e+01 2.186670000000000073e+03
1.800000000000000211e-02 1.876955000000000151e-01 1.775179999999999936e+01 5.917884999999999707e+01 2.186930000000000291e+03
1.900000000000000300e-02 1.877634999999999998e-01 1.845899999999999963e+01 6.168030000000000257e+01 2.187430000000000291e+03
2.000000000000000042e-02 1.878555000000000086e-01 1.925355000000000061e+01 6.479345000000000709e+01 2.188110000000000127e+03
2.100000000000000130e-02 1.879544999999999966e-01 1.994089999999999918e+01 6.787890000000000157e+01 2.188859999999999673e+03
2.200000000000000219e-02 1.880434999999999746e-01 2.035674999999999812e+01 7.031010000000000559e+01 2.189539999999999964e+03
2.299999999999999961e-02 1.881074999999999831e-01 2.042370000000000019e+01 7.169419999999999504e+01 2.190050000000000182e+03
2.400000000000000050e-02 1.881419999999999759e-01 2.016635000000000133e+01 7.197860000000000014e+01 2.190335000000000036e+03
2.500000000000000139e-02 1.881484999999999963e-01 1.968590000000000018e+01 7.141679999999999495e+01 2.190409999999999854e+03
2.600000000000000228e-02 1.881364999999999843e-01 1.911005000000000109e+01 7.042795000000000982e+01 2.190335000000000036e+03
2.700000000000000316e-02 1.881164999999999921e-01 1.854164999999999708e+01 6.941839999999999122e+01 2.190194999999999709e+03
2.800000000000000058e-02 1.880970000000000142e-01 1.802544999999999931e+01 6.863755000000000450e+01 2.190045000000000073e+03
2.900000000000000147e-02 1.880799999999999972e-01 1.754234999999999900e+01 6.811660000000000537e+01 2.189920000000000073e+03
3.000000000000000236e-02 1.880654999999999966e-01 1.702785000000000082e+01 6.769640000000001123e+01 2.189805000000000291e+03
3.099999999999999978e-02 1.880469999999999919e-01 1.640650000000000119e+01 6.712319999999999709e+01 2.189670000000000073e+03
3.200000000000000067e-02 1.880185000000000051e-01 1.562819999999999965e+01 6.617150000000000887e+01 2.189460000000000036e+03
3.300000000000000155e-02 1.879770000000000052e-01 1.469539999999999935e+01 6.475199999999999534e+01 2.189159999999999854e+03
3.400000000000000244e-02 1.879230000000000067e-01 1.367140000000000022e+01 6.296800000000000352e+01 2.188769999999999982e+03
3.500000000000000333e-02 1.878630000000000022e-01 1.266760000000000019e+01 6.110200000000000387e+01 2.188324999999999818e+03
3.600000000000000422e-02 1.878079999999999750e-01 1.181313499999999905e+01 5.953655000000000541e+01 2.187904999999999745e+03
3.700000000000000511e-02 1.877679999999999905e-01 1.121851000000000020e+01 5.864005000000000223e+01 2.187595000000000255e+03
3.799999999999999906e-02 1.877524999999999888e-01 1.094590000000000174e+01 5.865690000000000026e+01 2.187460000000000036e+03
3.899999999999999994e-02 1.877655000000000018e-01 1.099380000000000024e+01 5.963880000000000337e+01 2.187534999999999854e+03
4.000000000000000083e-02 1.878060000000000007e-01 1.130015000000000036e+01 6.143259999999999366e+01 2.187815000000000055e+03
4.100000000000000172e-02 1.878670000000000062e-01 1.175935000000000130e+01 6.372279999999999944e+01 2.188250000000000000e+03
4.200000000000000261e-02 1.879379999999999939e-01 1.224640000000000128e+01 6.610755000000000337e+01 2.188775000000000091e+03
4.300000000000000350e-02 1.880074999999999941e-01 1.264204999999999934e+01 6.818524999999999636e+01 2.189295000000000073e+03
4.400000000000000439e-02 1.880644999999999956e-01 1.285204999999999842e+01 6.962895000000000323e+01 2.189730000000000018e+03
4.499999999999999833e-02 1.881005000000000038e-01 1.281784999999999997e+01 7.023335000000000150e+01 2.190010000000000218e+03
4.599999999999999922e-02 1.881094999999999851e-01 1.251880000000000059e+01 6.992974999999999852e+01 2.190100000000000364e+03
4.700000000000000011e-02 1.880914999999999948e-01 1.196604999999999919e+01 6.877044999999999675e+01 2.189979999999999563e+03
4.800000000000000100e-02 1.880485000000000073e-01 1.119221500000000091e+01 6.689324999999999477e+01 2.189670000000000073e+03
4.900000000000000189e-02 1.879834999999999978e-01 1.024008999999999858e+01 6.447719999999999629e+01 2.189195000000000164e+03
5.000000000000000278e-02 1.879020000000000135e-01 9.153200000000000003e+00 6.170289999999999964e+01 2.188590000000000146e+03
5.100000000000000366e-02 1.878090000000000037e-01 7.970320000000000960e+00 5.872549999999999670e+01 2.187894999999999982e+03
5.200000000000000455e-02 1.877079999999999860e-01 6.723874999999999602e+00 5.566324999999999790e+01 2.187144999999999982e+03
5.300000000000000544e-02 1.876035000000000064e-01 5.441874999999999574e+00 5.260034999999999883e+01 2.186360000000000127e+03
5.399999999999999939e-02 1.874974999999999836e-01 4.151194999999999524e+00 4.959905000000000541e+01 2.185564999999999600e+03
5.500000000000000028e-02 1.873934999999999906e-01 2.881259000000000015e+00 4.671564999999999657e+01 2.184784999999999854e+03
5.600000000000000117e-02 1.872929999999999873e-01 1.666555000000000009e+00 4.401370000000000005e+01 2.184029999999999745e+03
5.700000000000000205e-02 1.871995000000000187e-01 5.472550000000000470e-01 4.157215000000000060e+01 2.183319999999999709e+03
5.800000000000000294e-02 1.871154999999999902e-01 -4.321499999999999231e-01 3.948600000000000421e+01 2.182680000000000291e+03
5.900000000000000383e-02 1.870445000000000024e-01 -1.225860500000000020e+00 3.786045000000000016e+01 2.182139999999999873e+03
6.000000000000000472e-02 1.869914999999999772e-01 -1.790789999999999882e+00 3.679989999999999384e+01 2.181719999999999800e+03
6.099999999999999867e-02 1.869574999999999987e-01 -2.090659999999999741e+00 3.639569999999999794e+01 2.181454999999999927e+03
6.199999999999999956e-02 1.869474999999999887e-01 -2.099495000000000111e+00 3.671444999999999936e+01 2.181355000000000018e+03
6.300000000000000044e-02 1.869620000000000171e-01 -1.804019999999999957e+00 3.778960000000000008e+01 2.181444999999999709e+03
6.400000000000000133e-02 1.870025000000000159e-01 -1.204614999999999991e+00 3.961714999999999520e+01 2.181725000000000364e+03
6.500000000000000222e-02 1.870684999999999987e-01 -3.150300000000001432e-01 4.215614999999999668e+01 2.182194999999999709e+03
6.600000000000000311e-02 1.871579999999999910e-01 8.390349999999999753e-01 4.533290000000000219e+01 2.182840000000000146e+03
6.700000000000000400e-02 1.872690000000000188e-01 2.222120499999999943e+00 4.904740000000000322e+01 2.183654999999999745e+03
6.800000000000000488e-02 1.873974999999999946e-01 3.791675000000000129e+00 5.318229999999999791e+01 2.184605000000000018e+03
6.900000000000000577e-02 1.875410000000000132e-01 5.501034999999999897e+00 5.761199999999999477e+01 2.185664999999999964e+03
7.000000000000000666e-02 1.876939999999999997e-01 7.302434999999999121e+00 6.221159999999999712e+01 2.186809999999999945e+03
7.100000000000000755e-02 1.878529999999999922e-01 9.149969999999999715e+00 6.686560000000000059e+01 2.188000000000000000e+03
7.200000000000000844e-02 1.880139999999999867e-01 1.100207499999999960e+01 7.147495000000000687e+01 2.189219999999999800e+03
7.300000000000000933e-02 1.881744999999999945e-01 1.282376000000000005e+01 7.596285000000000309e+01 2.190430000000000291e+03
7.399999999999999634e-02 1.883314999999999850e-01 1.458800000000000097e+01 8.027750000000000341e+01 2.191625000000000000e+03
7.499999999999999722e-02 1.884844999999999993e-01 1.627619999999999933e+01 8.439320000000000732e+01 2.192784999999999854e+03
7.599999999999999811e-02 1.886315000000000075e-01 1.787800000000000011e+01 8.830814999999999770e+01 2.193909999999999854e+03
7.699999999999999900e-02 1.887725000000000097e-01 1.939034999999999798e+01 9.204014999999999702e+01 2.194984999999999673e+03
7.799999999999999989e-02 1.889085000000000070e-01 2.081555000000000177e+01 9.562039999999998940e+01 2.196029999999999745e+03
7.900000000000000078e-02 1.890405000000000002e-01 2.215975000000000250e+01 9.908769999999999811e+01 2.197039999999999964e+03
8.000000000000000167e-02 1.891685000000000172e-01 2.343099999999999739e+01 1.024806999999999988e+02 2.198024999999999636e+03
8.100000000000000255e-02 1.892949999999999910e-01 2.463730000000000331e+01 1.058329999999999984e+02 2.199000000000000000e+03
8.200000000000000344e-02 1.894200000000000050e-01 2.578565000000000040e+01 1.091694999999999993e+02 2.199965000000000146e+03
8.300000000000000433e-02 1.895445000000000046e-01 2.688109999999999999e+01 1.125045000000000073e+02 2.200920000000000073e+03
8.400000000000000522e-02 1.896685000000000176e-01 2.792640000000000100e+01 1.158404999999999916e+02 2.201875000000000000e+03
8.500000000000000611e-02 1.897929999999999895e-01 2.892194999999999894e+01 1.191705000000000041e+02 2.202824999999999818e+03
8.600000000000000699e-02 1.899160000000000015e-01 2.986589999999999989e+01 1.224789999999999992e+02 2.203780000000000200e+03
8.700000000000000788e-02 1.900379999999999847e-01 3.075460000000000349e+01 1.257425000000000068e+02 2.204720000000000255e+03
8.800000000000000877e-02 1.901579999999999937e-01 3.158269999999999911e+01 1.289359999999999786e+02 2.205644999999999982e+03
8.899999999999999578e-02 1.902754999999999863e-01 3.234364999999999668e+01 1.320294999999999845e+02 2.206555000000000291e+03
8.999999999999999667e-02 1.903885000000000161e-01 3.302984999999999616e+01 1.349919999999999902e+02 2.207430000000000291e+03
9.099999999999999756e-02 1.904974999999999863e-01 3.363320000000000221e+01 1.377939999999999827e+02 2.208269999999999982e+03
9.199999999999999845e-02 1.905999999999999917e-01 3.414509999999999934e+01 1.404044999999999845e+02 2.209065000000000055e+03
9.299999999999999933e-02 1.906960000000000044e-01 3.455705000000000382e+01 1.427955000000000041e+02 2.209809999999999945e+03
9.400000000000000022e-02 1.907834999999999948e-01 3.486115000000000208e+01 1.449399999999999977e+02 2.210489999999999782e+03
9.500000000000000111e-02 1.908620000000000039e-01 3.505055000000000121e+01 1.468164999999999907e+02 2.211105000000000018e+03
9.600000000000000200e-02 1.909310000000000174e-01 3.512024999999999864e+01 1.484074999999999989e+02 2.211644999999999982e+03
9.700000000000000289e-02 1.909899999999999931e-01 3.506735000000000468e+01 1.497019999999999982e+02 2.212114999999999782e+03
9.800000000000000377e-02 1.910385000000000000e-01 3.489195000000000135e+01 1.506980000000000075e+02 2.212494999999999891e+03
9.900000000000000466e-02 1.910769999999999968e-01 3.459699999999999420e+01 1.513994999999999891e+02 2.212800000000000182e+03
1.000000000000000056e-01 1.911039999999999961e-01 3.418854999999999933e+01 1.518209999999999980e+02 2.213025000000000091e+03
1.010000000000000064e-01 1.911225000000000007e-01 3.367584999999999695e+01 1.519844999999999970e+02 2.213175000000000182e+03
1.020000000000000073e-01 1.911309999999999953e-01 3.307059999999999889e+01 1.519180000000000064e+02 2.213255000000000109e+03
1.030000000000000082e-01 1.911324999999999830e-01 3.238669999999999760e+01 1.516564999999999941e+02 2.213275000000000091e+03
1.040000000000000091e-01 1.911265000000000047e-01 3.163935000000000031e+01 1.512359999999999900e+02 2.213235000000000127e+03
1.050000000000000100e-01 1.911154999999999937e-01 3.084459999999999980e+01 1.506955000000000098e+02 2.213154999999999745e+03
1.059999999999999970e-01 1.910995000000000055e-01 3.001845000000000141e+01 1.500729999999999791e+02 2.213039999999999964e+03
1.069999999999999979e-01 1.910810000000000008e-01 2.917620000000000147e+01 1.494035000000000082e+02 2.212900000000000091e+03
1.079999999999999988e-01 1.910600000000000076e-01 2.833214999999999861e+01 1.487180000000000177e+02 2.212744999999999891e+03
1.089999999999999997e-01 1.910385000000000000e-01 2.749859999999999971e+01 1.480439999999999827e+02 2.212574999999999818e+03
1.100000000000000006e-01 1.910175000000000067e-01 2.668594999999999828e+01 1.474010000000000105e+02 2.212414999999999964e+03
1.110000000000000014e-01 1.909965000000000135e-01 2.590200000000000102e+01 1.468034999999999854e+02 2.212255000000000109e+03
1.120000000000000023e-01 1.909764999999999935e-01 2.515210000000000079e+01 1.462590000000000146e+02 2.212099999999999909e+03
1.130000000000000032e-01 1.909579999999999889e-01 2.443880000000000052e+01 1.457690000000000055e+02 2.211954999999999927e+03
1.140000000000000041e-01 1.909414999999999862e-01 2.376200000000000045e+01 1.453274999999999864e+02 2.211824999999999818e+03
1.150000000000000050e-01 1.909259999999999846e-01 2.311909999999999954e+01 1.449234999999999900e+02 2.211699999999999818e+03
1.160000000000000059e-01 1.909115000000000117e-01 2.250534999999999997e+01 1.445414999999999850e+02 2.211579999999999927e+03
1.170000000000000068e-01 1.908964999999999967e-01 2.191404999999999959e+01 1.441610000000000014e+02 2.211470000000000255e+03
1.180000000000000077e-01 1.908819999999999961e-01 2.133729999999999905e+01 1.437605000000000075e+02 2.211355000000000018e+03
1.190000000000000085e-01 1.908664999999999945e-01 2.076644999999999897e+01 1.433160000000000025e+02 2.211235000000000127e+03
1.200000000000000094e-01 1.908495000000000053e-01 2.019265000000000043e+01 1.428050000000000068e+02 2.211095000000000255e+03
1.209999999999999964e-01 1.908294999999999852e-01 1.960735000000000028e+01 1.422069999999999936e+02 2.210939999999999600e+03
1.219999999999999973e-01 1.908060000000000034e-01 1.900319999999999965e+01 1.415049999999999955e+02 2.210764999999999873e+03
1.229999999999999982e-01 1.907789999999999764e-01 1.837424999999999997e+01 1.406854999999999905e+02 2.210555000000000291e+03
1.239999999999999991e-01 1.907484999999999875e-01 1.771649999999999991e+01 1.397415000000000020e+02 2.210324999999999818e+03
1.250000000000000000e-01 1.907134999999999803e-01 1.702795000000000059e+01 1.386725000000000136e+02 2.210054999999999836e+03
1.260000000000000009e-01 1.906745000000000245e-01 1.630930000000000035e+01 1.374830000000000041e+02 2.209760000000000218e+03
1.270000000000000018e-01 1.906309999999999949e-01 1.556364999999999910e+01 1.361864999999999952e+02 2.209425000000000182e+03
1.280000000000000027e-01 1.905839999999999756e-01 1.479635000000000034e+01 1.347994999999999948e+02 2.209069999999999709e+03
1.290000000000000036e-01 1.905344999999999955e-01 1.401495000000000068e+01 1.333460000000000036e+02 2.208685000000000400e+03
1.300000000000000044e-01 1.904824999999999990e-01 1.322869999999999990e+01 1.318530000000000086e+02 2.208289999999999964e+03
1.310000000000000053e-01 1.904294999999999738e-01 1.244819999999999993e+01 1.303499999999999943e+02 2.207885000000000218e+03
1.320000000000000062e-01 1.903765000000000041e-01 1.168469499999999961e+01 1.288684999999999832e+02 2.207475000000000364e+03
1.330000000000000071e-01 1.903239999999999932e-01 1.094943500000000114e+01 1.274389999999999930e+02 2.207074999999999818e+03
1.340000000000000080e-01 1.902734999999999843e-01 1.025324499999999972e+01 1.260894999999999868e+02 2.206680000000000291e+03
1.350000000000000089e-01 1.902260000000000062e-01 9.605895000000000294e+00 1.248449999999999989e+02 2.206309999999999945e+03
1.360000000000000098e-01 1.901815000000000033e-01 9.015665000000000262e+00 1.237255000000000109e+02 2.205970000000000255e+03
1.370000000000000107e-01 1.901420000000000055e-01 8.488904999999999035e+00 1.227460000000000093e+02 2.205659999999999854e+03
1.380000000000000115e-01 1.901069999999999982e-01 8.030034999999999812e+00 1.219155000000000086e+02 2.205390000000000327e+03
1.390000000000000124e-01 1.900769999999999960e-01 7.641305000000000902e+00 1.212369999999999948e+02 2.205154999999999745e+03
1.400000000000000133e-01 1.900519999999999987e-01 7.322905000000000442e+00 1.207094999999999914e+02 2.204954999999999927e+03
1.410000000000000142e-01 1.900324999999999931e-01 7.073109999999999786e+00 1.203255000000000052e+02 2.204800000000000182e+03
1.420000000000000151e-01 1.900175000000000058e-01 6.888490000000000002e+00 1.200750000000000028e+02 2.204680000000000291e+03
1.430000000000000160e-01 1.900074999999999958e-01 6.764219999999999899e+00 1.199439999999999884e+02 2.204595000000000255e+03
1.440000000000000169e-01 1.900014999999999898e-01 6.694340000000000401e+00 1.199174999999999898e+02 2.204545000000000073e+03
1.450000000000000178e-01 1.899985000000000146e-01 6.672090000000000742e+00 1.199790000000000134e+02 2.204515000000000327e+03
1.459999999999999909e-01 1.899990000000000012e-01 6.690170000000000172e+00 1.201109999999999900e+02 2.204519999999999982e+03
1.469999999999999918e-01 1.900025000000000186e-01 6.741035000000000110e+00 1.202959999999999923e+02 2.204534999999999854e+03
1.479999999999999927e-01 1.900069999999999815e-01 6.817145000000000010e+00 1.205184999999999889e+02 2.204565000000000055e+03
1.489999999999999936e-01 1.900135000000000018e-01 6.911184999999999690e+00 1.207620000000000005e+02 2.204614999999999782e+03
1.499999999999999944e-01 1.900204999999999811e-01 7.016255000000000130e+00 1.210139999999999958e+02 2.204664999999999964e+03
1.509999999999999953e-01 1.900280000000000025e-01 7.126079999999999970e+00 1.212620000000000005e+02 2.204724999999999909e+03
1.519999999999999962e-01 1.900360000000000105e-01 7.235110000000000596e+00 1.214954999999999927e+02 2.204779999999999745e+03
1.529999999999999971e-01 1.900429999999999897e-01 7.338694999999999524e+00 1.217069999999999936e+02 2.204835000000000036e+03
1.539999999999999980e-01 1.900494999999999823e-01 7.433135000000000048e+00 1.218905000000000030e+02 2.204885000000000218e+03
1.549999999999999989e-01 1.900554999999999883e-01 7.515735000000000277e+00 1.220434999999999945e+02 2.204930000000000291e+03
1.559999999999999998e-01 1.900605000000000211e-01 7.584799999999999542e+00 1.221630000000000109e+02 2.204970000000000255e+03
1.570000000000000007e-01 1.900645000000000251e-01 7.639599999999999724e+00 1.222510000000000048e+02 2.205000000000000000e+03
1.580000000000000016e-01 1.900675000000000003e-01 7.680274999999999963e+00 1.223100000000000023e+02 2.205024999999999636e+03
1.590000000000000024e-01 1.900700000000000167e-01 7.707684999999999675e+00 1.223439999999999941e+02 2.205045000000000073e+03
