# t [s], A [cm^2], U [cm/s], P [cPa], c [cm/s]
1.000000000000000021e-03 7.621409999999999574e-01 4.897100000000001452e-03 1.038944999999999936e+02 1.603545000000000073e+03
2.000000000000000042e-03 7.621294999999999042e-01 -1.202434999999999962e-03 1.038700000000000045e+02 1.603539999999999964e+03
3.000000000000000062e-03 7.621904999999999930e-01 8.621634999999999716e-02 1.039639999999999986e+02 1.603565000000000055e+03
4.000000000000000083e-03 7.622499999999999831e-01 1.790312500000000029e-01 1.040819999999999936e+02 1.603585000000000036e+03
5.000000000000000104e-03 7.622275000000000578e-01 1.631884500000000127e-01 1.040444999999999993e+02 1.603585000000000036e+03
6.000000000000000125e-03 7.621554999999999858e-01 7.460500000000003240e-02 1.038529999999999944e+02 1.603549999999999955e+03
7.000000000000000146e-03 7.620915000000000328e-01 -9.898500000000032273e-03 1.036009999999999991e+02 1.603500000000000000e+03
8.000000000000000167e-03 7.619979999999999531e-01 -1.470650000000000013e-01 1.032385000000000019e+02 1.603429999999999836e+03
9.000000000000001055e-03 7.618365000000000276e-01 -3.979449999999999932e-01 1.026754999999999995e+02 1.603319999999999936e+03
1.000000000000000194e-02 7.616000000000000547e-01 -7.712149999999998728e-01 1.018628999999999962e+02 1.603164999999999964e+03
1.099999999999999936e-02 7.612715000000001009e-01 -1.281960000000000210e+00 1.007456999999999994e+02 1.602940000000000055e+03
1.200000000000000025e-02 7.608360000000000678e-01 -1.935340000000000060e+00 9.927309999999999945e+01 1.602644999999999982e+03
1.300000000000000114e-02 7.603204999999999547e-01 -2.671860000000000124e+00 9.747845000000000937e+01 1.602279999999999973e+03
1.400000000000000203e-02 7.597890000000000477e-01 -3.366829999999999767e+00 9.550130000000000052e+01 1.601860000000000127e+03
1.499999999999999944e-02 7.593099999999999294e-01 -3.886385499999999826e+00 9.353135000000000332e+01 1.601429999999999836e+03
1.600000000000000033e-02 7.589215000000000266e-01 -4.144690500000000277e+00 9.172475000000000023e+01 1.601014999999999873e+03
1.700000000000000122e-02 7.586199999999999610e-01 -4.126337499999999991e+00 9.015545000000000186e+01 1.600630000000000109e+03
1.800000000000000211e-02 7.583735000000000337e-01 -3.875357500000000233e+00 8.880744999999998868e+01 1.600280000000000200e+03
1.900000000000000300e-02 7.581379999999999786e-01 -3.467275499999999955e+00 8.760105000000000075e+01 1.599950000000000045e+03
2.000000000000000042e-02 7.578740000000000476e-01 -2.978543349999999812e+00 8.643260000000000787e+01 1.599634999999999991e+03
2.100000000000000130e-02 7.575590000000000934e-01 -2.462559500000000234e+00 8.521430000000000859e+01 1.599304999999999836e+03
2.200000000000000219e-02 7.571935000000000748e-01 -1.938500000000000112e+00 8.390165000000000362e+01 1.598964999999999918e+03
2.299999999999999961e-02 7.567945000000000366e-01 -1.395425000000000137e+00 8.249925000000000352e+01 1.598595000000000027e+03
2.400000000000000050e-02 7.563854999999999329e-01 -8.086500000000000909e-01 8.104675000000000296e+01 1.598224999999999909e+03
2.500000000000000139e-02 7.559845000000000592e-01 -1.601850000000002439e-01 7.959180000000000632e+01 1.597849999999999909e+03
2.600000000000000228e-02 7.555969999999999631e-01 5.454699999999998994e-01 7.816344999999999743e+01 1.597480000000000018e+03
2.700000000000000316e-02 7.552119999999999944e-01 1.275164999999999882e+00 7.675489999999999213e+01 1.597109999999999900e+03
2.800000000000000058e-02 7.548060000000000880e-01 1.970955000000000013e+00 7.531999999999999318e+01 1.596734999999999900e+03
2.900000000000000147e-02 7.543474999999999486e-01 2.561454999999999593e+00 7.378305000000000291e+01 1.596340000000000146e+03
3.000000000000000236e-02 7.538100000000000911e-01 2.977339999999999876e+00 7.205710000000000548e+01 1.595914999999999964e+03
3.099999999999999978e-02 7.531754999999999978e-01 3.166735000000000078e+00 7.006770000000000209e+01 1.595440000000000055e+03
3.200000000000000067e-02 7.524395000000000389e-01 3.107079999999999842e+00 6.777405000000000257e+01 1.594904999999999973e+03
3.300000000000000155e-02 7.516184999999999672e-01 2.809925000000000228e+00 6.518359999999999843e+01 1.594309999999999945e+03
3.400000000000000244e-02 7.507410000000001027e-01 2.317919999999999980e+00 6.235475000000000279e+01 1.593664999999999964e+03
3.500000000000000333e-02 7.498454999999999426e-01 1.695139999999999425e+00 5.938830000000000098e+01 1.592990000000000009e+03
3.600000000000000422e-02 7.489744999999999875e-01 1.014654999999999418e+00 5.641145000000000209e+01 1.592305000000000064e+03
3.700000000000000511e-02 7.481649999999999689e-01 3.460749999999999105e-01 5.355819999999999936e+01 1.591634999999999991e+03
3.799999999999999906e-02 7.474480000000000013e-01 -2.526300000000003543e-01 5.095215000000000316e+01 1.591014999999999873e+03
3.899999999999999994e-02 7.468440000000000634e-01 -7.395599999999999952e-01 4.869429999999999836e+01 1.590460000000000036e+03
4.000000000000000083e-02 7.463655000000000150e-01 -1.088909999999999823e+00 4.685635000000000616e+01 1.589990000000000009e+03
4.100000000000000172e-02 7.460160000000000124e-01 -1.288145000000000095e+00 4.548080000000000211e+01 1.589619999999999891e+03
4.200000000000000261e-02 7.457949999999999857e-01 -1.333574999999999733e+00 4.458435000000000059e+01 1.589349999999999909e+03
4.300000000000000350e-02 7.456990000000000007e-01 -1.225786700000000007e+00 4.416479999999999961e+01 1.589190000000000055e+03
4.400000000000000439e-02 7.457234999999999836e-01 -9.660754999999999759e-01 4.420789999999999509e+01 1.589134999999999991e+03
4.499999999999999833e-02 7.458624999999999838e-01 -5.544950000000000712e-01 4.469324999999999903e+01 1.589184999999999945e+03
4.599999999999999922e-02 7.461134999999999851e-01 1.015999999999994685e-02 4.559834999999999638e+01 1.589335000000000036e+03
4.700000000000000011e-02 7.464705000000000368e-01 7.289199999999997903e-01 4.689934999999999832e+01 1.589574999999999818e+03
4.800000000000000100e-02 7.469284999999999952e-01 1.600339999999999874e+00 4.857054999999999723e+01 1.589914999999999964e+03
4.900000000000000189e-02 7.474795000000000744e-01 2.618275000000000130e+00 5.058239999999999981e+01 1.590329999999999927e+03
5.000000000000000278e-02 7.481130000000000280e-01 3.770364999999999966e+00 5.289910000000000423e+01 1.590820000000000164e+03
5.100000000000000366e-02 7.488160000000000371e-01 5.037580000000000169e+00 5.547794999999999277e+01 1.591380000000000109e+03
5.200000000000000455e-02 7.495730000000000448e-01 6.395025000000000404e+00 5.826879999999999882e+01 1.591990000000000009e+03
5.300000000000000544e-02 7.503679999999999239e-01 7.813308000000000142e+00 6.121614999999999895e+01 1.592650000000000091e+03
5.399999999999999939e-02 7.511829999999999341e-01 9.261105000000000587e+00 6.426144999999999641e+01 1.593340000000000146e+03
5.500000000000000028e-02 7.520035000000000469e-01 1.070744000000000007e+01 6.734650000000000603e+01 1.594045000000000073e+03
5.600000000000000117e-02 7.528135000000000243e-01 1.212370999999999910e+01 7.041700000000000159e+01 1.594759999999999991e+03
5.700000000000000205e-02 7.536030000000000229e-01 1.348554999999999993e+01 7.342539999999999623e+01 1.595470000000000027e+03
5.800000000000000294e-02 7.543619999999999770e-01 1.477385500000000107e+01 7.633359999999998990e+01 1.596170000000000073e+03
5.900000000000000383e-02 7.550859999999999239e-01 1.597514999999999930e+01 7.911419999999999675e+01 1.596840000000000146e+03
6.000000000000000472e-02 7.557719999999999994e-01 1.708160000000000167e+01 8.175079999999999814e+01 1.597485000000000127e+03
6.099999999999999867e-02 7.564210000000000100e-01 1.809045000000000059e+01 8.423765000000000214e+01 1.598110000000000127e+03
6.199999999999999956e-02 7.570349999999999024e-01 1.900309999999999988e+01 8.657824999999999704e+01 1.598695000000000164e+03
6.300000000000000044e-02 7.576175000000000548e-01 1.982404999999999973e+01 8.878364999999999441e+01 1.599255000000000109e+03
6.400000000000000133e-02 7.581744999999999735e-01 2.056044999999999945e+01 9.087035000000000196e+01 1.599784999999999854e+03
6.500000000000000222e-02 7.587099999999999955e-01 2.122059999999999746e+01 9.285829999999999984e+01 1.600295000000000073e+03
6.600000000000000311e-02 7.592309999999999892e-01 2.181340000000000146e+01 9.476865000000000805e+01 1.600785000000000082e+03
6.700000000000000400e-02 7.597415000000000695e-01 2.234765000000000157e+01 9.662184999999999491e+01 1.601259999999999991e+03
6.800000000000000488e-02 7.602455000000000185e-01 2.283115000000000094e+01 9.843610000000001037e+01 1.601720000000000027e+03
6.900000000000000577e-02 7.607459999999999223e-01 2.327015000000000100e+01 1.002245000000000061e+02 1.602184999999999945e+03
7.000000000000000666e-02 7.612449999999999495e-01 2.366910000000000025e+01 1.019971500000000049e+02 1.602630000000000109e+03
7.100000000000000755e-02 7.617419999999999192e-01 2.403030000000000044e+01 1.037570000000000050e+02 1.603079999999999927e+03
7.200000000000000844e-02 7.622345000000000370e-01 2.435399999999999920e+01 1.055014999999999930e+02 1.603519999999999982e+03
7.300000000000000933e-02 7.627204999999999124e-01 2.463819999999999766e+01 1.072224999999999966e+02 1.603954999999999927e+03
7.399999999999999634e-02 7.631955000000000267e-01 2.487939999999999685e+01 1.089064999999999941e+02 1.604380000000000109e+03
7.499999999999999722e-02 7.636545000000000138e-01 2.507289999999999708e+01 1.105384999999999991e+02 1.604795000000000073e+03
7.599999999999999811e-02 7.640919999999999934e-01 2.521325000000000216e+01 1.120990000000000038e+02 1.605195000000000164e+03
7.699999999999999900e-02 7.645024999999999737e-01 2.529489999999999839e+01 1.135674999999999955e+02 1.605570000000000164e+03
7.799999999999999989e-02 7.648814999999999920e-01 2.531280000000000285e+01 1.149244999999999948e+02 1.605930000000000064e+03
7.900000000000000078e-02 7.652229999999999865e-01 2.526225000000000165e+01 1.161520000000000010e+02 1.606250000000000000e+03
8.000000000000000167e-02 7.655244999999999411e-01 2.514005000000000223e+01 1.172344999999999970e+02 1.606545000000000073e+03
8.100000000000000255e-02 7.657819999999999627e-01 2.494399999999999906e+01 1.181589999999999918e+02 1.606799999999999955e+03
8.200000000000000344e-02 7.659940000000000637e-01 2.467329999999999757e+01 1.189165000000000134e+02 1.607019999999999982e+03
8.300000000000000433e-02 7.661590000000000344e-01 2.432890000000000086e+01 1.195020000000000095e+02 1.607195000000000164e+03
8.400000000000000522e-02 7.662780000000000147e-01 2.391310000000000002e+01 1.199139999999999873e+02 1.607329999999999927e+03
8.500000000000000611e-02 7.663510000000000044e-01 2.342974999999999852e+01 1.201560000000000059e+02 1.607424999999999955e+03
8.600000000000000699e-02 7.663804999999999090e-01 2.288414999999999822e+01 1.202349999999999994e+02 1.607480000000000018e+03
8.700000000000000788e-02 7.663699999999999957e-01 2.228300000000000125e+01 1.201610000000000014e+02 1.607494999999999891e+03
8.800000000000000877e-02 7.663219999999999477e-01 2.163429999999999964e+01 1.199465000000000003e+02 1.607474999999999909e+03
8.899999999999999578e-02 7.662419999999999787e-01 2.094689999999999941e+01 1.196084999999999923e+02 1.607424999999999955e+03
8.999999999999999667e-02 7.661344999999999406e-01 2.023045000000000115e+01 1.191645000000000039e+02 1.607345000000000027e+03
9.099999999999999756e-02 7.660050000000000470e-01 1.949524999999999864e+01 1.186340000000000003e+02 1.607240000000000009e+03
9.199999999999999845e-02 7.658580000000000387e-01 1.875140000000000029e+01 1.180380000000000109e+02 1.607115000000000009e+03
9.299999999999999933e-02 7.657000000000000473e-01 1.800904999999999845e+01 1.173960000000000008e+02 1.606980000000000018e+03
9.400000000000000022e-02 7.655354999999999244e-01 1.727754999999999797e+01 1.167274999999999920e+02 1.606829999999999927e+03
9.500000000000000111e-02 7.653695000000000359e-01 1.656514999999999915e+01 1.160504999999999995e+02 1.606674999999999955e+03
9.600000000000000200e-02 7.652050000000000241e-01 1.587890000000000157e+01 1.153820000000000050e+02 1.606519999999999982e+03
9.700000000000000289e-02 7.650460000000000038e-01 1.522409999999999997e+01 1.147334999999999923e+02 1.606369999999999891e+03
9.800000000000000377e-02 7.648945000000000327e-01 1.460435000000000016e+01 1.141159999999999997e+02 1.606215000000000146e+03
9.900000000000000466e-02 7.647519999999999873e-01 1.402139999999999986e+01 1.135364999999999895e+02 1.606070000000000164e+03
1.000000000000000056e-01 7.646180000000000199e-01 1.347499499999999983e+01 1.129964999999999975e+02 1.605934999999999945e+03
1.010000000000000064e-01 7.644934999999999370e-01 1.296332500000000110e+01 1.124969999999999999e+02 1.605805000000000064e+03
1.020000000000000073e-01 7.643759999999999444e-01 1.248296999999999990e+01 1.120354999999999990e+02 1.605684999999999945e+03
1.030000000000000082e-01 7.642645000000000133e-01 1.202918999999999983e+01 1.116045000000000016e+02 1.605569999999999936e+03
1.040000000000000091e-01 7.641565000000000163e-01 1.159646000000000043e+01 1.111965000000000003e+02 1.605460000000000036e+03
1.050000000000000100e-01 7.640495000000000481e-01 1.117841999999999913e+01 1.108029999999999973e+02 1.605355000000000018e+03
1.059999999999999970e-01 7.639404999999999113e-01 1.076869500000000102e+01 1.104139999999999873e+02 1.605255000000000109e+03
1.069999999999999979e-01 7.638279999999999514e-01 1.036075999999999908e+01 1.100184999999999889e+02 1.605154999999999973e+03
1.079999999999999988e-01 7.637089999999999712e-01 9.948565000000000325e+00 1.096069999999999993e+02 1.605049999999999955e+03
1.089999999999999997e-01 7.635815000000000241e-01 9.526769999999999072e+00 1.091724999999999994e+02 1.604940000000000055e+03
1.100000000000000006e-01 7.634440000000000115e-01 9.090965000000000629e+00 1.087059999999999889e+02 1.604825000000000045e+03
1.110000000000000014e-01 7.632959999999999745e-01 8.637850000000000250e+00 1.082044999999999959e+02 1.604704999999999927e+03
1.120000000000000023e-01 7.631369999999999543e-01 8.165369999999999351e+00 1.076645000000000039e+02 1.604575000000000045e+03
1.130000000000000032e-01 7.629679999999999795e-01 7.673025000000000873e+00 1.070865000000000009e+02 1.604434999999999945e+03
1.140000000000000041e-01 7.627889999999999393e-01 7.161590000000000344e+00 1.064724999999999966e+02 1.604289999999999964e+03
1.150000000000000050e-01 7.626030000000000308e-01 6.633354999999999890e+00 1.058284999999999911e+02 1.604139999999999873e+03
1.160000000000000059e-01 7.624109999999999498e-01 6.091924999999999812e+00 1.051615000000000038e+02 1.603985000000000127e+03
1.170000000000000068e-01 7.622180000000000621e-01 5.542080000000000339e+00 1.044809999999999945e+02 1.603825000000000045e+03
1.180000000000000077e-01 7.620255000000000223e-01 4.989584999999999937e+00 1.037986500000000092e+02 1.603659999999999854e+03
1.190000000000000085e-01 7.618374999999999453e-01 4.440954999999999764e+00 1.031269000000000062e+02 1.603494999999999891e+03
1.200000000000000094e-01 7.616585000000000161e-01 3.903164999999999996e+00 1.024783999999999935e+02 1.603340000000000146e+03
1.209999999999999964e-01 7.614914999999999878e-01 3.383359999999999701e+00 1.018671500000000094e+02 1.603190000000000055e+03
1.219999999999999973e-01 7.613404999999999756e-01 2.888535999999999770e+00 1.013060000000000116e+02 1.603055000000000064e+03
1.229999999999999982e-01 7.612075000000000369e-01 2.425244999999999873e+00 1.008069500000000005e+02 1.602929999999999836e+03
1.239999999999999991e-01 7.610959999999999948e-01 1.999316500000000163e+00 1.003803499999999929e+02 1.602815000000000055e+03
1.250000000000000000e-01 7.610075000000000589e-01 1.615605500000000028e+00 1.000339999999999918e+02 1.602724999999999909e+03
1.260000000000000009e-01 7.609434999999999949e-01 1.277814000000000005e+00 9.977495000000000402e+01 1.602650000000000091e+03
1.270000000000000018e-01 7.609055000000000124e-01 9.883199999999999763e-01 9.960634999999999195e+01 1.602595000000000027e+03
1.280000000000000027e-01 7.608915000000000539e-01 7.481520000000000392e-01 9.952895000000000891e+01 1.602559999999999945e+03
1.290000000000000036e-01 7.609019999999999673e-01 5.569399999999999906e-01 9.954040000000000532e+01 1.602549999999999955e+03
1.300000000000000044e-01 7.609354999999999869e-01 4.130105000000000026e-01 9.963609999999999900e+01 1.602555000000000064e+03
1.310000000000000053e-01 7.609879999999999978e-01 3.134885000000000033e-01 9.980930000000000746e+01 1.602585000000000036e+03
1.320000000000000062e-01 7.610594999999999999e-01 2.544715000000000171e-01 1.000509999999999877e+02 1.602625000000000000e+03
1.330000000000000071e-01 7.611449999999999605e-01 2.312319999999999376e-01 1.003504999999999967e+02 1.602684999999999945e+03
1.340000000000000080e-01 7.612419999999999742e-01 2.384414999999999729e-01 1.006959999999999980e+02 1.602750000000000000e+03
1.350000000000000089e-01 7.613469999999999960e-01 2.704070000000000085e-01 1.010765000000000100e+02 1.602829999999999927e+03
1.360000000000000098e-01 7.614570000000000505e-01 3.212889999999999913e-01 1.014784999999999968e+02 1.602920000000000073e+03
1.370000000000000107e-01 7.615680000000000227e-01 3.853119999999999878e-01 1.018905000000000030e+02 1.603010000000000218e+03
1.380000000000000115e-01 7.616785000000000361e-01 4.569615000000000204e-01 1.023010000000000019e+02 1.603105000000000018e+03
1.390000000000000124e-01 7.617849999999999344e-01 5.311240000000000405e-01 1.027005000000000052e+02 1.603194999999999936e+03
1.400000000000000133e-01 7.618849999999999234e-01 6.032129999999999992e-01 1.030800000000000125e+02 1.603285000000000082e+03
1.410000000000000142e-01 7.619780000000000442e-01 6.692759999999999820e-01 1.034320000000000022e+02 1.603365000000000009e+03
1.420000000000000151e-01 7.620610000000000994e-01 7.260219999999999452e-01 1.037504999999999882e+02 1.603444999999999936e+03
1.430000000000000160e-01 7.621344999999999370e-01 7.708799499999999805e-01 1.040314999999999941e+02 1.603514999999999873e+03
1.440000000000000169e-01 7.621974999999999723e-01 8.019819999999999727e-01 1.042724999999999937e+02 1.603574999999999818e+03
1.450000000000000178e-01 7.622489999999999544e-01 8.181620000000000559e-01 1.044714999999999918e+02 1.603634999999999991e+03
1.459999999999999909e-01 7.622895000000000643e-01 8.189035000000000064e-01 1.046295000000000073e+02 1.603674999999999955e+03
1.469999999999999918e-01 7.623204999999999565e-01 8.042774999999999785e-01 1.047469999999999999e+02 1.603710000000000036e+03
1.479999999999999927e-01 7.623415000000000052e-01 7.749000000000000332e-01 1.048259999999999934e+02 1.603740000000000009e+03
1.489999999999999936e-01 7.623535000000000172e-01 7.318199999999999150e-01 1.048700000000000045e+02 1.603755000000000109e+03
1.499999999999999944e-01 7.623575000000000212e-01 6.764559999999999462e-01 1.048815000000000026e+02 1.603759999999999991e+03
1.509999999999999953e-01 7.623539999999999761e-01 6.104950000000000099e-01 1.048644999999999925e+02 1.603769999999999982e+03
1.519999999999999962e-01 7.623450000000000504e-01 5.357974999999999266e-01 1.048224999999999909e+02 1.603764999999999873e+03
1.529999999999999971e-01 7.623305000000000220e-01 4.543065000000000020e-01 1.047595000000000027e+02 1.603755000000000109e+03
1.539999999999999980e-01 7.623115000000000308e-01 3.679606999999999739e-01 1.046800000000000068e+02 1.603740000000000009e+03
1.549999999999999989e-01 7.622895000000000643e-01 2.786118499999999942e-01 1.045850000000000080e+02 1.603720000000000027e+03
1.559999999999999998e-01 7.622649999999999704e-01 1.879559999999999842e-01 1.044789999999999992e+02 1.603704999999999927e+03
1.570000000000000007e-01 7.622375000000000123e-01 9.747799999999998133e-02 1.043635000000000019e+02 1.603674999999999955e+03
1.580000000000000016e-01 7.622089999999999144e-01 8.409500000000014186e-03 1.042400000000000091e+02 1.603650000000000091e+03
1.590000000000000024e-01 7.621780000000000221e-01 -7.829349999999998810e-02 1.041100000000000136e+02 1.603619999999999891e+03
