# t [s], A [cm^2], U [cm/s], P [cPa], c [cm/s]
1.000000000000000021e-03 2.024444999999999995e-01 2.918999999999999928e-01 9.925825000000000387e+01 2.018750000000000000e+03
2.000000000000000042e-03 2.023979999999999946e-01 1.800513000000000030e+00 9.611050000000000182e+01 2.018444999999999936e+03
3.000000000000000062e-03 2.022579999999999933e-01 3.662401000000000018e+00 9.180410000000000537e+01 2.017575000000000045e+03
4.000000000000000083e-03 2.020600000000000174e-01 5.743932000000000038e+00 8.705020000000000380e+01 2.016365000000000009e+03
5.000000000000000104e-03 2.018415000000000070e-01 7.979379999999999917e+00 8.270314999999999372e+01 2.015039999999999964e+03
6.000000000000000125e-03 2.016275000000000150e-01 1.021660999999999930e+01 7.911250000000001137e+01 2.013759999999999991e+03
7.000000000000000146e-03 2.014259999999999939e-01 1.225372999999999912e+01 7.611265000000000214e+01 2.012565000000000055e+03
8.000000000000000167e-03 2.012400000000000022e-01 1.398467999999999911e+01 7.345689999999999031e+01 2.011485000000000127e+03
9.000000000000001055e-03 2.010740000000000027e-01 1.542704999999999949e+01 7.113909999999999911e+01 2.010539999999999964e+03
1.000000000000000194e-02 2.009325000000000139e-01 1.661874999999999858e+01 6.923805000000000121e+01 2.009744999999999891e+03
1.099999999999999936e-02 2.008165000000000089e-01 1.757740000000000080e+01 6.775175000000000125e+01 2.009095000000000027e+03
1.200000000000000025e-02 2.007234999999999991e-01 1.831555000000000177e+01 6.662385000000000446e+01 2.008585000000000036e+03
1.300000000000000114e-02 2.006505000000000094e-01 1.884110000000000085e+01 6.576994999999999436e+01 2.008190000000000055e+03
1.400000000000000203e-02 2.005930000000000213e-01 1.916150000000000020e+01 6.508455000000000723e+01 2.007884999999999991e+03
1.499999999999999944e-02 2.005470000000000030e-01 1.931530000000000058e+01 6.451650000000000773e+01 2.007650000000000091e+03
1.600000000000000033e-02 2.005135000000000112e-01 1.939594999999999914e+01 6.416774999999999807e+01 2.007485000000000127e+03
1.700000000000000122e-02 2.004994999999999972e-01 1.953240000000000265e+01 6.429155000000000086e+01 2.007420000000000073e+03
1.800000000000000211e-02 2.005139999999999978e-01 1.983214999999999861e+01 6.515840000000000032e+01 2.007509999999999991e+03
1.900000000000000300e-02 2.005609999999999893e-01 2.032889999999999731e+01 6.688300000000000978e+01 2.007784999999999854e+03
2.000000000000000042e-02 2.006404999999999994e-01 2.096524999999999750e+01 6.932404999999999973e+01 2.008235000000000127e+03
2.100000000000000130e-02 2.007415000000000171e-01 2.161710000000000065e+01 7.210960000000000036e+01 2.008815000000000055e+03
2.200000000000000219e-02 2.008504999999999874e-01 2.214124999999999943e+01 7.476035000000000252e+01 2.009440000000000055e+03
2.299999999999999961e-02 2.009499999999999897e-01 2.242459999999999809e+01 7.684579999999999700e+01 2.010019999999999982e+03
2.400000000000000050e-02 2.010280000000000122e-01 2.241599999999999682e+01 7.810974999999999113e+01 2.010485000000000127e+03
2.500000000000000139e-02 2.010790000000000077e-01 2.213260000000000005e+01 7.852289999999999281e+01 2.010795000000000073e+03
2.600000000000000228e-02 2.011024999999999896e-01 2.164290000000000092e+01 7.825495000000000800e+01 2.010950000000000045e+03
2.700000000000000316e-02 2.011050000000000060e-01 2.103515000000000157e+01 7.758574999999999022e+01 2.010980000000000018e+03
2.800000000000000058e-02 2.010939999999999950e-01 2.038534999999999897e+01 7.679585000000000150e+01 2.010930000000000064e+03
2.900000000000000147e-02 2.010780000000000067e-01 1.973564999999999969e+01 7.607789999999999964e+01 2.010840000000000146e+03
3.000000000000000236e-02 2.010605000000000031e-01 1.908910000000000196e+01 7.549495000000000289e+01 2.010744999999999891e+03
3.099999999999999978e-02 2.010429999999999995e-01 1.841929999999999978e+01 7.499134999999999707e+01 2.010644999999999982e+03
3.200000000000000067e-02 2.010230000000000072e-01 1.768909999999999982e+01 7.444344999999999857e+01 2.010529999999999973e+03
3.300000000000000155e-02 2.009974999999999956e-01 1.687190000000000012e+01 7.372739999999998872e+01 2.010389999999999873e+03
3.400000000000000244e-02 2.009635000000000171e-01 1.596760000000000090e+01 7.278049999999998931e+01 2.010204999999999927e+03
3.500000000000000333e-02 2.009214999999999751e-01 1.500980000000000025e+01 7.163884999999999081e+01 2.009970000000000027e+03
3.600000000000000422e-02 2.008749999999999980e-01 1.406194999999999951e+01 7.043959999999999866e+01 2.009710000000000036e+03
3.700000000000000511e-02 2.008290000000000075e-01 1.320350000000000001e+01 6.939009999999998968e+01 2.009449999999999818e+03
3.799999999999999906e-02 2.007924999999999849e-01 1.251135000000000019e+01 6.871354999999999791e+01 2.009235000000000127e+03
3.899999999999999994e-02 2.007720000000000060e-01 1.204074999999999918e+01 6.858879999999999200e+01 2.009110000000000127e+03
4.000000000000000083e-02 2.007729999999999793e-01 1.181250000000000000e+01 6.910155000000000314e+01 2.009105000000000018e+03
4.100000000000000172e-02 2.007975000000000176e-01 1.180809999999999960e+01 7.022020000000000550e+01 2.009230000000000018e+03
4.200000000000000261e-02 2.008429999999999938e-01 1.197384999999999877e+01 7.180079999999999529e+01 2.009480000000000018e+03
4.300000000000000350e-02 2.009050000000000002e-01 1.223170000000000002e+01 7.361570000000000391e+01 2.009820000000000164e+03
4.400000000000000439e-02 2.009730000000000127e-01 1.249339999999999939e+01 7.539744999999999209e+01 2.010200000000000045e+03
4.499999999999999833e-02 2.010385000000000089e-01 1.267435000000000045e+01 7.688559999999999661e+01 2.010575000000000045e+03
4.599999999999999922e-02 2.010925000000000074e-01 1.270489999999999853e+01 7.786610000000000298e+01 2.010880000000000109e+03
4.700000000000000011e-02 2.011270000000000002e-01 1.253715000000000046e+01 7.819689999999999941e+01 2.011079999999999927e+03
4.800000000000000100e-02 2.011364999999999958e-01 1.214695000000000036e+01 7.781719999999999970e+01 2.011144999999999982e+03
4.900000000000000189e-02 2.011200000000000210e-01 1.153190000000000026e+01 7.674155000000000371e+01 2.011059999999999945e+03
5.000000000000000278e-02 2.010759999999999770e-01 1.070691500000000040e+01 7.504339999999999122e+01 2.010819999999999936e+03
5.100000000000000366e-02 2.010080000000000200e-01 9.698574999999999946e+00 7.283330000000000837e+01 2.010440000000000055e+03
5.200000000000000455e-02 2.009184999999999999e-01 8.539715000000001055e+00 7.023760000000000048e+01 2.009934999999999945e+03
5.300000000000000544e-02 2.008119999999999905e-01 7.265674999999999883e+00 6.738159999999999172e+01 2.009335000000000036e+03
5.399999999999999939e-02 2.006944999999999979e-01 5.911920000000000286e+00 6.437964999999999804e+01 2.008664999999999964e+03
5.500000000000000028e-02 2.005684999999999829e-01 4.513304999999999900e+00 6.133089999999999975e+01 2.007950000000000045e+03
5.600000000000000117e-02 2.004380000000000051e-01 3.104519000000000251e+00 5.832160000000000366e+01 2.007215000000000146e+03
5.700000000000000205e-02 2.003085000000000004e-01 1.720829999999999860e+00 5.542889999999999873e+01 2.006474999999999909e+03
5.800000000000000294e-02 2.001824999999999855e-01 3.987099999999998978e-01 5.272655000000000314e+01 2.005755000000000109e+03
5.900000000000000383e-02 2.000640000000000196e-01 -8.240599999999999037e-01 5.028799999999999670e+01 2.005070000000000164e+03
6.000000000000000472e-02 1.999555000000000082e-01 -1.909081999999999946e+00 4.818805000000000405e+01 2.004444999999999936e+03
6.099999999999999867e-02 1.998610000000000109e-01 -2.818731000000000098e+00 4.650124999999999886e+01 2.003905000000000200e+03
6.199999999999999956e-02 1.997844999999999760e-01 -3.518125000000000391e+00 4.529795000000000016e+01 2.003454999999999927e+03
6.300000000000000044e-02 1.997280000000000166e-01 -3.977320000000000189e+00 4.463939999999999486e+01 2.003119999999999891e+03
6.400000000000000133e-02 1.996950000000000114e-01 -4.173435000000000450e+00 4.457160000000000366e+01 2.002914999999999964e+03
6.500000000000000222e-02 1.996870000000000034e-01 -4.092315000000000147e+00 4.512089999999999890e+01 2.002855000000000018e+03
6.600000000000000311e-02 1.997045000000000070e-01 -3.729619999999999713e+00 4.629050000000000153e+01 2.002940000000000055e+03
6.700000000000000400e-02 1.997490000000000099e-01 -3.091169999999999973e+00 4.805949999999999989e+01 2.003174999999999955e+03
6.800000000000000488e-02 1.998189999999999966e-01 -2.192522800000000327e+00 5.038360000000000127e+01 2.003550000000000182e+03
6.900000000000000577e-02 1.999124999999999930e-01 -1.057954999999999979e+00 5.319830000000000325e+01 2.004075000000000045e+03
7.000000000000000666e-02 2.000279999999999836e-01 2.810799999999999965e-01 5.642310000000000514e+01 2.004710000000000036e+03
7.100000000000000755e-02 2.001614999999999922e-01 1.787770000000000081e+00 5.996680000000000632e+01 2.005460000000000036e+03
7.200000000000000844e-02 2.003094999999999737e-01 3.422053000000000011e+00 6.373329999999999984e+01 2.006295000000000073e+03
7.300000000000000933e-02 2.004684999999999939e-01 5.142644999999999911e+00 6.762709999999999866e+01 2.007195000000000164e+03
7.399999999999999634e-02 2.006344999999999934e-01 6.909085000000000143e+00 7.155859999999999843e+01 2.008134999999999991e+03
7.499999999999999722e-02 2.008035000000000236e-01 8.683650000000000091e+00 7.544880000000000564e+01 2.009099999999999909e+03
7.599999999999999811e-02 2.009724999999999984e-01 1.043277499999999947e+01 7.923249999999998749e+01 2.010065000000000055e+03
7.699999999999999900e-02 2.011390000000000122e-01 1.212840500000000077e+01 8.286095000000000255e+01 2.011019999999999982e+03
7.799999999999999989e-02 2.013000000000000067e-01 1.374879999999999924e+01 8.630315000000000225e+01 2.011950000000000045e+03
7.900000000000000078e-02 2.014549999999999952e-01 1.527865000000000073e+01 8.954545000000000243e+01 2.012844999999999800e+03
8.000000000000000167e-02 2.016029999999999767e-01 1.670909999999999940e+01 9.259000000000000341e+01 2.013704999999999927e+03
8.100000000000000255e-02 2.017439999999999789e-01 1.803719999999999857e+01 9.545230000000000814e+01 2.014514999999999873e+03
8.200000000000000344e-02 2.018774999999999875e-01 1.926474999999999937e+01 9.815825000000000955e+01 2.015299999999999955e+03
8.300000000000000433e-02 2.020055000000000045e-01 2.039739999999999753e+01 1.007394500000000050e+02 2.016045000000000073e+03
8.400000000000000522e-02 2.021284999999999887e-01 2.144304999999999950e+01 1.032295499999999890e+02 2.016765000000000100e+03
8.500000000000000611e-02 2.022479999999999833e-01 2.241110000000000113e+01 1.056615000000000038e+02 2.017460000000000036e+03
8.600000000000000699e-02 2.023649999999999893e-01 2.331069999999999709e+01 1.080630000000000024e+02 2.018144999999999982e+03
8.700000000000000788e-02 2.024799999999999933e-01 2.415030000000000143e+01 1.104555000000000007e+02 2.018820000000000164e+03
8.800000000000000877e-02 2.025950000000000251e-01 2.493684999999999974e+01 1.128529999999999944e+02 2.019490000000000009e+03
8.899999999999999578e-02 2.027094999999999869e-01 2.567504999999999882e+01 1.152605000000000075e+02 2.020159999999999854e+03
8.999999999999999667e-02 2.028240000000000043e-01 2.636739999999999995e+01 1.176740000000000066e+02 2.020829999999999927e+03
9.099999999999999756e-02 2.029380000000000073e-01 2.701384999999999792e+01 1.200840000000000032e+02 2.021494999999999891e+03
9.199999999999999845e-02 2.030520000000000103e-01 2.761245000000000260e+01 1.224714999999999918e+02 2.022164999999999964e+03
9.299999999999999933e-02 2.031644999999999979e-01 2.815890000000000271e+01 1.248155000000000001e+02 2.022820000000000164e+03
9.400000000000000022e-02 2.032749999999999835e-01 2.864760000000000062e+01 1.270900000000000034e+02 2.023470000000000027e+03
9.500000000000000111e-02 2.033824999999999938e-01 2.907144999999999868e+01 1.292665000000000077e+02 2.024095000000000027e+03
9.600000000000000200e-02 2.034849999999999992e-01 2.942275000000000063e+01 1.313170000000000073e+02 2.024694999999999936e+03
9.700000000000000289e-02 2.035819999999999852e-01 2.969350000000000023e+01 1.332135000000000105e+02 2.025269999999999982e+03
9.800000000000000377e-02 2.036729999999999929e-01 2.987570000000000192e+01 1.349300000000000068e+02 2.025799999999999955e+03
9.900000000000000466e-02 2.037555000000000061e-01 2.996209999999999951e+01 1.364435000000000002e+02 2.026289999999999964e+03
1.000000000000000056e-01 2.038294999999999968e-01 2.994660000000000011e+01 1.377350000000000136e+02 2.026724999999999909e+03
1.010000000000000064e-01 2.038929999999999909e-01 2.982460000000000022e+01 1.387889999999999873e+02 2.027099999999999909e+03
1.020000000000000073e-01 2.039465000000000028e-01 2.959324999999999761e+01 1.395969999999999800e+02 2.027420000000000073e+03
1.030000000000000082e-01 2.039894999999999903e-01 2.925200000000000244e+01 1.401555000000000177e+02 2.027680000000000064e+03
1.040000000000000091e-01 2.040214999999999945e-01 2.880274999999999963e+01 1.404669999999999845e+02 2.027875000000000000e+03
1.050000000000000100e-01 2.040425000000000155e-01 2.824969999999999715e+01 1.405400000000000205e+02 2.028000000000000000e+03
1.059999999999999970e-01 2.040525000000000255e-01 2.759965000000000046e+01 1.403894999999999982e+02 2.028075000000000045e+03
1.069999999999999979e-01 2.040529999999999844e-01 2.686165000000000092e+01 1.400349999999999966e+02 2.028085000000000036e+03
1.079999999999999988e-01 2.040440000000000031e-01 2.604659999999999798e+01 1.395024999999999977e+02 2.028039999999999964e+03
1.089999999999999997e-01 2.040270000000000139e-01 2.516720000000000113e+01 1.388179999999999836e+02 2.027949999999999818e+03
1.100000000000000006e-01 2.040025000000000033e-01 2.423720000000000141e+01 1.380120000000000005e+02 2.027809999999999945e+03
1.110000000000000014e-01 2.039730000000000154e-01 2.327089999999999748e+01 1.371154999999999973e+02 2.027644999999999982e+03
1.120000000000000023e-01 2.039380000000000082e-01 2.228269999999999840e+01 1.361585000000000036e+02 2.027450000000000045e+03
1.130000000000000032e-01 2.039004999999999845e-01 2.128654999999999831e+01 1.351700000000000159e+02 2.027230000000000018e+03
1.140000000000000041e-01 2.038599999999999857e-01 2.029560000000000031e+01 1.341745000000000232e+02 2.027000000000000000e+03
1.150000000000000050e-01 2.038194999999999868e-01 1.932144999999999868e+01 1.331959999999999980e+02 2.026759999999999991e+03
1.160000000000000059e-01 2.037780000000000147e-01 1.837415000000000020e+01 1.322504999999999882e+02 2.026525000000000091e+03
1.170000000000000068e-01 2.037380000000000024e-01 1.746175000000000210e+01 1.313524999999999920e+02 2.026285000000000082e+03
1.180000000000000077e-01 2.036990000000000189e-01 1.659015000000000128e+01 1.305084999999999980e+02 2.026059999999999945e+03
1.190000000000000085e-01 2.036614999999999953e-01 1.576295000000000002e+01 1.297224999999999966e+02 2.025840000000000146e+03
1.200000000000000094e-01 2.036264999999999881e-01 1.498160000000000025e+01 1.289919999999999902e+02 2.025634999999999991e+03
1.209999999999999964e-01 2.035929999999999962e-01 1.424540000000000006e+01 1.283114999999999952e+02 2.025434999999999945e+03
1.219999999999999973e-01 2.035615000000000063e-01 1.355184999999999995e+01 1.276705000000000041e+02 2.025244999999999891e+03
1.229999999999999982e-01 2.035315000000000041e-01 1.289649999999999963e+01 1.270554999999999950e+02 2.025065000000000055e+03
1.239999999999999991e-01 2.035020000000000162e-01 1.227369999999999983e+01 1.264510000000000076e+02 2.024894999999999982e+03
1.250000000000000000e-01 2.034730000000000150e-01 1.167680000000000007e+01 1.258400000000000034e+02 2.024720000000000027e+03
1.260000000000000009e-01 2.034434999999999993e-01 1.109846499999999914e+01 1.252060000000000031e+02 2.024549999999999955e+03
1.270000000000000018e-01 2.034124999999999961e-01 1.053131000000000128e+01 1.245310000000000059e+02 2.024364999999999782e+03
1.280000000000000027e-01 2.033804999999999918e-01 9.967985000000000539e+00 1.238000000000000114e+02 2.024175000000000182e+03
1.290000000000000036e-01 2.033459999999999990e-01 9.401969999999998606e+00 1.229994999999999976e+02 2.023974999999999909e+03
1.300000000000000044e-01 2.033079999999999887e-01 8.827669999999999462e+00 1.221194999999999879e+02 2.023755000000000109e+03
1.310000000000000053e-01 2.032670000000000032e-01 8.240669999999999717e+00 1.211530000000000058e+02 2.023514999999999873e+03
1.320000000000000062e-01 2.032220000000000137e-01 7.638339999999999463e+00 1.200985000000000014e+02 2.023255000000000109e+03
1.330000000000000071e-01 2.031739999999999935e-01 7.019649999999999501e+00 1.189575000000000102e+02 2.022969999999999800e+03
1.340000000000000080e-01 2.031219999999999970e-01 6.385454999999999437e+00 1.177359999999999900e+02 2.022670000000000073e+03
1.350000000000000089e-01 2.030664999999999831e-01 5.738425000000000331e+00 1.164459999999999980e+02 2.022349999999999909e+03
1.360000000000000098e-01 2.030085000000000084e-01 5.082975000000000243e+00 1.150999999999999943e+02 2.022009999999999991e+03
1.370000000000000107e-01 2.029475000000000029e-01 4.425044999999999895e+00 1.137180000000000035e+02 2.021659999999999854e+03
1.380000000000000115e-01 2.028854999999999964e-01 3.771850000000000147e+00 1.123195000000000050e+02 2.021300000000000182e+03
1.390000000000000124e-01 2.028225000000000167e-01 3.131555000000000089e+00 1.109260000000000019e+02 2.020934999999999945e+03
1.400000000000000133e-01 2.027594999999999814e-01 2.512853000000000225e+00 1.095614999999999952e+02 2.020565000000000055e+03
1.410000000000000142e-01 2.026974999999999749e-01 1.924603999999999981e+00 1.082475000000000023e+02 2.020204999999999927e+03
1.420000000000000151e-01 2.026375000000000259e-01 1.375382500000000174e+00 1.070054999999999978e+02 2.019860000000000127e+03
1.430000000000000160e-01 2.025810000000000111e-01 8.731194999999999373e-01 1.058549999999999898e+02 2.019529999999999973e+03
1.440000000000000169e-01 2.025274999999999992e-01 4.247490000000000432e-01 1.048105000000000047e+02 2.019215000000000146e+03
1.450000000000000178e-01 2.024785000000000057e-01 3.592000000000006299e-02 1.038849999999999909e+02 2.018930000000000064e+03
1.459999999999999909e-01 2.024349999999999761e-01 -2.892274999999999707e-01 1.030869999999999891e+02 2.018674999999999955e+03
1.469999999999999918e-01 2.023960000000000203e-01 -5.481650000000000134e-01 1.024205000000000041e+02 2.018444999999999936e+03
1.479999999999999927e-01 2.023629999999999873e-01 -7.400671649999999158e-01 1.018864999999999981e+02 2.018255000000000109e+03
1.489999999999999936e-01 2.023360000000000158e-01 -8.657715000000000272e-01 1.014799999999999898e+02 2.018089999999999918e+03
1.499999999999999944e-01 2.023139999999999938e-01 -9.276809999999999778e-01 1.011949999999999932e+02 2.017954999999999927e+03
1.509999999999999953e-01 2.022980000000000056e-01 -9.296444999999999848e-01 1.010215000000000032e+02 2.017855000000000018e+03
1.519999999999999962e-01 2.022865000000000080e-01 -8.767255000000000464e-01 1.009470000000000027e+02 2.017784999999999854e+03
1.529999999999999971e-01 2.022789999999999866e-01 -7.749835000000000473e-01 1.009569999999999936e+02 2.017740000000000009e+03
1.539999999999999980e-01 2.022754999999999970e-01 -6.312379999999999658e-01 1.010365000000000038e+02 2.017710000000000036e+03
1.549999999999999989e-01 2.022754999999999970e-01 -4.527959999999999763e-01 1.011700000000000017e+02 2.017710000000000036e+03
1.559999999999999998e-01 2.022780000000000133e-01 -2.472035000000000204e-01 1.013419999999999987e+02 2.017720000000000027e+03
1.570000000000000007e-01 2.022824999999999762e-01 -2.200574999999999753e-02 1.015370000000000061e+02 2.017744999999999891e+03
1.580000000000000016e-01 2.022889999999999966e-01 2.154766500000000196e-01 1.017415000000000020e+02 2.017775000000000091e+03
1.590000000000000024e-01 2.022950000000000026e-01 4.583404999999999840e-01 1.019435000000000002e+02 2.017815000000000055e+03
