# t [s], A [cm^2], U [cm/s], P [cPa], c [cm/s]
1.000000000000000021e-03 1.532919999999999838e-01 1.612819499999999795e-01 9.681300000000000239e+01 1.897750000000000000e+03
2.000000000000000042e-03 1.532719999999999916e-01 1.447154000000000051e+00 9.428430000000000177e+01 1.897559999999999945e+03
3.000000000000000062e-03 1.531875000000000042e-01 3.084283499999999734e+00 9.089124999999999943e+01 1.896804999999999836e+03
4.000000000000000083e-03 1.530569999999999986e-01 4.921277499999999527e+00 8.691394999999999982e+01 1.895674999999999955e+03
5.000000000000000104e-03 1.529019999999999824e-01 6.909391499999999908e+00 8.296979999999999222e+01 1.894339999999999918e+03
6.000000000000000125e-03 1.527419999999999889e-01 8.971260000000000900e+00 7.947560000000000002e+01 1.892970000000000027e+03
7.000000000000000146e-03 1.525865000000000138e-01 1.097598999999999947e+01 7.651624999999999943e+01 1.891654999999999973e+03
8.000000000000000167e-03 1.524385000000000046e-01 1.279346500000000120e+01 7.394719999999999516e+01 1.890424999999999955e+03
9.000000000000001055e-03 1.523015000000000063e-01 1.436941500000000005e+01 7.164445000000000618e+01 1.889299999999999955e+03
1.000000000000000194e-02 1.521774999999999933e-01 1.571665000000000134e+01 6.961615000000000464e+01 1.888295000000000073e+03
1.099999999999999936e-02 1.520694999999999963e-01 1.685914999999999964e+01 6.790850000000000364e+01 1.887434999999999945e+03
1.200000000000000025e-02 1.519780000000000020e-01 1.781065000000000254e+01 6.652684999999999604e+01 1.886710000000000036e+03
1.300000000000000114e-02 1.519024999999999959e-01 1.858014999999999972e+01 6.544025000000000603e+01 1.886119999999999891e+03
1.400000000000000203e-02 1.518415000000000181e-01 1.917249999999999943e+01 6.459444999999999482e+01 1.885650000000000091e+03
1.499999999999999944e-02 1.517910000000000093e-01 1.959024999999999750e+01 6.391610000000000014e+01 1.885269999999999982e+03
1.600000000000000033e-02 1.517505000000000104e-01 1.984830000000000183e+01 6.334409999999999741e+01 1.884969999999999800e+03
1.700000000000000122e-02 1.517179999999999918e-01 1.999159999999999826e+01 6.288550000000000040e+01 1.884735000000000127e+03
1.800000000000000211e-02 1.516945000000000099e-01 2.009595000000000198e+01 6.264275000000000659e+01 1.884574999999999818e+03
1.900000000000000300e-02 1.516855000000000009e-01 2.024620000000000175e+01 6.278060000000000684e+01 1.884514999999999873e+03
2.000000000000000042e-02 1.516929999999999945e-01 2.050464999999999804e+01 6.344620000000000459e+01 1.884590000000000146e+03
2.100000000000000130e-02 1.517209999999999948e-01 2.088820000000000121e+01 6.468989999999999441e+01 1.884824999999999818e+03
2.200000000000000219e-02 1.517680000000000140e-01 2.136345000000000027e+01 6.642744999999999322e+01 1.885200000000000045e+03
2.299999999999999961e-02 1.518289999999999917e-01 2.186074999999999946e+01 6.845560000000000400e+01 1.885695000000000164e+03
2.400000000000000050e-02 1.518975000000000186e-01 2.229744999999999777e+01 7.050955000000000439e+01 1.886250000000000000e+03
2.500000000000000139e-02 1.519654999999999756e-01 2.260255000000000081e+01 7.233400000000000318e+01 1.886809999999999945e+03
2.600000000000000228e-02 1.520265000000000088e-01 2.273365000000000080e+01 7.374474999999999625e+01 1.887315000000000055e+03
2.700000000000000316e-02 1.520759999999999890e-01 2.268379999999999797e+01 7.466300000000001091e+01 1.887730000000000018e+03
2.800000000000000058e-02 1.521124999999999838e-01 2.247659999999999769e+01 7.511639999999999873e+01 1.888039999999999964e+03
2.900000000000000147e-02 1.521355000000000068e-01 2.215474999999999994e+01 7.521184999999999832e+01 1.888250000000000000e+03
3.000000000000000236e-02 1.521494999999999931e-01 2.176409999999999911e+01 7.509125000000000227e+01 1.888375000000000000e+03
3.099999999999999978e-02 1.521569999999999867e-01 2.134060000000000201e+01 7.488550000000000750e+01 1.888440000000000055e+03
3.200000000000000067e-02 1.521599999999999897e-01 2.090230000000000032e+01 7.468084999999999241e+01 1.888474999999999909e+03
3.300000000000000155e-02 1.521609999999999907e-01 2.044784999999999897e+01 7.450374999999999659e+01 1.888484999999999900e+03
3.400000000000000244e-02 1.521600000000000175e-01 1.996184999999999832e+01 7.432689999999999486e+01 1.888480000000000018e+03
3.500000000000000333e-02 1.521565000000000001e-01 1.942354999999999876e+01 7.409010000000000673e+01 1.888460000000000036e+03
3.600000000000000422e-02 1.521490000000000065e-01 1.881669999999999732e+01 7.372910000000000252e+01 1.888400000000000091e+03
3.700000000000000511e-02 1.521359999999999935e-01 1.813759999999999906e+01 7.320400000000000773e+01 1.888300000000000182e+03
3.799999999999999906e-02 1.521175000000000166e-01 1.740015000000000001e+01 7.251865000000000805e+01 1.888160000000000082e+03
3.899999999999999994e-02 1.520944999999999936e-01 1.663515000000000299e+01 7.172784999999998945e+01 1.887980000000000018e+03
4.000000000000000083e-02 1.520684999999999953e-01 1.588635000000000019e+01 7.093009999999999593e+01 1.887775000000000091e+03
4.100000000000000172e-02 1.520434999999999981e-01 1.520220000000000127e+01 7.024835000000000207e+01 1.887579999999999927e+03
4.200000000000000261e-02 1.520234999999999781e-01 1.462634999999999863e+01 6.980429999999999779e+01 1.887414999999999964e+03
4.300000000000000350e-02 1.520119999999999805e-01 1.418989999999999974e+01 6.969225000000000136e+01 1.887309999999999945e+03
4.400000000000000439e-02 1.520110000000000072e-01 1.390530000000000044e+01 6.995929999999999893e+01 1.887295000000000073e+03
4.499999999999999833e-02 1.520215000000000038e-01 1.376515000000000022e+01 7.059595000000000198e+01 1.887369999999999891e+03
4.599999999999999922e-02 1.520434999999999981e-01 1.374380000000000024e+01 7.153790000000000759e+01 1.887539999999999964e+03
4.700000000000000011e-02 1.520750000000000157e-01 1.380239999999999867e+01 7.267789999999999395e+01 1.887779999999999973e+03
4.800000000000000100e-02 1.521120000000000250e-01 1.389499999999999957e+01 7.388394999999999868e+01 1.888070000000000164e+03
4.900000000000000189e-02 1.521510000000000085e-01 1.397540000000000049e+01 7.501955000000000950e+01 1.888375000000000000e+03
5.000000000000000278e-02 1.521870000000000167e-01 1.400250000000000128e+01 7.596209999999999241e+01 1.888675000000000182e+03
5.100000000000000366e-02 1.522180000000000200e-01 1.394415000000000049e+01 7.661655000000000371e+01 1.888920000000000073e+03
5.200000000000000455e-02 1.522394999999999998e-01 1.377909999999999968e+01 7.692300000000000182e+01 1.889099999999999909e+03
5.300000000000000544e-02 1.522505000000000108e-01 1.349670000000000059e+01 7.685724999999999341e+01 1.889190000000000055e+03
5.399999999999999939e-02 1.522494999999999821e-01 1.309580000000000055e+01 7.642714999999999748e+01 1.889190000000000055e+03
5.500000000000000028e-02 1.522364999999999968e-01 1.258234999999999992e+01 7.566440000000000055e+01 1.889090000000000146e+03
5.600000000000000117e-02 1.522120000000000140e-01 1.196664999999999957e+01 7.461544999999999561e+01 1.888900000000000091e+03
5.700000000000000205e-02 1.521774999999999933e-01 1.126149500000000003e+01 7.333320000000000505e+01 1.888630000000000109e+03
5.800000000000000294e-02 1.521345000000000058e-01 1.048076499999999989e+01 7.187035000000000196e+01 1.888279999999999973e+03
5.900000000000000383e-02 1.520839999999999970e-01 9.638374999999999915e+00 7.027535000000000309e+01 1.887880000000000109e+03
6.000000000000000472e-02 1.520275000000000098e-01 8.748535000000000394e+00 6.859135000000000559e+01 1.887434999999999945e+03
6.099999999999999867e-02 1.519674999999999776e-01 7.825845000000000162e+00 6.685694999999999766e+01 1.886949999999999818e+03
6.199999999999999956e-02 1.519044999999999979e-01 6.886379999999999946e+00 6.510869999999999891e+01 1.886440000000000055e+03
6.300000000000000044e-02 1.518400000000000027e-01 5.947835000000000427e+00 6.338329999999999842e+01 1.885925000000000182e+03
6.400000000000000133e-02 1.517759999999999942e-01 5.030179999999999652e+00 6.172044999999999959e+01 1.885410000000000082e+03
6.500000000000000222e-02 1.517135000000000011e-01 4.155495000000000161e+00 6.016364999999999696e+01 1.884900000000000091e+03
6.600000000000000311e-02 1.516544999999999976e-01 3.347544999999999771e+00 5.876019999999999754e+01 1.884425000000000182e+03
6.700000000000000400e-02 1.516009999999999858e-01 2.630933999999999884e+00 5.756034999999999968e+01 1.883990000000000009e+03
6.800000000000000488e-02 1.515540000000000220e-01 2.029975499999999933e+00 5.661459999999999582e+01 1.883605000000000018e+03
6.900000000000000577e-02 1.515170000000000128e-01 1.567426500000000056e+00 5.597074999999999534e+01 1.883295000000000073e+03
7.000000000000000666e-02 1.514905000000000002e-01 1.263189000000000117e+00 5.567090000000000316e+01 1.883074999999999818e+03
7.100000000000000755e-02 1.514754999999999852e-01 1.133202500000000112e+00 5.574804999999999922e+01 1.882944999999999936e+03
7.200000000000000844e-02 1.514749999999999985e-01 1.188544999999999963e+00 5.622424999999999784e+01 1.882924999999999955e+03
7.300000000000000933e-02 1.514884999999999982e-01 1.434892499999999904e+00 5.710864999999999725e+01 1.883019999999999982e+03
7.399999999999999634e-02 1.515164999999999984e-01 1.872313500000000186e+00 5.839714999999999634e+01 1.883235000000000127e+03
7.499999999999999722e-02 1.515595000000000137e-01 2.495408999999999988e+00 6.007290000000000418e+01 1.883559999999999945e+03
7.599999999999999811e-02 1.516170000000000018e-01 3.293749999999999734e+00 6.210739999999999839e+01 1.884009999999999991e+03
7.699999999999999900e-02 1.516875000000000029e-01 4.252580000000000027e+00 6.446274999999999977e+01 1.884565000000000055e+03
7.799999999999999989e-02 1.517699999999999882e-01 5.353709999999999525e+00 6.709394999999999243e+01 1.885220000000000027e+03
7.900000000000000078e-02 1.518639999999999990e-01 6.576459999999999972e+00 6.995160000000001332e+01 1.885965000000000146e+03
8.000000000000000167e-02 1.519665000000000044e-01 7.898724999999999774e+00 7.298484999999999445e+01 1.886779999999999973e+03
8.100000000000000255e-02 1.520770000000000177e-01 9.298080000000000567e+00 7.614410000000000878e+01 1.887664999999999964e+03
8.200000000000000344e-02 1.521925000000000083e-01 1.075245999999999924e+01 7.938290000000000646e+01 1.888594999999999800e+03
8.300000000000000433e-02 1.523120000000000029e-01 1.224133499999999941e+01 8.266060000000000230e+01 1.889559999999999945e+03
8.400000000000000522e-02 1.524345000000000006e-01 1.374605000000000032e+01 8.594315000000000282e+01 1.890549999999999955e+03
8.500000000000000611e-02 1.525584999999999858e-01 1.525039999999999907e+01 8.920400000000000773e+01 1.891549999999999955e+03
8.600000000000000699e-02 1.526824999999999988e-01 1.674085000000000178e+01 9.242454999999999643e+01 1.892559999999999945e+03
8.700000000000000788e-02 1.528059999999999974e-01 1.820645000000000024e+01 9.559309999999999263e+01 1.893565000000000055e+03
8.800000000000000877e-02 1.529289999999999816e-01 1.963899999999999935e+01 9.870484999999999332e+01 1.894570000000000164e+03
8.899999999999999578e-02 1.530504999999999782e-01 2.103215000000000146e+01 1.017591000000000037e+02 1.895559999999999945e+03
8.999999999999999667e-02 1.531700000000000006e-01 2.238145000000000095e+01 1.047593999999999994e+02 1.896545000000000073e+03
9.099999999999999756e-02 1.532884999999999942e-01 2.368379999999999797e+01 1.077109999999999985e+02 1.897519999999999982e+03
9.199999999999999845e-02 1.534059999999999868e-01 2.493704999999999927e+01 1.106189999999999998e+02 1.898480000000000018e+03
9.299999999999999933e-02 1.535215000000000052e-01 2.613929999999999865e+01 1.134875000000000114e+02 1.899434999999999945e+03
9.400000000000000022e-02 1.536359999999999948e-01 2.728894999999999982e+01 1.163195000000000050e+02 1.900380000000000109e+03
9.500000000000000111e-02 1.537495000000000112e-01 2.838429999999999964e+01 1.191159999999999997e+02 1.901319999999999936e+03
9.600000000000000200e-02 1.538615000000000121e-01 2.942334999999999923e+01 1.218739999999999952e+02 1.902240000000000009e+03
9.700000000000000289e-02 1.539719999999999978e-01 3.040399999999999991e+01 1.245879999999999939e+02 1.903159999999999854e+03
9.800000000000000377e-02 1.540810000000000235e-01 3.132365000000000066e+01 1.272519999999999953e+02 1.904065000000000055e+03
9.900000000000000466e-02 1.541885000000000061e-01 3.217965000000000231e+01 1.298564999999999827e+02 1.904960000000000036e+03
1.000000000000000056e-01 1.542930000000000135e-01 3.296904999999999575e+01 1.323915000000000077e+02 1.905829999999999927e+03
1.010000000000000064e-01 1.543955000000000188e-01 3.368880000000000052e+01 1.348449999999999989e+02 1.906680000000000064e+03
1.020000000000000073e-01 1.544949999999999934e-01 3.433589999999999520e+01 1.372069999999999936e+02 1.907509999999999991e+03
1.030000000000000082e-01 1.545914999999999928e-01 3.490729999999999933e+01 1.394644999999999868e+02 1.908309999999999945e+03
1.040000000000000091e-01 1.546835000000000016e-01 3.539999999999999858e+01 1.416069999999999993e+02 1.909085000000000036e+03
1.050000000000000100e-01 1.547715000000000063e-01 3.581130000000000280e+01 1.436229999999999905e+02 1.909824999999999818e+03
1.059999999999999970e-01 1.548549999999999927e-01 3.613850000000000051e+01 1.455024999999999977e+02 1.910519999999999982e+03
1.069999999999999979e-01 1.549335000000000018e-01 3.637935000000000230e+01 1.472355000000000018e+02 1.911175000000000182e+03
1.079999999999999988e-01 1.550060000000000049e-01 3.653190000000000026e+01 1.488135000000000048e+02 1.911789999999999964e+03
1.089999999999999997e-01 1.550729999999999886e-01 3.659475000000000477e+01 1.502289999999999850e+02 1.912349999999999909e+03
1.100000000000000006e-01 1.551335000000000075e-01 3.656714999999999804e+01 1.514764999999999873e+02 1.912865000000000009e+03
1.110000000000000014e-01 1.551879999999999926e-01 3.644899999999999807e+01 1.525519999999999925e+02 1.913325000000000045e+03
1.120000000000000023e-01 1.552359999999999851e-01 3.624139999999999873e+01 1.534524999999999864e+02 1.913730000000000018e+03
1.130000000000000032e-01 1.552769999999999984e-01 3.594610000000000127e+01 1.541794999999999902e+02 1.914085000000000036e+03
1.140000000000000041e-01 1.553114999999999912e-01 3.556624999999999659e+01 1.547359999999999900e+02 1.914380000000000109e+03
1.150000000000000050e-01 1.553399999999999781e-01 3.510604999999999620e+01 1.551270000000000095e+02 1.914625000000000000e+03
1.160000000000000059e-01 1.553609999999999991e-01 3.457075000000000387e+01 1.553620000000000232e+02 1.914809999999999945e+03
1.170000000000000068e-01 1.553769999999999873e-01 3.396665000000000134e+01 1.554515000000000100e+02 1.914949999999999818e+03
1.180000000000000077e-01 1.553864999999999830e-01 3.330105000000000359e+01 1.554079999999999870e+02 1.915034999999999854e+03
1.190000000000000085e-01 1.553915000000000157e-01 3.258185000000000286e+01 1.552464999999999975e+02 1.915079999999999927e+03
1.200000000000000094e-01 1.553910000000000013e-01 3.181745000000000090e+01 1.549830000000000041e+02 1.915085000000000036e+03
1.209999999999999964e-01 1.553864999999999830e-01 3.101664999999999850e+01 1.546329999999999814e+02 1.915054999999999836e+03
1.219999999999999973e-01 1.553780000000000161e-01 3.018804999999999694e+01 1.542135000000000105e+02 1.914990000000000009e+03
1.229999999999999982e-01 1.553664999999999907e-01 2.934025000000000105e+01 1.537390000000000043e+02 1.914900000000000091e+03
1.239999999999999991e-01 1.553530000000000189e-01 2.848129999999999740e+01 1.532255000000000109e+02 1.914789999999999964e+03
1.250000000000000000e-01 1.553364999999999885e-01 2.761869999999999692e+01 1.526850000000000023e+02 1.914660000000000082e+03
1.260000000000000009e-01 1.553194999999999992e-01 2.675900000000000034e+01 1.521279999999999859e+02 1.914519999999999982e+03
1.270000000000000018e-01 1.553009999999999946e-01 2.590805000000000291e+01 1.515645000000000095e+02 1.914365000000000009e+03
1.280000000000000027e-01 1.552815000000000167e-01 2.507045000000000101e+01 1.510000000000000000e+02 1.914204999999999927e+03
1.290000000000000036e-01 1.552614999999999967e-01 2.425000000000000000e+01 1.504399999999999977e+02 1.914039999999999964e+03
1.300000000000000044e-01 1.552415000000000045e-01 2.344919999999999760e+01 1.498859999999999957e+02 1.913875000000000000e+03
1.310000000000000053e-01 1.552219999999999989e-01 2.266960000000000264e+01 1.493389999999999986e+02 1.913710000000000036e+03
1.320000000000000062e-01 1.552014999999999922e-01 2.191169999999999973e+01 1.487959999999999923e+02 1.913534999999999854e+03
1.330000000000000071e-01 1.551810000000000134e-01 2.117520000000000024e+01 1.482549999999999955e+02 1.913365000000000009e+03
1.340000000000000080e-01 1.551604999999999790e-01 2.045884999999999820e+01 1.477099999999999795e+02 1.913194999999999936e+03
1.350000000000000089e-01 1.551394999999999857e-01 1.976080000000000325e+01 1.471555000000000177e+02 1.913015000000000100e+03
1.360000000000000098e-01 1.551180000000000059e-01 1.907854999999999990e+01 1.465860000000000127e+02 1.912829999999999927e+03
1.370000000000000107e-01 1.550960000000000116e-01 1.840934999999999988e+01 1.459934999999999832e+02 1.912644999999999982e+03
1.380000000000000115e-01 1.550725000000000020e-01 1.775015000000000143e+01 1.453709999999999809e+02 1.912454999999999927e+03
1.390000000000000124e-01 1.550480000000000191e-01 1.709785000000000110e+01 1.447124999999999773e+02 1.912244999999999891e+03
1.400000000000000133e-01 1.550225000000000075e-01 1.644950000000000045e+01 1.440124999999999886e+02 1.912029999999999973e+03
1.410000000000000142e-01 1.549949999999999939e-01 1.580230000000000068e+01 1.432644999999999982e+02 1.911804999999999836e+03
1.420000000000000151e-01 1.549659999999999926e-01 1.515399999999999991e+01 1.424655000000000200e+02 1.911559999999999945e+03
1.430000000000000160e-01 1.549345000000000028e-01 1.450269999999999904e+01 1.416140000000000043e+02 1.911300000000000182e+03
1.440000000000000169e-01 1.549014999999999975e-01 1.384730000000000061e+01 1.407079999999999984e+02 1.911025000000000091e+03
1.450000000000000178e-01 1.548670000000000047e-01 1.318740000000000023e+01 1.397495000000000118e+02 1.910734999999999900e+03
1.459999999999999909e-01 1.548299999999999954e-01 1.252335000000000065e+01 1.387414999999999736e+02 1.910429999999999836e+03
1.469999999999999918e-01 1.547910000000000119e-01 1.185628499999999974e+01 1.376879999999999882e+02 1.910105000000000018e+03
1.479999999999999927e-01 1.547505000000000130e-01 1.118819500000000033e+01 1.365964999999999918e+02 1.909769999999999982e+03
1.489999999999999936e-01 1.547085000000000266e-01 1.052179500000000090e+01 1.354744999999999777e+02 1.909420000000000073e+03
1.499999999999999944e-01 1.546649999999999969e-01 9.860469999999999402e+00 1.343319999999999936e+02 1.909065000000000055e+03
1.509999999999999953e-01 1.546210000000000084e-01 9.208235000000000170e+00 1.331800000000000068e+02 1.908700000000000045e+03
1.519999999999999962e-01 1.545759999999999912e-01 8.569430000000000547e+00 1.320289999999999964e+02 1.908329999999999927e+03
1.529999999999999971e-01 1.545314999999999883e-01 7.948755000000000237e+00 1.308919999999999959e+02 1.907960000000000036e+03
1.539999999999999980e-01 1.544869999999999854e-01 7.350975000000000037e+00 1.297800000000000011e+02 1.907594999999999800e+03
1.549999999999999989e-01 1.544435000000000113e-01 6.780775000000000219e+00 1.287044999999999959e+02 1.907230000000000018e+03
1.559999999999999998e-01 1.544014999999999971e-01 6.242594999999999672e+00 1.276765000000000043e+02 1.906875000000000000e+03
1.570000000000000007e-01 1.543605000000000116e-01 5.740465000000000373e+00 1.267055000000000007e+02 1.906539999999999964e+03
1.580000000000000016e-01 1.543215000000000003e-01 5.277879999999999683e+00 1.257980000000000018e+02 1.906214999999999918e+03
1.590000000000000024e-01 1.542855000000000198e-01 4.857685000000000031e+00 1.249615000000000009e+02 1.905909999999999854e+03
