# t [s], A [cm^2], U [cm/s], P [cPa], c [cm/s]
1.000000000000000021e-03 5.216439999999999966e-01 3.265449999999996133e-03 9.306534999999999513e+01 1.486150000000000091e+03
2.000000000000000042e-03 5.216359999999999886e-01 -1.380712500000000039e-03 9.304664999999999964e+01 1.486144999999999982e+03
3.000000000000000062e-03 5.216680000000000206e-01 6.115200000000000496e-02 9.310439999999999827e+01 1.486164999999999964e+03
4.000000000000000083e-03 5.217134999999999412e-01 1.512692999999999954e-01 9.321065000000000111e+01 1.486190000000000055e+03
5.000000000000000104e-03 5.217160000000000686e-01 1.649585000000000079e-01 9.322509999999999764e+01 1.486200000000000045e+03
6.000000000000000125e-03 5.216779999999999751e-01 1.000349999999999989e-01 9.310949999999999704e+01 1.486174999999999955e+03
7.000000000000000146e-03 5.216365000000000585e-01 2.412950000000002593e-02 9.292680000000000007e+01 1.486130000000000109e+03
8.000000000000000167e-03 5.215914999999999857e-01 -6.555249999999995802e-02 9.268600000000000705e+01 1.486074999999999818e+03
9.000000000000001055e-03 5.215140000000000331e-01 -2.267690000000000539e-01 9.232214999999999350e+01 1.485990000000000009e+03
1.000000000000000194e-02 5.213934999999999542e-01 -4.818049999999999278e-01 9.178790000000000759e+01 1.485860000000000127e+03
1.099999999999999936e-02 5.212265000000000370e-01 -8.354500000000001370e-01 9.105065000000000452e+01 1.485679999999999836e+03
1.200000000000000025e-02 5.209995000000000598e-01 -1.300965000000000149e+00 9.006759999999999877e+01 1.485440000000000055e+03
1.300000000000000114e-02 5.207100000000000062e-01 -1.873639999999999972e+00 8.881310000000000571e+01 1.485125000000000000e+03
1.400000000000000203e-02 5.203750000000000320e-01 -2.500079999999999636e+00 8.732224999999999682e+01 1.484744999999999891e+03
1.499999999999999944e-02 5.200310000000000210e-01 -3.085494999999999877e+00 8.569630000000000791e+01 1.484309999999999945e+03
1.600000000000000033e-02 5.197160000000000668e-01 -3.531077500000000313e+00 8.406684999999998809e+01 1.483869999999999891e+03
1.700000000000000122e-02 5.194509999999999961e-01 -3.770242999999999789e+00 8.254660000000001219e+01 1.483429999999999836e+03
1.800000000000000211e-02 5.192379999999999773e-01 -3.784561825000000379e+00 8.119764999999999588e+01 1.483019999999999982e+03
1.900000000000000300e-02 5.190639999999999699e-01 -3.599209000000000103e+00 8.002295000000000869e+01 1.482644999999999982e+03
2.000000000000000042e-02 5.189034999999999620e-01 -3.266509999999999803e+00 7.897800000000000864e+01 1.482289999999999964e+03
2.100000000000000130e-02 5.187349999999999461e-01 -2.845998350000000343e+00 7.799325000000000330e+01 1.481949999999999818e+03
2.200000000000000219e-02 5.185409999999999187e-01 -2.386843500000000340e+00 7.699864999999999782e+01 1.481605000000000018e+03
2.299999999999999961e-02 5.183149999999999702e-01 -1.916690000000000005e+00 7.594445000000000334e+01 1.481255000000000109e+03
2.400000000000000050e-02 5.180614999999999526e-01 -1.439334999999999809e+00 7.481215000000000259e+01 1.480880000000000109e+03
2.500000000000000139e-02 5.177905000000000424e-01 -9.411049999999998583e-01 7.361299999999999955e+01 1.480494999999999891e+03
2.600000000000000228e-02 5.175144999999999884e-01 -4.027300000000000324e-01 7.237709999999999866e+01 1.480094999999999800e+03
2.700000000000000316e-02 5.172430000000000083e-01 1.881050000000001887e-01 7.113685000000000969e+01 1.479690000000000055e+03
2.800000000000000058e-02 5.169780000000000486e-01 8.279149999999999565e-01 6.991214999999999691e+01 1.479285000000000082e+03
2.900000000000000147e-02 5.167150000000000354e-01 1.494269999999999987e+00 6.870140000000000668e+01 1.478889999999999873e+03
3.000000000000000236e-02 5.164414999999999978e-01 2.148340000000000138e+00 6.747899999999999920e+01 1.478485000000000127e+03
3.099999999999999978e-02 5.161439999999999362e-01 2.741815000000000335e+00 6.620080000000000098e+01 1.478069999999999936e+03
3.200000000000000067e-02 5.158074999999999743e-01 3.226174999999999571e+00 6.481380000000000052e+01 1.477625000000000000e+03
3.300000000000000155e-02 5.154225000000000056e-01 3.562280000000000335e+00 6.326930000000000121e+01 1.477150000000000091e+03
3.400000000000000244e-02 5.149850000000000261e-01 3.728374999999999773e+00 6.153555000000000064e+01 1.476625000000000000e+03
3.500000000000000333e-02 5.144990000000000396e-01 3.724310000000000009e+00 5.960750000000000171e+01 1.476059999999999945e+03
3.600000000000000422e-02 5.139770000000000172e-01 3.571685000000000443e+00 5.751134999999999309e+01 1.475449999999999818e+03
3.700000000000000511e-02 5.134385000000000199e-01 3.309705000000000119e+00 5.530259999999999820e+01 1.474809999999999945e+03
3.799999999999999906e-02 5.129044999999999854e-01 2.988260000000000360e+00 5.305904999999999916e+01 1.474154999999999973e+03
3.899999999999999994e-02 5.123969999999999914e-01 2.660015000000000018e+00 5.087069999999999936e+01 1.473509999999999991e+03
4.000000000000000083e-02 5.119365000000000165e-01 2.373845000000000205e+00 4.882920000000000016e+01 1.472900000000000091e+03
4.100000000000000172e-02 5.115385000000000071e-01 2.170160000000000089e+00 4.701794999999999902e+01 1.472340000000000146e+03
4.200000000000000261e-02 5.112149999999999750e-01 2.078819999999999446e+00 4.550624999999999432e+01 1.471855000000000018e+03
4.300000000000000350e-02 5.109730000000000105e-01 2.119145000000000056e+00 4.434555000000000291e+01 1.471465000000000146e+03
4.400000000000000439e-02 5.108160000000000478e-01 2.301689999999999792e+00 4.356889999999999930e+01 1.471170000000000073e+03
4.499999999999999833e-02 5.107450000000000045e-01 2.630802500000000155e+00 4.319344999999999857e+01 1.470990000000000009e+03
4.599999999999999922e-02 5.107595000000000329e-01 3.107384999999999842e+00 4.322325000000000017e+01 1.470920000000000073e+03
4.700000000000000011e-02 5.108574999999999644e-01 3.731130000000000280e+00 4.365344999999999942e+01 1.470969999999999800e+03
4.800000000000000100e-02 5.110375000000000334e-01 4.501889999999999503e+00 4.447384999999999877e+01 1.471134999999999991e+03
4.900000000000000189e-02 5.112970000000000015e-01 5.419939999999999536e+00 4.567114999999999725e+01 1.471410000000000082e+03
5.000000000000000278e-02 5.116335000000000743e-01 6.485375000000000334e+00 4.723019999999999641e+01 1.471789999999999964e+03
5.100000000000000366e-02 5.120445000000000135e-01 7.696860000000000035e+00 4.913405000000000200e+01 1.472275000000000091e+03
5.200000000000000455e-02 5.125260000000000371e-01 9.050224999999999298e+00 5.136294999999999789e+01 1.472865000000000009e+03
5.300000000000000544e-02 5.130730000000000013e-01 1.053733499999999879e+01 5.389329999999999643e+01 1.473545000000000073e+03
5.399999999999999939e-02 5.136785000000000379e-01 1.214541499999999985e+01 5.669674999999999443e+01 1.474309999999999945e+03
5.500000000000000028e-02 5.143345000000000278e-01 1.385709999999999908e+01 5.973994999999999322e+01 1.475154999999999973e+03
5.600000000000000117e-02 5.150325000000000042e-01 1.565121500000000054e+01 6.298460000000000036e+01 1.476065000000000055e+03
5.700000000000000205e-02 5.157620000000000537e-01 1.750383499999999870e+01 6.638899999999999579e+01 1.477035000000000082e+03
5.800000000000000294e-02 5.165134999999999588e-01 1.938970000000000127e+01 6.990954999999999586e+01 1.478039999999999964e+03
5.900000000000000383e-02 5.172775000000000567e-01 2.128379999999999939e+01 7.350284999999999513e+01 1.479089999999999918e+03
6.000000000000000472e-02 5.180460000000000065e-01 2.316275000000000261e+01 7.712770000000000437e+01 1.480150000000000091e+03
6.099999999999999867e-02 5.188105000000000633e-01 2.500585000000000235e+01 8.074725000000000819e+01 1.481230000000000018e+03
6.199999999999999956e-02 5.195659999999999723e-01 2.679574999999999818e+01 8.433015000000000327e+01 1.482304999999999836e+03
6.300000000000000044e-02 5.203079999999999927e-01 2.851905000000000001e+01 8.785169999999999391e+01 1.483375000000000000e+03
6.400000000000000133e-02 5.210339999999999971e-01 3.016604999999999848e+01 9.129394999999999527e+01 1.484430000000000064e+03
6.500000000000000222e-02 5.217420000000000391e-01 3.173064999999999714e+01 9.464719999999999800e+01 1.485465000000000146e+03
6.600000000000000311e-02 5.224325000000000774e-01 3.321000000000000085e+01 9.790614999999999668e+01 1.486484999999999900e+03
6.700000000000000400e-02 5.231065000000000298e-01 3.460370000000000346e+01 1.010724500000000035e+02 1.487474999999999909e+03
6.800000000000000488e-02 5.237650000000000361e-01 3.591349999999999909e+01 1.041513500000000079e+02 1.488445000000000164e+03
6.900000000000000577e-02 5.244109999999999605e-01 3.714254999999999995e+01 1.071520500000000027e+02 1.489394999999999982e+03
7.000000000000000666e-02 5.250455000000000538e-01 3.829489999999999839e+01 1.100840000000000032e+02 1.490329999999999927e+03
7.100000000000000755e-02 5.256709999999999994e-01 3.937489999999999668e+01 1.129590000000000032e+02 1.491244999999999891e+03
7.200000000000000844e-02 5.262894999999999657e-01 4.038665000000000305e+01 1.157870000000000061e+02 1.492150000000000091e+03
7.300000000000000933e-02 5.269025000000000514e-01 4.133389999999999986e+01 1.185765000000000100e+02 1.493045000000000073e+03
7.399999999999999634e-02 5.275110000000000632e-01 4.221925000000000239e+01 1.213329999999999984e+02 1.493924999999999955e+03
7.499999999999999722e-02 5.281139999999999723e-01 4.304425000000000523e+01 1.240604999999999905e+02 1.494795000000000073e+03
7.599999999999999811e-02 5.287115000000000009e-01 4.380894999999999584e+01 1.267575000000000074e+02 1.495660000000000082e+03
7.699999999999999900e-02 5.293019999999999392e-01 4.451234999999999786e+01 1.294190000000000111e+02 1.496514999999999873e+03
7.799999999999999989e-02 5.298835000000000628e-01 4.515189999999999770e+01 1.320374999999999943e+02 1.497355000000000018e+03
7.900000000000000078e-02 5.304520000000000346e-01 4.572424999999999784e+01 1.346014999999999873e+02 1.498175000000000182e+03
8.000000000000000167e-02 5.310059999999999780e-01 4.622520000000000095e+01 1.370980000000000132e+02 1.498985000000000127e+03
8.100000000000000255e-02 5.315410000000000412e-01 4.665030000000000143e+01 1.395109999999999957e+02 1.499769999999999982e+03
8.200000000000000344e-02 5.320540000000000269e-01 4.699495000000000289e+01 1.418255000000000052e+02 1.500525000000000091e+03
8.300000000000000433e-02 5.325415000000000010e-01 4.725499999999999545e+01 1.440249999999999773e+02 1.501250000000000000e+03
8.400000000000000522e-02 5.330000000000000293e-01 4.742685000000000173e+01 1.460955000000000155e+02 1.501940000000000055e+03
8.500000000000000611e-02 5.334275000000000544e-01 4.750795000000000101e+01 1.480230000000000246e+02 1.502585000000000036e+03
8.600000000000000699e-02 5.338215000000000598e-01 4.749665000000000248e+01 1.497964999999999804e+02 1.503184999999999945e+03
8.700000000000000788e-02 5.341804999999999470e-01 4.739249999999999829e+01 1.514080000000000155e+02 1.503735000000000127e+03
8.800000000000000877e-02 5.345035000000000203e-01 4.719660000000000366e+01 1.528524999999999920e+02 1.504240000000000009e+03
8.899999999999999578e-02 5.347905000000000575e-01 4.691094999999999970e+01 1.541270000000000095e+02 1.504690000000000055e+03
8.999999999999999667e-02 5.350409999999999888e-01 4.653905000000000314e+01 1.552319999999999993e+02 1.505090000000000146e+03
9.099999999999999756e-02 5.352575000000000527e-01 4.608554999999999779e+01 1.561715000000000089e+02 1.505440000000000055e+03
9.199999999999999845e-02 5.354394999999999571e-01 4.555615000000000236e+01 1.569515000000000100e+02 1.505744999999999891e+03
9.299999999999999933e-02 5.355894999999999406e-01 4.495770000000000266e+01 1.575805000000000007e+02 1.505994999999999891e+03
9.400000000000000022e-02 5.357100000000000195e-01 4.429784999999999684e+01 1.580685000000000002e+02 1.506199999999999818e+03
9.500000000000000111e-02 5.358045000000000169e-01 4.358489999999999753e+01 1.584290000000000020e+02 1.506365000000000009e+03
9.600000000000000200e-02 5.358739999999999615e-01 4.282774999999999466e+01 1.586750000000000114e+02 1.506490000000000009e+03
9.700000000000000289e-02 5.359234999999999971e-01 4.203565000000000396e+01 1.588215000000000146e+02 1.506585000000000036e+03
9.800000000000000377e-02 5.359545000000000003e-01 4.121784999999999854e+01 1.588840000000000146e+02 1.506639999999999873e+03
9.900000000000000466e-02 5.359720000000000040e-01 4.038344999999999629e+01 1.588765000000000214e+02 1.506674999999999955e+03
1.000000000000000056e-01 5.359770000000000367e-01 3.954115000000000180e+01 1.588145000000000095e+02 1.506690000000000055e+03
1.010000000000000064e-01 5.359739999999999505e-01 3.869904999999999973e+01 1.587125000000000057e+02 1.506684999999999945e+03
1.020000000000000073e-01 5.359644999999999548e-01 3.786424999999999841e+01 1.585819999999999936e+02 1.506670000000000073e+03
1.030000000000000082e-01 5.359510000000000662e-01 3.704274999999999807e+01 1.584340000000000259e+02 1.506639999999999873e+03
1.040000000000000091e-01 5.359350000000000502e-01 3.623940000000000339e+01 1.582775000000000034e+02 1.506610000000000127e+03
1.050000000000000100e-01 5.359180000000000055e-01 3.545765000000000100e+01 1.581189999999999998e+02 1.506569999999999936e+03
1.059999999999999970e-01 5.359000000000000430e-01 3.469955000000000211e+01 1.579635000000000105e+02 1.506529999999999973e+03
1.069999999999999979e-01 5.358825000000000394e-01 3.396569999999999823e+01 1.578120000000000118e+02 1.506484999999999900e+03
1.079999999999999988e-01 5.358640000000000070e-01 3.325554999999999950e+01 1.576650000000000205e+02 1.506445000000000164e+03
1.089999999999999997e-01 5.358445000000000569e-01 3.256725000000000136e+01 1.575204999999999984e+02 1.506400000000000091e+03
1.100000000000000006e-01 5.358224999999999794e-01 3.189799999999999613e+01 1.573739999999999952e+02 1.506355000000000018e+03
1.110000000000000014e-01 5.357979999999999965e-01 3.124419999999999931e+01 1.572199999999999989e+02 1.506304999999999836e+03
1.120000000000000023e-01 5.357680000000000220e-01 3.060164999999999935e+01 1.570525000000000091e+02 1.506250000000000000e+03
1.130000000000000032e-01 5.357319999999999860e-01 2.996589999999999776e+01 1.568639999999999759e+02 1.506195000000000164e+03
1.140000000000000041e-01 5.356885000000000119e-01 2.933234999999999815e+01 1.566475000000000080e+02 1.506125000000000000e+03
1.150000000000000050e-01 5.356354999999999311e-01 2.869640000000000057e+01 1.563960000000000150e+02 1.506050000000000182e+03
1.160000000000000059e-01 5.355729999999999658e-01 2.805400000000000205e+01 1.561030000000000086e+02 1.505960000000000036e+03
1.170000000000000068e-01 5.354984999999999884e-01 2.740144999999999698e+01 1.557629999999999768e+02 1.505865000000000009e+03
1.180000000000000077e-01 5.354125000000000689e-01 2.673564999999999969e+01 1.553720000000000141e+02 1.505744999999999891e+03
1.190000000000000085e-01 5.353140000000000676e-01 2.605454999999999899e+01 1.549254999999999995e+02 1.505614999999999782e+03
1.200000000000000094e-01 5.352025000000000254e-01 2.535670000000000002e+01 1.544245000000000232e+02 1.505470000000000027e+03
1.209999999999999964e-01 5.350789999999999713e-01 2.464164999999999850e+01 1.538679999999999950e+02 1.505305000000000064e+03
1.219999999999999973e-01 5.349435000000000162e-01 2.391019999999999968e+01 1.532579999999999814e+02 1.505130000000000109e+03
1.229999999999999982e-01 5.347979999999999956e-01 2.316365000000000052e+01 1.525980000000000132e+02 1.504934999999999945e+03
1.239999999999999991e-01 5.346429999999999794e-01 2.240465000000000018e+01 1.518940000000000055e+02 1.504730000000000018e+03
1.250000000000000000e-01 5.344809999999999839e-01 2.163649999999999807e+01 1.511525000000000034e+02 1.504509999999999991e+03
1.260000000000000009e-01 5.343124999999999680e-01 2.086330000000000240e+01 1.503815000000000168e+02 1.504279999999999973e+03
1.270000000000000018e-01 5.341400000000000592e-01 2.008974999999999866e+01 1.495889999999999986e+02 1.504039999999999964e+03
1.280000000000000027e-01 5.339665000000000106e-01 1.932094999999999985e+01 1.487860000000000014e+02 1.503800000000000182e+03
1.290000000000000036e-01 5.337935000000000318e-01 1.856240000000000023e+01 1.479814999999999827e+02 1.503555000000000064e+03
1.300000000000000044e-01 5.336229999999999585e-01 1.781954999999999956e+01 1.471864999999999952e+02 1.503309999999999945e+03
1.310000000000000053e-01 5.334574999999999179e-01 1.709789999999999921e+01 1.464094999999999800e+02 1.503069999999999936e+03
1.320000000000000062e-01 5.332985000000000086e-01 1.640255000000000152e+01 1.456605000000000132e+02 1.502840000000000146e+03
1.330000000000000071e-01 5.331479999999999553e-01 1.573819999999999908e+01 1.449479999999999791e+02 1.502615000000000009e+03
1.340000000000000080e-01 5.330075000000000784e-01 1.510900000000000176e+01 1.442785000000000082e+02 1.502400000000000091e+03
1.350000000000000089e-01 5.328779999999999628e-01 1.451839999999999975e+01 1.436585000000000036e+02 1.502195000000000164e+03
1.360000000000000098e-01 5.327600000000000113e-01 1.396888500000000022e+01 1.430914999999999964e+02 1.502014999999999873e+03
1.370000000000000107e-01 5.326545000000000307e-01 1.346227000000000018e+01 1.425810000000000173e+02 1.501839999999999918e+03
1.380000000000000115e-01 5.325610000000000621e-01 1.299924999999999997e+01 1.421279999999999859e+02 1.501684999999999945e+03
1.390000000000000124e-01 5.324794999999999945e-01 1.257989999999999853e+01 1.417309999999999945e+02 1.501545000000000073e+03
1.400000000000000133e-01 5.324094999999999800e-01 1.220326500000000003e+01 1.413894999999999982e+02 1.501424999999999955e+03
1.410000000000000142e-01 5.323499999999999899e-01 1.186764999999999937e+01 1.410989999999999895e+02 1.501315000000000055e+03
1.420000000000000151e-01 5.322999999999999954e-01 1.157089999999999996e+01 1.408555000000000064e+02 1.501224999999999909e+03
1.430000000000000160e-01 5.322584999999999678e-01 1.131014000000000053e+01 1.406544999999999845e+02 1.501144999999999982e+03
1.440000000000000169e-01 5.322240000000000304e-01 1.108213500000000096e+01 1.404890000000000043e+02 1.501075000000000045e+03
1.450000000000000178e-01 5.321955000000000435e-01 1.088351000000000113e+01 1.403534999999999968e+02 1.501014999999999873e+03
1.459999999999999909e-01 5.321710000000000607e-01 1.071062000000000047e+01 1.402415000000000020e+02 1.500970000000000027e+03
1.469999999999999918e-01 5.321500000000000119e-01 1.055987499999999990e+01 1.401474999999999795e+02 1.500924999999999955e+03
1.479999999999999927e-01 5.321310000000000207e-01 1.042778500000000008e+01 1.400654999999999859e+02 1.500884999999999991e+03
1.489999999999999936e-01 5.321129999999999471e-01 1.031096499999999949e+01 1.399895000000000209e+02 1.500849999999999909e+03
1.499999999999999944e-01 5.320945000000000258e-01 1.020629999999999882e+01 1.399159999999999968e+02 1.500824999999999818e+03
1.509999999999999953e-01 5.320759999999999934e-01 1.011097499999999982e+01 1.398410000000000082e+02 1.500789999999999964e+03
1.519999999999999962e-01 5.320559999999999734e-01 1.002247500000000002e+01 1.397605000000000075e+02 1.500759999999999991e+03
1.529999999999999971e-01 5.320340000000000069e-01 9.938614999999998645e+00 1.396734999999999900e+02 1.500730000000000018e+03
1.539999999999999980e-01 5.320104999999999418e-01 9.857495000000000118e+00 1.395769999999999982e+02 1.500695000000000164e+03
1.549999999999999989e-01 5.319844999999999713e-01 9.777599999999999625e+00 1.394704999999999870e+02 1.500654999999999973e+03
1.559999999999999998e-01 5.319570000000000132e-01 9.697715000000000529e+00 1.393534999999999968e+02 1.500615000000000009e+03
1.570000000000000007e-01 5.319264999999999688e-01 9.616849999999999454e+00 1.392264999999999873e+02 1.500574999999999818e+03
1.580000000000000016e-01 5.318939999999999779e-01 9.534335000000000448e+00 1.390889999999999986e+02 1.500529999999999973e+03
1.590000000000000024e-01 5.318599999999999994e-01 9.449804999999999566e+00 1.389415000000000191e+02 1.500490000000000009e+03
