# t [s], A [cm^2], U [cm/s], P [cPa], c [cm/s]
1.000000000000000021e-03 1.378960000000000186e-01 4.376340499999999967e-01 9.590904999999999347e+01 2.053649999999999636e+03
2.000000000000000042e-03 1.378584999999999949e-01 2.073356500000000047e+00 9.225270000000000437e+01 2.053235000000000127e+03
3.000000000000000062e-03 1.377559999999999896e-01 4.031822499999999643e+00 8.745195000000001073e+01 2.052135000000000218e+03
4.000000000000000083e-03 1.376179999999999903e-01 6.209355500000000028e+00 8.251919999999999789e+01 2.050675000000000182e+03
5.000000000000000104e-03 1.374719999999999831e-01 8.518045000000000755e+00 7.831794999999999618e+01 2.049130000000000109e+03
6.000000000000000125e-03 1.373304999999999942e-01 1.075251999999999875e+01 7.496059999999999945e+01 2.047664999999999964e+03
7.000000000000000146e-03 1.371975000000000000e-01 1.271372500000000016e+01 7.207755000000000223e+01 2.046309999999999945e+03
8.000000000000000167e-03 1.370755000000000168e-01 1.436531500000000072e+01 6.947979999999999734e+01 2.045090000000000146e+03
9.000000000000001055e-03 1.369684999999999930e-01 1.575839999999999996e+01 6.725804999999999723e+01 2.044025000000000091e+03
1.000000000000000194e-02 1.368774999999999853e-01 1.691805000000000092e+01 6.545179999999999154e+01 2.043130000000000109e+03
1.099999999999999936e-02 1.368014999999999926e-01 1.785304999999999964e+01 6.399975000000000591e+01 2.042400000000000091e+03
1.200000000000000025e-02 1.367400000000000004e-01 1.857314999999999827e+01 6.282070000000000221e+01 2.041809999999999945e+03
1.300000000000000114e-02 1.366884999999999906e-01 1.908384999999999820e+01 6.181165000000000020e+01 2.041319999999999936e+03
1.400000000000000203e-02 1.366450000000000164e-01 1.941369999999999862e+01 6.089979999999999905e+01 2.040920000000000073e+03
1.499999999999999944e-02 1.366094999999999948e-01 1.965520000000000067e+01 6.018054999999999666e+01 2.040595000000000027e+03
1.600000000000000033e-02 1.365864999999999996e-01 1.995570000000000022e+01 5.995974999999999966e+01 2.040389999999999873e+03
1.700000000000000122e-02 1.365834999999999966e-01 2.044810000000000016e+01 6.059649999999999892e+01 2.040369999999999891e+03
1.800000000000000211e-02 1.366060000000000052e-01 2.117580000000000240e+01 6.225584999999999525e+01 2.040594999999999800e+03
1.900000000000000300e-02 1.366525000000000101e-01 2.206325000000000003e+01 6.475469999999999970e+01 2.041059999999999945e+03
2.000000000000000042e-02 1.367160000000000042e-01 2.294725000000000037e+01 6.759369999999999834e+01 2.041684999999999945e+03
2.100000000000000130e-02 1.367844999999999756e-01 2.364335000000000164e+01 7.013974999999999227e+01 2.042365000000000236e+03
2.200000000000000219e-02 1.368435000000000068e-01 2.401364999999999839e+01 7.185474999999999568e+01 2.042965000000000146e+03
2.299999999999999961e-02 1.368834999999999913e-01 2.400884999999999891e+01 7.246809999999999263e+01 2.043384999999999991e+03
2.400000000000000050e-02 1.369004999999999805e-01 2.367229999999999990e+01 7.203239999999999554e+01 2.043579999999999927e+03
2.500000000000000139e-02 1.368959999999999899e-01 2.310965000000000202e+01 7.085624999999998863e+01 2.043559999999999945e+03
2.600000000000000228e-02 1.368769999999999987e-01 2.244299999999999784e+01 6.935730000000000928e+01 2.043384999999999991e+03
2.700000000000000316e-02 1.368504999999999860e-01 2.176709999999999923e+01 6.790254999999999086e+01 2.043130000000000109e+03
2.800000000000000058e-02 1.368225000000000136e-01 2.112559999999999860e+01 6.669855000000001155e+01 2.042864999999999782e+03
2.900000000000000147e-02 1.367964999999999876e-01 2.051060000000000016e+01 6.576160000000000139e+01 2.042610000000000127e+03
3.000000000000000236e-02 1.367729999999999779e-01 1.988175000000000026e+01 6.496205000000000496e+01 2.042375000000000000e+03
3.099999999999999978e-02 1.367490000000000094e-01 1.919389999999999930e+01 6.411419999999999675e+01 2.042140000000000100e+03
3.200000000000000067e-02 1.367214999999999958e-01 1.842385000000000161e+01 6.307254999999999967e+01 2.041869999999999891e+03
3.300000000000000155e-02 1.366894999999999916e-01 1.758654999999999902e+01 6.180330000000000013e+01 2.041559999999999945e+03
3.400000000000000244e-02 1.366534999999999833e-01 1.673760000000000048e+01 6.041060000000000230e+01 2.041210000000000036e+03
3.500000000000000333e-02 1.366155000000000008e-01 1.596110000000000184e+01 5.911204999999999643e+01 2.040844999999999800e+03
3.600000000000000422e-02 1.365830000000000100e-01 1.534704999999999941e+01 5.817459999999999809e+01 2.040514999999999873e+03
3.700000000000000511e-02 1.365609999999999880e-01 1.496690000000000076e+01 5.783289999999999509e+01 2.040295000000000073e+03
3.799999999999999906e-02 1.365544999999999953e-01 1.485320000000000107e+01 5.821665000000000134e+01 2.040214999999999918e+03
3.899999999999999994e-02 1.365649999999999920e-01 1.499024999999999963e+01 5.930884999999999962e+01 2.040304999999999836e+03
4.000000000000000083e-02 1.365919999999999912e-01 1.531660000000000110e+01 6.094384999999999764e+01 2.040554999999999836e+03
4.100000000000000172e-02 1.366310000000000024e-01 1.573760000000000048e+01 6.284210000000000207e+01 2.040925000000000182e+03
4.200000000000000261e-02 1.366755000000000053e-01 1.614359999999999928e+01 6.466785000000000139e+01 2.041359999999999900e+03
4.300000000000000350e-02 1.367174999999999918e-01 1.642889999999999873e+01 6.609305000000000518e+01 2.041769999999999982e+03
4.400000000000000439e-02 1.367504999999999971e-01 1.650699999999999790e+01 6.685195000000000221e+01 2.042089999999999918e+03
4.499999999999999833e-02 1.367665000000000131e-01 1.632019999999999982e+01 6.677635000000000787e+01 2.042260000000000218e+03
4.599999999999999922e-02 1.367625000000000091e-01 1.584290000000000020e+01 6.580719999999999459e+01 2.042230000000000018e+03
4.700000000000000011e-02 1.367369999999999974e-01 1.507890000000000086e+01 6.398590000000000089e+01 2.041990000000000009e+03
4.800000000000000100e-02 1.366904999999999926e-01 1.405535000000000068e+01 6.143030000000000257e+01 2.041535000000000082e+03
4.900000000000000189e-02 1.366239999999999954e-01 1.281531500000000001e+01 5.830464999999999520e+01 2.040894999999999982e+03
5.000000000000000278e-02 1.365425000000000111e-01 1.141024499999999975e+01 5.479090000000000060e+01 2.040099999999999909e+03
5.100000000000000366e-02 1.364495000000000013e-01 9.894954999999999501e+00 5.106700000000000017e+01 2.039184999999999945e+03
5.200000000000000455e-02 1.363484999999999836e-01 8.324044999999999916e+00 4.729410000000000025e+01 2.038195000000000164e+03
5.300000000000000544e-02 1.362444999999999906e-01 6.750710000000000655e+00 4.361315000000000452e+01 2.037170000000000073e+03
5.399999999999999939e-02 1.361410000000000120e-01 5.226704999999999934e+00 4.014679999999999893e+01 2.036150000000000091e+03
5.500000000000000028e-02 1.360419999999999963e-01 3.802667500000000089e+00 3.700484999999999758e+01 2.035175000000000182e+03
5.600000000000000117e-02 1.359509999999999885e-01 2.528254500000000071e+00 3.428950000000000387e+01 2.034264999999999873e+03
5.700000000000000205e-02 1.358699999999999908e-01 1.451509999999999856e+00 3.209754999999999825e+01 2.033465000000000146e+03
5.800000000000000294e-02 1.358024999999999927e-01 6.173950000000000271e-01 3.051970000000000027e+01 2.032795000000000073e+03
5.900000000000000383e-02 1.357524999999999982e-01 6.562999999999996614e-02 2.963705000000000211e+01 2.032279999999999973e+03
6.000000000000000472e-02 1.357204999999999939e-01 -1.718275000000000219e-01 2.951449999999999818e+01 2.031954999999999927e+03
6.099999999999999867e-02 1.357099999999999973e-01 -7.317419999999999480e-02 3.019444999999999979e+01 2.031829999999999927e+03
6.199999999999999956e-02 1.357214999999999949e-01 3.713724999999999943e-01 3.169115000000000038e+01 2.031924999999999955e+03
6.300000000000000044e-02 1.357555000000000012e-01 1.158587499999999881e+00 3.398765000000000214e+01 2.032240000000000009e+03
6.400000000000000133e-02 1.358119999999999883e-01 2.272290900000000224e+00 3.703485000000000582e+01 2.032779999999999973e+03
6.500000000000000222e-02 1.358904999999999974e-01 3.684351000000000376e+00 4.075484999999999758e+01 2.033529999999999973e+03
6.600000000000000311e-02 1.359885000000000121e-01 5.356584999999999930e+00 4.504559999999999320e+01 2.034474999999999909e+03
6.700000000000000400e-02 1.361029999999999740e-01 7.243185000000000429e+00 4.978849999999999909e+01 2.035585000000000036e+03
6.800000000000000488e-02 1.362315000000000054e-01 9.293409999999999727e+00 5.485550000000000637e+01 2.036845000000000027e+03
6.900000000000000577e-02 1.363709999999999922e-01 1.145460500000000081e+01 6.011784999999999712e+01 2.038210000000000036e+03
7.000000000000000666e-02 1.365175000000000138e-01 1.367479499999999959e+01 6.545284999999999798e+01 2.039654999999999973e+03
7.100000000000000755e-02 1.366685000000000261e-01 1.590520000000000067e+01 7.075050000000000239e+01 2.041144999999999982e+03
7.200000000000000844e-02 1.368205000000000116e-01 1.810255000000000081e+01 7.591854999999999620e+01 2.042650000000000091e+03
7.300000000000000933e-02 1.369699999999999807e-01 2.023069999999999879e+01 8.088644999999999641e+01 2.044144999999999982e+03
7.399999999999999634e-02 1.371165000000000023e-01 2.226210000000000022e+01 8.560730000000000928e+01 2.045605000000000018e+03
7.499999999999999722e-02 1.372579999999999911e-01 2.417830000000000013e+01 9.005865000000000009e+01 2.047019999999999982e+03
7.599999999999999811e-02 1.373929999999999874e-01 2.597010000000000218e+01 9.424164999999999281e+01 2.048380000000000109e+03
7.699999999999999900e-02 1.375220000000000053e-01 2.763680000000000092e+01 9.817725000000000080e+01 2.049675000000000182e+03
7.799999999999999989e-02 1.376445000000000030e-01 2.918515000000000015e+01 1.019032499999999999e+02 2.050914999999999964e+03
7.900000000000000078e-02 1.377625000000000099e-01 3.062790000000000390e+01 1.054695999999999998e+02 2.052105000000000018e+03
8.000000000000000167e-02 1.378759999999999986e-01 3.198134999999999906e+01 1.089304999999999950e+02 2.053255000000000109e+03
8.100000000000000255e-02 1.379865000000000119e-01 3.326415000000000077e+01 1.123400000000000034e+02 2.054375000000000000e+03
8.200000000000000344e-02 1.380949999999999955e-01 3.449445000000000050e+01 1.157489999999999952e+02 2.055480000000000018e+03
8.300000000000000433e-02 1.382039999999999935e-01 3.568885000000000218e+01 1.191955000000000098e+02 2.056585000000000036e+03
8.400000000000000522e-02 1.383130000000000193e-01 3.686055000000000348e+01 1.227090000000000032e+02 2.057690000000000055e+03
8.500000000000000611e-02 1.384235000000000049e-01 3.801859999999999928e+01 1.262999999999999972e+02 2.058809999999999945e+03
8.600000000000000699e-02 1.385350000000000192e-01 3.916720000000000113e+01 1.299680000000000177e+02 2.059944999999999709e+03
8.700000000000000788e-02 1.386489999999999945e-01 4.030545000000000044e+01 1.336959999999999980e+02 2.061099999999999909e+03
8.800000000000000877e-02 1.387639999999999985e-01 4.142775000000000318e+01 1.374559999999999889e+02 2.062265000000000327e+03
8.899999999999999578e-02 1.388794999999999891e-01 4.252439999999999998e+01 1.412074999999999818e+02 2.063440000000000055e+03
8.999999999999999667e-02 1.389944999999999931e-01 4.358209999999999695e+01 1.449050000000000011e+02 2.064610000000000127e+03
9.099999999999999756e-02 1.391074999999999950e-01 4.458504999999999541e+01 1.484975000000000023e+02 2.065760000000000218e+03
9.199999999999999845e-02 1.392180000000000084e-01 4.551614999999999611e+01 1.519320000000000164e+02 2.066885000000000218e+03
9.299999999999999933e-02 1.393240000000000034e-01 4.635779999999999745e+01 1.551580000000000155e+02 2.067965000000000146e+03
9.400000000000000022e-02 1.394239999999999924e-01 4.709310000000000684e+01 1.581285000000000025e+02 2.068989999999999782e+03
9.500000000000000111e-02 1.395170000000000021e-01 4.770685000000000286e+01 1.608040000000000020e+02 2.069945000000000164e+03
9.600000000000000200e-02 1.396024999999999905e-01 4.818599999999999994e+01 1.631504999999999939e+02 2.070820000000000164e+03
9.700000000000000289e-02 1.396779999999999966e-01 4.852100000000000080e+01 1.651449999999999818e+02 2.071595000000000255e+03
9.800000000000000377e-02 1.397435000000000205e-01 4.870560000000000400e+01 1.667750000000000057e+02 2.072275000000000091e+03
9.900000000000000466e-02 1.397994999999999932e-01 4.873789999999999623e+01 1.680369999999999777e+02 2.072855000000000018e+03
1.000000000000000056e-01 1.398449999999999971e-01 4.861979999999999791e+01 1.689384999999999764e+02 2.073329999999999927e+03
1.010000000000000064e-01 1.398794999999999900e-01 4.835739999999999839e+01 1.694970000000000141e+02 2.073694999999999709e+03
1.020000000000000073e-01 1.399040000000000006e-01 4.796070000000000277e+01 1.697389999999999759e+02 2.073960000000000036e+03
1.030000000000000082e-01 1.399195000000000022e-01 4.744284999999999997e+01 1.696979999999999791e+02 2.074130000000000109e+03
1.040000000000000091e-01 1.399265000000000092e-01 4.681980000000000075e+01 1.694134999999999991e+02 2.074210000000000036e+03
1.050000000000000100e-01 1.399265000000000092e-01 4.610960000000000036e+01 1.689284999999999854e+02 2.074215000000000146e+03
1.059999999999999970e-01 1.399195000000000022e-01 4.533119999999999550e+01 1.682884999999999991e+02 2.074154999999999745e+03
1.069999999999999979e-01 1.399070000000000036e-01 4.450430000000000064e+01 1.675370000000000061e+02 2.074039999999999964e+03
1.079999999999999988e-01 1.398909999999999876e-01 4.364775000000000205e+01 1.667164999999999964e+02 2.073885000000000218e+03
1.089999999999999997e-01 1.398725000000000107e-01 4.277944999999999709e+01 1.658670000000000186e+02 2.073694999999999709e+03
1.100000000000000006e-01 1.398519999999999763e-01 4.191519999999999868e+01 1.650194999999999936e+02 2.073489999999999782e+03
1.110000000000000014e-01 1.398304999999999965e-01 4.106850000000000023e+01 1.642019999999999982e+02 2.073275000000000091e+03
1.120000000000000023e-01 1.398090000000000166e-01 4.025005000000000166e+01 1.634339999999999975e+02 2.073059999999999945e+03
1.130000000000000032e-01 1.397884999999999822e-01 3.946734999999999616e+01 1.627270000000000039e+02 2.072845000000000255e+03
1.140000000000000041e-01 1.397690000000000043e-01 3.872469999999999857e+01 1.620849999999999795e+02 2.072644999999999982e+03
1.150000000000000050e-01 1.397504999999999997e-01 3.802329999999999899e+01 1.615055000000000121e+02 2.072454999999999927e+03
1.160000000000000059e-01 1.397335000000000105e-01 3.736145000000000493e+01 1.609800000000000182e+02 2.072275000000000091e+03
1.170000000000000068e-01 1.397169999999999801e-01 3.673454999999999870e+01 1.604929999999999950e+02 2.072110000000000127e+03
1.180000000000000077e-01 1.397019999999999929e-01 3.613615000000000066e+01 1.600254999999999939e+02 2.071949999999999818e+03
1.190000000000000085e-01 1.396870000000000056e-01 3.555760000000000076e+01 1.595544999999999902e+02 2.071789999999999964e+03
1.200000000000000094e-01 1.396720000000000184e-01 3.498955000000000126e+01 1.590559999999999832e+02 2.071635000000000218e+03
1.209999999999999964e-01 1.396560000000000024e-01 3.442184999999999917e+01 1.585065000000000168e+02 2.071470000000000255e+03
1.219999999999999973e-01 1.396379999999999844e-01 3.384444999999999482e+01 1.578820000000000050e+02 2.071295000000000073e+03
1.229999999999999982e-01 1.396189999999999931e-01 3.324804999999999922e+01 1.571610000000000014e+02 2.071090000000000146e+03
1.239999999999999991e-01 1.395969999999999989e-01 3.262444999999999595e+01 1.563279999999999745e+02 2.070869999999999891e+03
1.250000000000000000e-01 1.395720000000000016e-01 3.196699999999999875e+01 1.553695000000000164e+02 2.070609999999999673e+03
1.260000000000000009e-01 1.395430000000000004e-01 3.127135000000000176e+01 1.542794999999999845e+02 2.070320000000000164e+03
1.270000000000000018e-01 1.395109999999999961e-01 3.053535000000000110e+01 1.530564999999999998e+02 2.069994999999999891e+03
1.280000000000000027e-01 1.394750000000000156e-01 2.975930000000000319e+01 1.517065000000000055e+02 2.069630000000000109e+03
1.290000000000000036e-01 1.394354999999999900e-01 2.894599999999999795e+01 1.502400000000000091e+02 2.069234999999999673e+03
1.300000000000000044e-01 1.393935000000000035e-01 2.810085000000000122e+01 1.486739999999999782e+02 2.068800000000000182e+03
1.310000000000000053e-01 1.393475000000000130e-01 2.723120000000000118e+01 1.470314999999999941e+02 2.068344999999999800e+03
1.320000000000000062e-01 1.392999999999999794e-01 2.634649999999999892e+01 1.453374999999999773e+02 2.067860000000000127e+03
1.330000000000000071e-01 1.392510000000000137e-01 2.545734999999999815e+01 1.436204999999999927e+02 2.067359999999999673e+03
1.340000000000000080e-01 1.391999999999999904e-01 2.457554999999999978e+01 1.419114999999999895e+02 2.066849999999999909e+03
1.350000000000000089e-01 1.391499999999999959e-01 2.371310000000000073e+01 1.402409999999999854e+02 2.066345000000000255e+03
1.360000000000000098e-01 1.391005000000000158e-01 2.288195000000000334e+01 1.386374999999999886e+02 2.065840000000000146e+03
1.370000000000000107e-01 1.390524999999999956e-01 2.209329999999999927e+01 1.371285000000000025e+02 2.065349999999999909e+03
1.380000000000000115e-01 1.390069999999999917e-01 2.135715000000000074e+01 1.357364999999999782e+02 2.064890000000000327e+03
1.390000000000000124e-01 1.389644999999999908e-01 2.068209999999999837e+01 1.344814999999999827e+02 2.064454999999999927e+03
1.400000000000000133e-01 1.389259999999999939e-01 2.007460000000000022e+01 1.333754999999999882e+02 2.064055000000000291e+03
1.410000000000000142e-01 1.388905000000000001e-01 1.953925000000000267e+01 1.324284999999999854e+02 2.063694999999999709e+03
1.420000000000000151e-01 1.388604999999999978e-01 1.907835000000000036e+01 1.316435000000000173e+02 2.063380000000000109e+03
1.430000000000000160e-01 1.388340000000000130e-01 1.869209999999999994e+01 1.310180000000000007e+02 2.063105000000000018e+03
1.440000000000000169e-01 1.388119999999999910e-01 1.837870000000000203e+01 1.305459999999999923e+02 2.062880000000000109e+03
1.450000000000000178e-01 1.387944999999999873e-01 1.813439999999999941e+01 1.302155000000000200e+02 2.062699999999999818e+03
1.459999999999999909e-01 1.387809999999999877e-01 1.795400000000000063e+01 1.300140000000000100e+02 2.062559999999999945e+03
1.469999999999999918e-01 1.387714999999999921e-01 1.783089999999999975e+01 1.299245000000000232e+02 2.062460000000000036e+03
1.479999999999999927e-01 1.387654999999999861e-01 1.775764999999999816e+01 1.299284999999999854e+02 2.062389999999999873e+03
1.489999999999999936e-01 1.387625000000000108e-01 1.772615000000000052e+01 1.300074999999999932e+02 2.062349999999999909e+03
1.499999999999999944e-01 1.387610000000000232e-01 1.772809999999999775e+01 1.301440000000000055e+02 2.062340000000000146e+03
1.509999999999999953e-01 1.387625000000000108e-01 1.775525000000000020e+01 1.303190000000000168e+02 2.062340000000000146e+03
1.519999999999999962e-01 1.387645000000000128e-01 1.779959999999999809e+01 1.305154999999999745e+02 2.062364999999999782e+03
1.529999999999999971e-01 1.387685000000000168e-01 1.785379999999999967e+01 1.307194999999999823e+02 2.062400000000000091e+03
1.539999999999999980e-01 1.387725000000000208e-01 1.791124999999999901e+01 1.309184999999999945e+02 2.062434999999999945e+03
1.549999999999999989e-01 1.387764999999999971e-01 1.796634999999999849e+01 1.311014999999999873e+02 2.062480000000000018e+03
1.559999999999999998e-01 1.387809999999999877e-01 1.801435000000000031e+01 1.312609999999999957e+02 2.062519999999999982e+03
1.570000000000000007e-01 1.387849999999999917e-01 1.805194999999999794e+01 1.313919999999999959e+02 2.062554999999999836e+03
1.580000000000000016e-01 1.387880000000000225e-01 1.807669999999999888e+01 1.314919999999999902e+02 2.062590000000000146e+03
1.590000000000000024e-01 1.387909999999999977e-01 1.808749999999999858e+01 1.315600000000000023e+02 2.062614999999999782e+03
