# t [s], A [cm^2], U [cm/s], P [cPa], c [cm/s]
1.000000000000000021e-03 7.593174999999999786e-01 6.948000000000002785e-03 1.070474999999999994e+02 1.723000000000000000e+03
2.000000000000000042e-03 7.593079999999999830e-01 5.266749999999998863e-03 1.070130000000000052e+02 1.722990000000000009e+03
3.000000000000000062e-03 7.593995000000000051e-01 1.587301000000000128e-01 1.071889999999999930e+02 1.723029999999999973e+03
4.000000000000000083e-03 7.594300000000000495e-01 2.394489999999999674e-01 1.072715000000000032e+02 1.723049999999999955e+03
5.000000000000000104e-03 7.593315000000000481e-01 1.234290000000000109e-01 1.070150000000000006e+02 1.722994999999999891e+03
6.000000000000000125e-03 7.592265000000000263e-01 -1.733999999999996655e-02 1.066055000000000064e+02 1.722900000000000091e+03
7.000000000000000146e-03 7.590974999999999806e-01 -2.126449999999999729e-01 1.060519999999999925e+02 1.722775000000000091e+03
8.000000000000000167e-03 7.588620000000000365e-01 -6.050250000000000350e-01 1.051484999999999985e+02 1.722569999999999936e+03
9.000000000000001055e-03 7.585329999999999018e-01 -1.169645000000000046e+00 1.038599999999999994e+02 1.722284999999999854e+03
1.000000000000000194e-02 7.580910000000000704e-01 -1.917865000000000153e+00 1.021160500000000013e+02 1.721889999999999873e+03
1.099999999999999936e-02 7.574935000000000418e-01 -2.886950000000000127e+00 9.979720000000000368e+01 1.721355000000000018e+03
1.200000000000000025e-02 7.567924999999999791e-01 -3.958730000000000526e+00 9.698850000000000193e+01 1.720690000000000055e+03
1.300000000000000114e-02 7.561335000000000139e-01 -4.849589500000000442e+00 9.406489999999999441e+01 1.719974999999999909e+03
1.400000000000000203e-02 7.556460000000000399e-01 -5.289553500000000241e+00 9.147874999999999091e+01 1.719304999999999836e+03
1.499999999999999944e-02 7.553644999999999943e-01 -5.175110000000000099e+00 8.950430000000000064e+01 1.718744999999999891e+03
1.600000000000000033e-02 7.552259999999999529e-01 -4.592195000000000249e+00 8.812980000000000302e+01 1.718309999999999945e+03
1.700000000000000122e-02 7.551140000000000629e-01 -3.748234999999999761e+00 8.710505000000000564e+01 1.717949999999999818e+03
1.800000000000000211e-02 7.549150000000000027e-01 -2.870609999999999662e+00 8.607714999999998895e+01 1.717599999999999909e+03
1.900000000000000300e-02 7.545680000000000165e-01 -2.112344000000000221e+00 8.475120000000001141e+01 1.717194999999999936e+03
2.000000000000000042e-02 7.540810000000000013e-01 -1.501165000000000083e+00 8.300960000000000605e+01 1.716710000000000036e+03
2.100000000000000130e-02 7.535195000000000087e-01 -9.567050000000001386e-01 8.093319999999999936e+01 1.716144999999999982e+03
2.200000000000000219e-02 7.529615000000000613e-01 -3.612099999999998090e-01 7.872229999999998995e+01 1.715545000000000073e+03
2.299999999999999961e-02 7.524589999999999890e-01 3.627400000000000624e-01 7.657425000000000637e+01 1.714949999999999818e+03
2.400000000000000050e-02 7.520154999999999479e-01 1.205855000000000121e+00 7.458464999999999634e+01 1.714384999999999991e+03
2.500000000000000139e-02 7.515880000000000338e-01 2.067224999999999646e+00 7.270439999999999259e+01 1.713840000000000146e+03
2.600000000000000228e-02 7.511045000000000638e-01 2.782244999999999635e+00 7.075265000000000271e+01 1.713280000000000200e+03
2.700000000000000316e-02 7.504874999999999741e-01 3.170315000000000438e+00 6.847540000000000759e+01 1.712660000000000082e+03
2.800000000000000058e-02 7.496810000000000418e-01 3.089234999999999953e+00 6.563015000000000043e+01 1.711920000000000073e+03
2.900000000000000147e-02 7.486690000000000289e-01 2.481240000000000112e+00 6.207339999999999947e+01 1.711029999999999973e+03
3.000000000000000236e-02 7.474874999999999714e-01 1.393315000000000303e+00 5.782039999999999225e+01 1.709980000000000018e+03
3.099999999999999978e-02 7.462130000000000152e-01 -3.555000000000063665e-02 5.305339999999999634e+01 1.708799999999999955e+03
3.200000000000000067e-02 7.449434999999999807e-01 -1.613949999999999996e+00 4.808030000000000115e+01 1.707559999999999945e+03
3.300000000000000155e-02 7.437749999999999639e-01 -3.144305000000000128e+00 4.326465000000000316e+01 1.706329999999999927e+03
3.400000000000000244e-02 7.427839999999999998e-01 -4.459439999999999849e+00 3.895550000000000068e+01 1.705199999999999818e+03
3.500000000000000333e-02 7.420219999999999594e-01 -5.443315000000000126e+00 3.543430000000000035e+01 1.704230000000000018e+03
3.600000000000000422e-02 7.415114999999999901e-01 -6.034727999999999426e+00 3.288589999999999947e+01 1.703485000000000127e+03
3.700000000000000511e-02 7.412529999999999397e-01 -6.219430000000000014e+00 3.139260000000000161e+01 1.702985000000000127e+03
3.799999999999999906e-02 7.412300000000000555e-01 -6.015299999999999869e+00 3.094845000000000113e+01 1.702744999999999891e+03
3.899999999999999994e-02 7.414195000000000091e-01 -5.455284999999999940e+00 3.148509999999999920e+01 1.702755000000000109e+03
4.000000000000000083e-02 7.417970000000000397e-01 -4.573304099999999650e+00 3.290189999999999770e+01 1.703005000000000109e+03
4.100000000000000172e-02 7.423399999999999999e-01 -3.396475000000000133e+00 3.509090000000000487e+01 1.703460000000000036e+03
4.200000000000000261e-02 7.430304999999999271e-01 -1.944964999999999833e+00 3.795114999999999839e+01 1.704099999999999909e+03
4.300000000000000350e-02 7.438519999999999577e-01 -2.378899999999992687e-01 4.139050000000000296e+01 1.704910000000000082e+03
4.400000000000000439e-02 7.447865000000000180e-01 1.698589999999999378e+00 4.531915000000000049e+01 1.705849999999999909e+03
4.499999999999999833e-02 7.458089999999999442e-01 3.825025000000000119e+00 4.964055000000000462e+01 1.706909999999999854e+03
4.599999999999999922e-02 7.468930000000000291e-01 6.086355000000000182e+00 5.424510000000000076e+01 1.708054999999999836e+03
4.700000000000000011e-02 7.480044999999999611e-01 8.414860000000000895e+00 5.900949999999999562e+01 1.709259999999999991e+03
4.800000000000000100e-02 7.491109999999999713e-01 1.073630749999999878e+01 6.380259999999999820e+01 1.710484999999999900e+03
4.900000000000000189e-02 7.501800000000000690e-01 1.297787500000000094e+01 6.849540000000000362e+01 1.711710000000000036e+03
5.000000000000000278e-02 7.511864999999999792e-01 1.507596999999999987e+01 7.297274999999999068e+01 1.712900000000000091e+03
5.100000000000000366e-02 7.521124999999999616e-01 1.698175499999999971e+01 7.714369999999999550e+01 1.714025000000000091e+03
5.200000000000000455e-02 7.529490000000000904e-01 1.866440000000000055e+01 8.094874999999998977e+01 1.715069999999999936e+03
5.300000000000000544e-02 7.536960000000000326e-01 2.011110000000000042e+01 8.436249999999999716e+01 1.716035000000000082e+03
5.399999999999999939e-02 7.543579999999999730e-01 2.132450000000000045e+01 8.739119999999999777e+01 1.716900000000000091e+03
5.500000000000000028e-02 7.549474999999999936e-01 2.231974999999999909e+01 9.006784999999999286e+01 1.717674999999999955e+03
5.600000000000000117e-02 7.554775000000000240e-01 2.312049999999999983e+01 9.244505000000000905e+01 1.718380000000000109e+03
5.700000000000000205e-02 7.559655000000000680e-01 2.375605000000000189e+01 9.458805000000000973e+01 1.719019999999999982e+03
5.800000000000000294e-02 7.564265000000000017e-01 2.425890000000000057e+01 9.656884999999999764e+01 1.719610000000000127e+03
5.900000000000000383e-02 7.568774999999999809e-01 2.466339999999999932e+01 9.846099999999999852e+01 1.720164999999999964e+03
6.000000000000000472e-02 7.573339999999999517e-01 2.500444999999999851e+01 1.003363499999999959e+02 1.720715000000000146e+03
6.099999999999999867e-02 7.578104999999999425e-01 2.531564999999999799e+01 1.022595000000000027e+02 1.721264999999999873e+03
6.199999999999999956e-02 7.583185000000000064e-01 2.562760000000000105e+01 1.042870000000000061e+02 1.721840000000000146e+03
6.300000000000000044e-02 7.588660000000000405e-01 2.596520000000000294e+01 1.064609999999999985e+02 1.722440000000000055e+03
6.400000000000000133e-02 7.594575000000000076e-01 2.634544999999999959e+01 1.088045000000000044e+02 1.723075000000000045e+03
6.500000000000000222e-02 7.600905000000000022e-01 2.677544999999999931e+01 1.113209999999999980e+02 1.723755000000000109e+03
6.600000000000000311e-02 7.607580000000000453e-01 2.725155000000000172e+01 1.139909999999999997e+02 1.724470000000000027e+03
6.700000000000000400e-02 7.614475000000000549e-01 2.775985000000000014e+01 1.167740000000000009e+02 1.725215000000000146e+03
6.800000000000000488e-02 7.621434999999999738e-01 2.827779999999999916e+01 1.196099999999999994e+02 1.725980000000000018e+03
6.900000000000000577e-02 7.628270000000000328e-01 2.877649999999999864e+01 1.224254999999999995e+02 1.726740000000000009e+03
7.000000000000000666e-02 7.634780000000001010e-01 2.922400000000000020e+01 1.251410000000000053e+02 1.727480000000000018e+03
7.100000000000000755e-02 7.640780000000000349e-01 2.958814999999999884e+01 1.276735000000000042e+02 1.728180000000000064e+03
7.200000000000000844e-02 7.646100000000000119e-01 2.983944999999999936e+01 1.299495000000000005e+02 1.728819999999999936e+03
7.300000000000000933e-02 7.650605000000000322e-01 2.995349999999999824e+01 1.319039999999999964e+02 1.729384999999999991e+03
7.399999999999999634e-02 7.654199999999999893e-01 2.991219999999999857e+01 1.334890000000000043e+02 1.729860000000000127e+03
7.499999999999999722e-02 7.656834999999999614e-01 2.970504999999999995e+01 1.346734999999999900e+02 1.730235000000000127e+03
7.599999999999999811e-02 7.658504999999999896e-01 2.932935000000000159e+01 1.354449999999999932e+02 1.730500000000000000e+03
7.699999999999999900e-02 7.659240000000000492e-01 2.879010000000000247e+01 1.358120000000000118e+02 1.730659999999999854e+03
7.799999999999999989e-02 7.659110000000000085e-01 2.809920000000000329e+01 1.357984999999999900e+02 1.730720000000000027e+03
7.900000000000000078e-02 7.658225000000000726e-01 2.727470000000000283e+01 1.354435000000000002e+02 1.730684999999999945e+03
8.000000000000000167e-02 7.656699999999999617e-01 2.633975000000000222e+01 1.347984999999999900e+02 1.730570000000000164e+03
8.100000000000000255e-02 7.654684999999999961e-01 2.532100000000000151e+01 1.339234999999999900e+02 1.730384999999999991e+03
8.200000000000000344e-02 7.652339999999999698e-01 2.424739999999999895e+01 1.328820000000000050e+02 1.730150000000000091e+03
8.300000000000000433e-02 7.649799999999999933e-01 2.314860000000000184e+01 1.317404999999999973e+02 1.729880000000000109e+03
8.400000000000000522e-02 7.647215000000000540e-01 2.205344999999999800e+01 1.305630000000000166e+02 1.729585000000000036e+03
8.500000000000000611e-02 7.644729999999999581e-01 2.098870000000000147e+01 1.294085000000000036e+02 1.729295000000000073e+03
8.600000000000000699e-02 7.642434999999999645e-01 1.997729999999999961e+01 1.283274999999999864e+02 1.729009999999999991e+03
8.700000000000000788e-02 7.640419999999999989e-01 1.903790000000000049e+01 1.273619999999999948e+02 1.728750000000000000e+03
8.800000000000000877e-02 7.638754999999999296e-01 1.818379999999999797e+01 1.265409999999999968e+02 1.728514999999999873e+03
8.899999999999999578e-02 7.637454999999999661e-01 1.742255000000000109e+01 1.258825000000000074e+02 1.728320000000000164e+03
8.999999999999999667e-02 7.636534999999999851e-01 1.675600000000000023e+01 1.253914999999999935e+02 1.728170000000000073e+03
9.099999999999999756e-02 7.635965000000000114e-01 1.618055000000000021e+01 1.250625000000000000e+02 1.728059999999999945e+03
9.199999999999999845e-02 7.635689999999999422e-01 1.568774999999999942e+01 1.248785000000000025e+02 1.727980000000000018e+03
9.299999999999999933e-02 7.635659999999999670e-01 1.526480000000000103e+01 1.248144999999999953e+02 1.727940000000000055e+03
9.400000000000000022e-02 7.635784999999999378e-01 1.489559999999999995e+01 1.248394999999999868e+02 1.727920000000000073e+03
9.500000000000000111e-02 7.635984999999999578e-01 1.456184999999999974e+01 1.249155000000000086e+02 1.727920000000000073e+03
9.600000000000000200e-02 7.636160000000000725e-01 1.424375000000000036e+01 1.250035000000000025e+02 1.727929999999999836e+03
9.700000000000000289e-02 7.636229999999999407e-01 1.392154999999999987e+01 1.250655000000000001e+02 1.727929999999999836e+03
9.800000000000000377e-02 7.636110000000000397e-01 1.357644999999999946e+01 1.250630000000000024e+02 1.727924999999999955e+03
9.900000000000000466e-02 7.635724999999999874e-01 1.319184999999999874e+01 1.249644999999999868e+02 1.727900000000000091e+03
1.000000000000000056e-01 7.635030000000000427e-01 1.275425000000000075e+01 1.247435000000000116e+02 1.727845000000000027e+03
1.010000000000000064e-01 7.633984999999999799e-01 1.225412999999999997e+01 1.243810000000000002e+02 1.727759999999999991e+03
1.020000000000000073e-01 7.632584999999999509e-01 1.168676999999999921e+01 1.238689999999999998e+02 1.727639999999999873e+03
1.030000000000000082e-01 7.630839999999999845e-01 1.105218499999999970e+01 1.232085000000000008e+02 1.727474999999999909e+03
1.040000000000000091e-01 7.628790000000000848e-01 1.035547000000000040e+01 1.224099999999999966e+02 1.727279999999999973e+03
1.050000000000000100e-01 7.626489999999999103e-01 9.606370000000000076e+00 1.214945000000000022e+02 1.727054999999999836e+03
1.059999999999999970e-01 7.624024999999999830e-01 8.818785000000000096e+00 1.204900000000000091e+02 1.726800000000000182e+03
1.069999999999999979e-01 7.621470000000000189e-01 8.009879999999999001e+00 1.194334999999999951e+02 1.726529999999999973e+03
1.079999999999999988e-01 7.618929999999999314e-01 7.199140000000000761e+00 1.183624999999999972e+02 1.726255000000000109e+03
1.089999999999999997e-01 7.616510000000000780e-01 6.407339999999999591e+00 1.173209999999999980e+02 1.725980000000000018e+03
1.100000000000000006e-01 7.614300000000000512e-01 5.655070000000000263e+00 1.163499999999999943e+02 1.725719999999999800e+03
1.110000000000000014e-01 7.612385000000000401e-01 4.961759999999999948e+00 1.154894999999999925e+02 1.725485000000000127e+03
1.120000000000000023e-01 7.610850000000000115e-01 4.344475000000000087e+00 1.147719999999999914e+02 1.725280000000000200e+03
1.130000000000000032e-01 7.609744999999999981e-01 3.816994999999999916e+00 1.142259999999999991e+02 1.725115000000000009e+03
1.140000000000000041e-01 7.609095000000000164e-01 3.389085000000000125e+00 1.138694999999999879e+02 1.725000000000000000e+03
1.150000000000000050e-01 7.608919999999999018e-01 3.066069999999999851e+00 1.137125000000000057e+02 1.724930000000000064e+03
1.160000000000000059e-01 7.609209999999999585e-01 2.848689999999999944e+00 1.137530000000000001e+02 1.724914999999999964e+03
1.170000000000000068e-01 7.609930000000000305e-01 2.733249999999999957e+00 1.139835000000000065e+02 1.724945000000000164e+03
1.180000000000000077e-01 7.611025000000000151e-01 2.712004999999999999e+00 1.143845000000000027e+02 1.725025000000000091e+03
1.190000000000000085e-01 7.612440000000000317e-01 2.773785000000000167e+00 1.149319999999999879e+02 1.725144999999999982e+03
1.200000000000000094e-01 7.614095000000000724e-01 2.904705000000000314e+00 1.155949999999999989e+02 1.725295000000000073e+03
1.209999999999999964e-01 7.615905000000000591e-01 3.089024999999999910e+00 1.163404999999999916e+02 1.725474999999999909e+03
1.219999999999999973e-01 7.617789999999999839e-01 3.309954999999999536e+00 1.171340000000000003e+02 1.725664999999999964e+03
1.229999999999999982e-01 7.619674999999999088e-01 3.550519999999999676e+00 1.179405000000000001e+02 1.725869999999999891e+03
1.239999999999999991e-01 7.621480000000000476e-01 3.794289999999999718e+00 1.187264999999999873e+02 1.726069999999999936e+03
1.250000000000000000e-01 7.623150000000000759e-01 4.026069999999999816e+00 1.194635000000000105e+02 1.726259999999999991e+03
1.260000000000000009e-01 7.624614999999999032e-01 4.232435000000000613e+00 1.201255000000000024e+02 1.726440000000000055e+03
1.270000000000000018e-01 7.625844999999999985e-01 4.402210000000000178e+00 1.206935000000000002e+02 1.726594999999999800e+03
1.280000000000000027e-01 7.626820000000000821e-01 4.526740000000000208e+00 1.211525000000000034e+02 1.726730000000000018e+03
1.290000000000000036e-01 7.627509999999999568e-01 4.600084999999999980e+00 1.214939999999999998e+02 1.726829999999999927e+03
1.300000000000000044e-01 7.627920000000000256e-01 4.619060000000000166e+00 1.217139999999999986e+02 1.726904999999999973e+03
1.310000000000000053e-01 7.628064999999999429e-01 4.583190000000000097e+00 1.218164999999999907e+02 1.726950000000000045e+03
1.320000000000000062e-01 7.627965000000000995e-01 4.494525000000000325e+00 1.218079999999999927e+02 1.726964999999999918e+03
1.330000000000000071e-01 7.627639999999999976e-01 4.357364999999999711e+00 1.216989999999999981e+02 1.726950000000000045e+03
1.340000000000000080e-01 7.627135000000000442e-01 4.177950000000000053e+00 1.215045000000000073e+02 1.726920000000000073e+03
1.350000000000000089e-01 7.626489999999999103e-01 3.963980000000000281e+00 1.212404999999999973e+02 1.726860000000000127e+03
1.360000000000000098e-01 7.625744999999999330e-01 3.724219999999999864e+00 1.209254999999999995e+02 1.726789999999999964e+03
1.370000000000000107e-01 7.624945000000000750e-01 3.467960000000000154e+00 1.205775000000000006e+02 1.726714999999999918e+03
1.380000000000000115e-01 7.624130000000000074e-01 3.204499999999999904e+00 1.202145000000000010e+02 1.726625000000000000e+03
1.390000000000000124e-01 7.623334999999999972e-01 2.942714999999999748e+00 1.198520000000000039e+02 1.726535000000000082e+03
1.400000000000000133e-01 7.622584999999999500e-01 2.690560000000000063e+00 1.195049999999999955e+02 1.726444999999999936e+03
1.410000000000000142e-01 7.621904999999999930e-01 2.454744999999999955e+00 1.191839999999999975e+02 1.726360000000000127e+03
1.420000000000000151e-01 7.621320000000000316e-01 2.240439999999999987e+00 1.188960000000000008e+02 1.726284999999999854e+03
1.430000000000000160e-01 7.620819999999999261e-01 2.051134999999999931e+00 1.186454999999999984e+02 1.726215000000000146e+03
1.440000000000000169e-01 7.620409999999999684e-01 1.888575000000000115e+00 1.184339999999999975e+02 1.726154999999999973e+03
1.450000000000000178e-01 7.620074999999999488e-01 1.752864999999999895e+00 1.182584999999999980e+02 1.726099999999999909e+03
1.459999999999999909e-01 7.619799999999999907e-01 1.642590000000000217e+00 1.181129999999999995e+02 1.726059999999999945e+03
1.469999999999999918e-01 7.619575000000000653e-01 1.555104999999999960e+00 1.179904999999999973e+02 1.726019999999999982e+03
1.479999999999999927e-01 7.619365000000000165e-01 1.486785000000000023e+00 1.178810000000000002e+02 1.725985000000000127e+03
1.489999999999999936e-01 7.619145000000000501e-01 1.433378999999999959e+00 1.177750000000000057e+02 1.725954999999999927e+03
1.499999999999999944e-01 7.618899999999999562e-01 1.390328499999999856e+00 1.176620000000000061e+02 1.725920000000000073e+03
1.509999999999999953e-01 7.618599999999999817e-01 1.353069999999999995e+00 1.175335000000000036e+02 1.725880000000000109e+03
1.519999999999999962e-01 7.618230000000000279e-01 1.317319499999999977e+00 1.173805000000000121e+02 1.725835000000000036e+03
1.529999999999999971e-01 7.617780000000000662e-01 1.279313499999999992e+00 1.171959999999999980e+02 1.725784999999999854e+03
1.539999999999999980e-01 7.617234999999999978e-01 1.235994499999999885e+00 1.169759999999999991e+02 1.725730000000000018e+03
1.549999999999999989e-01 7.616594999999999338e-01 1.185149000000000008e+00 1.167175000000000011e+02 1.725660000000000082e+03
1.559999999999999998e-01 7.615864999999999441e-01 1.125526500000000096e+00 1.164209999999999923e+02 1.725579999999999927e+03
1.570000000000000007e-01 7.615049999999999875e-01 1.056846149999999929e+00 1.160889999999999986e+02 1.725494999999999891e+03
1.580000000000000016e-01 7.614159999999999817e-01 9.798347499999999766e-01 1.157249999999999943e+02 1.725400000000000091e+03
1.590000000000000024e-01 7.613214999999999844e-01 8.961295000000000233e-01 1.153365000000000009e+02 1.725300000000000182e+03
