# t [s], A [cm^2], U [cm/s], P [cPa], c [cm/s]
1.000000000000000021e-03 1.205549999999999955e-01 3.771999999999999797e-01 9.890540000000000020e+01 1.863894999999999982e+03
2.000000000000000042e-03 1.205269999999999953e-01 2.026500500000000038e+00 9.563700000000000045e+01 1.863529999999999973e+03
3.000000000000000062e-03 1.204375000000000029e-01 4.018260499999999347e+00 9.134120000000000061e+01 1.862400000000000091e+03
4.000000000000000083e-03 1.203084999999999988e-01 6.219185500000000033e+00 8.669265000000000043e+01 1.860799999999999955e+03
5.000000000000000104e-03 1.201640000000000069e-01 8.566589999999999705e+00 8.247935000000001082e+01 1.859025000000000091e+03
6.000000000000000125e-03 1.200199999999999878e-01 1.091969999999999885e+01 7.901054999999999495e+01 1.857279999999999973e+03
7.000000000000000146e-03 1.198835000000000039e-01 1.309266500000000022e+01 7.612960000000001060e+01 1.855634999999999991e+03
8.000000000000000167e-03 1.197560000000000013e-01 1.497749500000000111e+01 7.358135000000000048e+01 1.854125000000000000e+03
9.000000000000001055e-03 1.196395000000000097e-01 1.658330000000000126e+01 7.131925000000001091e+01 1.852775000000000091e+03
1.000000000000000194e-02 1.195374999999999910e-01 1.794885000000000019e+01 6.940834999999999866e+01 1.851605000000000018e+03
1.099999999999999936e-02 1.194510000000000016e-01 1.909195000000000064e+01 6.785335000000000605e+01 1.850615000000000009e+03
1.200000000000000025e-02 1.193784999999999985e-01 2.002530000000000143e+01 6.660900000000000887e+01 1.849804999999999836e+03
1.300000000000000114e-02 1.193195000000000089e-01 2.076235000000000142e+01 6.562260000000000559e+01 1.849144999999999982e+03
1.400000000000000203e-02 1.192715000000000025e-01 2.131065000000000254e+01 6.482365000000000066e+01 1.848619999999999891e+03
1.499999999999999944e-02 1.192314999999999903e-01 2.168590000000000018e+01 6.414220000000000255e+01 1.848190000000000055e+03
1.600000000000000033e-02 1.191984999999999989e-01 2.194164999999999921e+01 6.358884999999999366e+01 1.847845000000000027e+03
1.700000000000000122e-02 1.191750000000000032e-01 2.217674999999999841e+01 6.331069999999999709e+01 1.847605000000000018e+03
1.800000000000000211e-02 1.191654999999999937e-01 2.250375000000000014e+01 6.354495000000000005e+01 1.847514999999999873e+03
1.900000000000000300e-02 1.191740000000000022e-01 2.299819999999999709e+01 6.448770000000000380e+01 1.847625000000000000e+03
2.000000000000000042e-02 1.192024999999999890e-01 2.366069999999999851e+01 6.616469999999999629e+01 1.847960000000000036e+03
2.100000000000000130e-02 1.192499999999999949e-01 2.441409999999999769e+01 6.838070000000000448e+01 1.848500000000000000e+03
2.200000000000000219e-02 1.193089999999999984e-01 2.513105000000000189e+01 7.076740000000000919e+01 1.849184999999999945e+03
2.299999999999999961e-02 1.193710000000000049e-01 2.567820000000000036e+01 7.289855000000000018e+01 1.849904999999999973e+03
2.400000000000000050e-02 1.194254999999999900e-01 2.595775000000000077e+01 7.441955000000000098e+01 1.850554999999999836e+03
2.500000000000000139e-02 1.194659999999999889e-01 2.593270000000000053e+01 7.514324999999999477e+01 1.851049999999999955e+03
2.600000000000000228e-02 1.194894999999999985e-01 2.563049999999999784e+01 7.508485000000000298e+01 1.851335000000000036e+03
2.700000000000000316e-02 1.194955000000000045e-01 2.512620000000000076e+01 7.443074999999998909e+01 1.851434999999999945e+03
2.800000000000000058e-02 1.194884999999999975e-01 2.451399999999999935e+01 7.346035000000000537e+01 1.851375000000000000e+03
2.900000000000000147e-02 1.194739999999999969e-01 2.387754999999999939e+01 7.245125000000000171e+01 1.851219999999999800e+03
3.000000000000000236e-02 1.194569999999999937e-01 2.326955000000000240e+01 7.160200000000000387e+01 1.851034999999999854e+03
3.099999999999999978e-02 1.194415000000000060e-01 2.270384999999999920e+01 7.099170000000000869e+01 1.850860000000000127e+03
3.200000000000000067e-02 1.194290000000000074e-01 2.216174999999999784e+01 7.058350000000000080e+01 1.850715000000000146e+03
3.300000000000000155e-02 1.194184999999999969e-01 2.160620000000000118e+01 7.026195000000001301e+01 1.850595000000000027e+03
3.400000000000000244e-02 1.194069999999999993e-01 2.100050000000000239e+01 6.988779999999999859e+01 1.850464999999999918e+03
3.500000000000000333e-02 1.193935000000000135e-01 2.032419999999999760e+01 6.935304999999999609e+01 1.850315000000000055e+03
3.600000000000000422e-02 1.193760000000000099e-01 1.958370000000000033e+01 6.862129999999999086e+01 1.850119999999999891e+03
3.700000000000000511e-02 1.193535000000000013e-01 1.881400000000000006e+01 6.774424999999999386e+01 1.849869999999999891e+03
3.799999999999999906e-02 1.193295000000000050e-01 1.807290000000000063e+01 6.685179999999999723e+01 1.849594999999999800e+03
3.899999999999999994e-02 1.193059999999999954e-01 1.742774999999999963e+01 6.611979999999999791e+01 1.849329999999999927e+03
4.000000000000000083e-02 1.192880000000000051e-01 1.694010000000000105e+01 6.572504999999999598e+01 1.849119999999999891e+03
4.100000000000000172e-02 1.192795000000000105e-01 1.665105000000000146e+01 6.579919999999999902e+01 1.849009999999999991e+03
4.200000000000000261e-02 1.192830000000000001e-01 1.657195000000000107e+01 6.639539999999999509e+01 1.849034999999999854e+03
4.300000000000000350e-02 1.192995000000000028e-01 1.668110000000000070e+01 6.747284999999999400e+01 1.849210000000000036e+03
4.400000000000000439e-02 1.193275000000000030e-01 1.692764999999999986e+01 6.890334999999998900e+01 1.849519999999999982e+03
4.499999999999999833e-02 1.193639999999999979e-01 1.724060000000000059e+01 7.049429999999999552e+01 1.849924999999999955e+03
4.599999999999999922e-02 1.194044999999999968e-01 1.753999999999999915e+01 7.202289999999999281e+01 1.850385000000000218e+03
4.700000000000000011e-02 1.194434999999999941e-01 1.774884999999999735e+01 7.327160000000000650e+01 1.850829999999999927e+03
4.800000000000000100e-02 1.194754999999999984e-01 1.780270000000000152e+01 7.405979999999999563e+01 1.851199999999999818e+03
4.900000000000000189e-02 1.194965000000000055e-01 1.765595000000000070e+01 7.426465000000000316e+01 1.851444999999999936e+03
5.000000000000000278e-02 1.195029999999999981e-01 1.728464999999999918e+01 7.383029999999999404e+01 1.851525000000000091e+03
5.100000000000000366e-02 1.194925000000000015e-01 1.668564999999999898e+01 7.276609999999999445e+01 1.851420000000000073e+03
5.200000000000000455e-02 1.194650000000000017e-01 1.587379999999999924e+01 7.113485000000000014e+01 1.851115000000000009e+03
5.300000000000000544e-02 1.194230000000000014e-01 1.487710000000000043e+01 6.903735000000000355e+01 1.850639999999999873e+03
5.399999999999999939e-02 1.193670000000000009e-01 1.373209999999999908e+01 6.659470000000000312e+01 1.850009999999999991e+03
5.500000000000000028e-02 1.193005000000000038e-01 1.247969499999999954e+01 6.393345000000000056e+01 1.849250000000000000e+03
5.600000000000000117e-02 1.192259999999999986e-01 1.116253500000000010e+01 6.117499999999999716e+01 1.848404999999999973e+03
5.700000000000000205e-02 1.191475000000000034e-01 9.822845000000000937e+00 5.842960000000000065e+01 1.847509999999999991e+03
5.800000000000000294e-02 1.190674999999999928e-01 8.502114999999999867e+00 5.579509999999999792e+01 1.846595000000000027e+03
5.900000000000000383e-02 1.189894999999999980e-01 7.240980000000000416e+00 5.335840000000000316e+01 1.845690000000000055e+03
6.000000000000000472e-02 1.189149999999999929e-01 6.079439999999999955e+00 5.119849999999999568e+01 1.844840000000000146e+03
6.099999999999999867e-02 1.188480000000000092e-01 5.056805000000000661e+00 4.938920000000000243e+01 1.844065000000000055e+03
6.199999999999999956e-02 1.187894999999999923e-01 4.211314999999999920e+00 4.800070000000000192e+01 1.843384999999999991e+03
6.300000000000000044e-02 1.187430000000000152e-01 3.579209999999999781e+00 4.709935000000000116e+01 1.842844999999999800e+03
6.400000000000000133e-02 1.187104999999999966e-01 3.193349999999999689e+00 4.674569999999999936e+01 1.842460000000000036e+03
6.500000000000000222e-02 1.186935000000000073e-01 3.081520000000000259e+00 4.699125000000000085e+01 1.842244999999999891e+03
6.600000000000000311e-02 1.186935000000000073e-01 3.264750000000000263e+00 4.787399999999999523e+01 1.842230000000000018e+03
6.700000000000000400e-02 1.187119999999999981e-01 3.755790000000000184e+00 4.941525000000000034e+01 1.842424999999999955e+03
6.800000000000000488e-02 1.187509999999999954e-01 4.558065000000000033e+00 5.161629999999999541e+01 1.842845000000000027e+03
6.900000000000000577e-02 1.188089999999999979e-01 5.665239999999999831e+00 5.445695000000000618e+01 1.843490000000000009e+03
7.000000000000000666e-02 1.188864999999999922e-01 7.061379999999999768e+00 5.789610000000000412e+01 1.844355000000000018e+03
7.100000000000000755e-02 1.189820000000000044e-01 8.721849999999999881e+00 6.187330000000000041e+01 1.845434999999999945e+03
7.200000000000000844e-02 1.190944999999999920e-01 1.061446499999999915e+01 6.631244999999999834e+01 1.846710000000000036e+03
7.300000000000000933e-02 1.192219999999999946e-01 1.270130999999999943e+01 7.112604999999999222e+01 1.848155000000000200e+03
7.399999999999999634e-02 1.193619999999999959e-01 1.494045000000000023e+01 7.621979999999999222e+01 1.849755000000000109e+03
7.499999999999999722e-02 1.195119999999999932e-01 1.728805000000000192e+01 8.149764999999999304e+01 1.851470000000000027e+03
7.599999999999999811e-02 1.196689999999999976e-01 1.969975000000000165e+01 8.686625000000000796e+01 1.853279999999999973e+03
7.699999999999999900e-02 1.198305000000000065e-01 2.213304999999999723e+01 9.223879999999999768e+01 1.855150000000000091e+03
7.799999999999999989e-02 1.199945000000000039e-01 2.454809999999999803e+01 9.753804999999999836e+01 1.857045000000000073e+03
7.900000000000000078e-02 1.201575000000000004e-01 2.690959999999999752e+01 1.026992999999999938e+02 1.858949999999999818e+03
8.000000000000000167e-02 1.203189999999999954e-01 2.918755000000000166e+01 1.076726500000000044e+02 1.860825000000000045e+03
8.100000000000000255e-02 1.204754999999999993e-01 3.135790000000000077e+01 1.124230000000000018e+02 1.862670000000000073e+03
8.200000000000000344e-02 1.206279999999999852e-01 3.340344999999999942e+01 1.169304999999999950e+02 1.864460000000000036e+03
8.300000000000000433e-02 1.207739999999999925e-01 3.531349999999999767e+01 1.211889999999999930e+02 1.866180000000000064e+03
8.400000000000000522e-02 1.209135000000000071e-01 3.708364999999999867e+01 1.252094999999999914e+02 1.867835000000000036e+03
8.500000000000000611e-02 1.210469999999999879e-01 3.871549999999999869e+01 1.290099999999999909e+02 1.869414999999999964e+03
8.600000000000000699e-02 1.211740000000000039e-01 4.021519999999999584e+01 1.326194999999999879e+02 1.870930000000000064e+03
8.700000000000000788e-02 1.212955000000000005e-01 4.159265000000000612e+01 1.360709999999999980e+02 1.872384999999999991e+03
8.800000000000000877e-02 1.214125000000000065e-01 4.286020000000000607e+01 1.394014999999999986e+02 1.873784999999999854e+03
8.899999999999999578e-02 1.215265000000000095e-01 4.403119999999999834e+01 1.426440000000000055e+02 1.875144999999999982e+03
8.999999999999999667e-02 1.216365000000000085e-01 4.511894999999999811e+01 1.458299999999999841e+02 1.876464999999999918e+03
9.099999999999999756e-02 1.217449999999999921e-01 4.613550000000000040e+01 1.489830000000000041e+02 1.877769999999999982e+03
9.199999999999999845e-02 1.218515000000000015e-01 4.709080000000000155e+01 1.521195000000000164e+02 1.879045000000000073e+03
9.299999999999999933e-02 1.219570000000000098e-01 4.799200000000000443e+01 1.552460000000000093e+02 1.880315000000000055e+03
9.400000000000000022e-02 1.220620000000000038e-01 4.884319999999999595e+01 1.583609999999999900e+02 1.881574999999999818e+03
9.500000000000000111e-02 1.221665000000000112e-01 4.964520000000000266e+01 1.614544999999999959e+02 1.882825000000000045e+03
9.600000000000000200e-02 1.222690000000000027e-01 5.039574999999999960e+01 1.645074999999999932e+02 1.884065000000000055e+03
9.700000000000000289e-02 1.223704999999999932e-01 5.108975000000000222e+01 1.674954999999999927e+02 1.885284999999999854e+03
9.800000000000000377e-02 1.224689999999999945e-01 5.171985000000000099e+01 1.703894999999999982e+02 1.886480000000000018e+03
9.900000000000000466e-02 1.225649999999999934e-01 5.227700000000000102e+01 1.731574999999999989e+02 1.887634999999999991e+03
1.000000000000000056e-01 1.226575000000000026e-01 5.275110000000000099e+01 1.757665000000000077e+02 1.888750000000000000e+03
1.010000000000000064e-01 1.227449999999999930e-01 5.313165000000000049e+01 1.781845000000000141e+02 1.889809999999999945e+03
1.020000000000000073e-01 1.228259999999999907e-01 5.340845000000000198e+01 1.803810000000000002e+02 1.890795000000000073e+03
1.030000000000000082e-01 1.229014999999999969e-01 5.357224999999999682e+01 1.823305000000000007e+02 1.891710000000000036e+03
1.040000000000000091e-01 1.229689999999999950e-01 5.361509999999999820e+01 1.840115000000000123e+02 1.892539999999999964e+03
1.050000000000000100e-01 1.230285000000000128e-01 5.353104999999999336e+01 1.854074999999999989e+02 1.893264999999999873e+03
1.059999999999999970e-01 1.230795000000000083e-01 5.331634999999999991e+01 1.865095000000000027e+02 1.893894999999999982e+03
1.069999999999999979e-01 1.231224999999999958e-01 5.296980000000000643e+01 1.873129999999999882e+02 1.894414999999999964e+03
1.079999999999999988e-01 1.231555000000000011e-01 5.249285000000000423e+01 1.878224999999999909e+02 1.894829999999999927e+03
1.089999999999999997e-01 1.231794999999999973e-01 5.188989999999999725e+01 1.880469999999999970e+02 1.895134999999999991e+03
1.100000000000000006e-01 1.231949999999999990e-01 5.116779999999999973e+01 1.880010000000000048e+02 1.895329999999999927e+03
1.110000000000000014e-01 1.232020000000000060e-01 5.033599999999999852e+01 1.877065000000000055e+02 1.895429999999999836e+03
1.120000000000000023e-01 1.232010000000000050e-01 4.940630000000000166e+01 1.871895000000000095e+02 1.895429999999999836e+03
1.130000000000000032e-01 1.231929999999999970e-01 4.839220000000000255e+01 1.864784999999999968e+02 1.895345000000000027e+03
1.140000000000000041e-01 1.231784999999999963e-01 4.730865000000000009e+01 1.856055000000000064e+02 1.895179999999999836e+03
1.150000000000000050e-01 1.231580000000000036e-01 4.617170000000000130e+01 1.846039999999999850e+02 1.894940000000000055e+03
1.160000000000000059e-01 1.231335000000000068e-01 4.499739999999999895e+01 1.835074999999999932e+02 1.894654999999999973e+03
1.170000000000000068e-01 1.231054999999999927e-01 4.380180000000000007e+01 1.823485000000000014e+02 1.894320000000000164e+03
1.180000000000000077e-01 1.230740000000000028e-01 4.260025000000000261e+01 1.811564999999999941e+02 1.893950000000000045e+03
1.190000000000000085e-01 1.230409999999999976e-01 4.140675000000000239e+01 1.799600000000000080e+02 1.893549999999999955e+03
1.200000000000000094e-01 1.230074999999999918e-01 4.023380000000000223e+01 1.787814999999999941e+02 1.893150000000000091e+03
1.209999999999999964e-01 1.229729999999999990e-01 3.909159999999999968e+01 1.776385000000000218e+02 1.892735000000000127e+03
1.219999999999999973e-01 1.229389999999999927e-01 3.798859999999999815e+01 1.765455000000000041e+02 1.892329999999999927e+03
1.229999999999999982e-01 1.229065000000000019e-01 3.693040000000000589e+01 1.755109999999999957e+02 1.891930000000000064e+03
1.239999999999999991e-01 1.228744999999999976e-01 3.592040000000000077e+01 1.745364999999999895e+02 1.891539999999999964e+03
1.250000000000000000e-01 1.228434999999999944e-01 3.495945000000000391e+01 1.736220000000000141e+02 1.891170000000000073e+03
1.260000000000000009e-01 1.228144999999999931e-01 3.404625000000000057e+01 1.727599999999999909e+02 1.890809999999999945e+03
1.270000000000000018e-01 1.227864999999999929e-01 3.317745000000000033e+01 1.719399999999999977e+02 1.890470000000000027e+03
1.280000000000000027e-01 1.227590000000000070e-01 3.234775000000000489e+01 1.711490000000000009e+02 1.890139999999999873e+03
1.290000000000000036e-01 1.227330000000000088e-01 3.155065000000000097e+01 1.703704999999999927e+02 1.889815000000000055e+03
1.300000000000000044e-01 1.227064999999999961e-01 3.077839999999999776e+01 1.695875000000000057e+02 1.889500000000000000e+03
1.310000000000000053e-01 1.226810000000000123e-01 3.002284999999999826e+01 1.687814999999999941e+02 1.889180000000000064e+03
1.320000000000000062e-01 1.226540000000000130e-01 2.927535000000000309e+01 1.679345000000000141e+02 1.888849999999999909e+03
1.330000000000000071e-01 1.226260000000000128e-01 2.852770000000000294e+01 1.670300000000000011e+02 1.888515000000000100e+03
1.340000000000000080e-01 1.225964999999999971e-01 2.777190000000000225e+01 1.660529999999999973e+02 1.888154999999999973e+03
1.350000000000000089e-01 1.225650000000000073e-01 2.700110000000000099e+01 1.649915000000000020e+02 1.887775000000000091e+03
1.360000000000000098e-01 1.225310000000000010e-01 2.620955000000000013e+01 1.638350000000000080e+02 1.887365000000000009e+03
1.370000000000000107e-01 1.224944999999999923e-01 2.539289999999999736e+01 1.625780000000000030e+02 1.886925000000000182e+03
1.380000000000000115e-01 1.224544999999999939e-01 2.454834999999999923e+01 1.612180000000000177e+02 1.886454999999999927e+03
1.390000000000000124e-01 1.224120000000000069e-01 2.367490000000000094e+01 1.597570000000000050e+02 1.885940000000000055e+03
1.400000000000000133e-01 1.223664999999999892e-01 2.277325000000000088e+01 1.581995000000000005e+02 1.885400000000000091e+03
1.410000000000000142e-01 1.223184999999999967e-01 2.184579999999999700e+01 1.565554999999999950e+02 1.884820000000000164e+03
1.420000000000000151e-01 1.222675000000000012e-01 2.089674999999999727e+01 1.548360000000000127e+02 1.884215000000000146e+03
1.430000000000000160e-01 1.222145000000000037e-01 1.993165000000000120e+01 1.530569999999999879e+02 1.883579999999999927e+03
1.440000000000000169e-01 1.221590000000000037e-01 1.895730000000000004e+01 1.512359999999999900e+02 1.882920000000000073e+03
1.450000000000000178e-01 1.221020000000000022e-01 1.798170000000000002e+01 1.493919999999999959e+02 1.882244999999999891e+03
1.459999999999999909e-01 1.220450000000000007e-01 1.701344999999999885e+01 1.475459999999999923e+02 1.881559999999999945e+03
1.469999999999999918e-01 1.219869999999999982e-01 1.606159999999999854e+01 1.457185000000000059e+02 1.880865000000000009e+03
1.479999999999999927e-01 1.219294999999999962e-01 1.513519999999999932e+01 1.439300000000000068e+02 1.880179999999999836e+03
1.489999999999999936e-01 1.218724999999999947e-01 1.424310000000000009e+01 1.421999999999999886e+02 1.879500000000000000e+03
1.499999999999999944e-01 1.218170000000000086e-01 1.339355000000000118e+01 1.405459999999999923e+02 1.878840000000000146e+03
1.509999999999999953e-01 1.217640000000000111e-01 1.259385500000000135e+01 1.389825000000000159e+02 1.878204999999999927e+03
1.519999999999999962e-01 1.217130000000000156e-01 1.185034500000000079e+01 1.375230000000000246e+02 1.877595000000000027e+03
1.529999999999999971e-01 1.216649999999999954e-01 1.116787000000000063e+01 1.361759999999999877e+02 1.877019999999999982e+03
1.539999999999999980e-01 1.216200000000000059e-01 1.054992500000000000e+01 1.349479999999999791e+02 1.876480000000000018e+03
1.549999999999999989e-01 1.215779999999999916e-01 9.998509999999999565e+00 1.338425000000000011e+02 1.875980000000000018e+03
1.559999999999999998e-01 1.215399999999999953e-01 9.514005000000000933e+00 1.328575000000000159e+02 1.875525000000000091e+03
1.570000000000000007e-01 1.215060000000000029e-01 9.095430000000000348e+00 1.319895000000000209e+02 1.875105000000000018e+03
1.580000000000000016e-01 1.214744999999999853e-01 8.740289999999999893e+00 1.312319999999999993e+02 1.874735000000000127e+03
1.590000000000000024e-01 1.214469999999999994e-01 8.444900000000000517e+00 1.305765000000000100e+02 1.874400000000000091e+03
