# t [s], A [cm^2], U [cm/s], P [cPa], c [cm/s]
1.000000000000000021e-03 2.063214999999999910e-01 2.998224500000000181e-01 1.046389999999999958e+02 2.211690000000000055e+03
2.000000000000000042e-03 2.062539999999999929e-01 1.937965500000000230e+00 1.009210999999999956e+02 2.211114999999999782e+03
3.000000000000000062e-03 2.060835000000000028e-01 4.003319000000000294e+00 9.557345000000000823e+01 2.209744999999999891e+03
4.000000000000000083e-03 2.058590000000000142e-01 6.354215499999999572e+00 8.978174999999998818e+01 2.207970000000000255e+03
5.000000000000000104e-03 2.056280000000000052e-01 8.879395000000000593e+00 8.469380000000001019e+01 2.206159999999999854e+03
6.000000000000000125e-03 2.054120000000000112e-01 1.131610000000000049e+01 8.058199999999999363e+01 2.204489999999999782e+03
7.000000000000000146e-03 2.052140000000000075e-01 1.338762999999999970e+01 7.704019999999999868e+01 2.202994999999999891e+03
8.000000000000000167e-03 2.050374999999999837e-01 1.504909999999999926e+01 7.389275000000000659e+01 2.201694999999999709e+03
9.000000000000001055e-03 2.048905000000000032e-01 1.637044999999999817e+01 7.129710000000000036e+01 2.200619999999999891e+03
1.000000000000000194e-02 2.047724999999999962e-01 1.739025000000000176e+01 6.930434999999999945e+01 2.199769999999999982e+03
1.099999999999999936e-02 2.046830000000000038e-01 1.814450000000000074e+01 6.786969999999999459e+01 2.199140000000000327e+03
1.200000000000000025e-02 2.046189999999999953e-01 1.865939999999999799e+01 6.690644999999999243e+01 2.198694999999999709e+03
1.300000000000000114e-02 2.045724999999999905e-01 1.893270000000000053e+01 6.622220000000000084e+01 2.198380000000000109e+03
1.400000000000000203e-02 2.045369999999999966e-01 1.900469999999999970e+01 6.567144999999999300e+01 2.198155000000000200e+03
1.499999999999999944e-02 2.045159999999999756e-01 1.903314999999999912e+01 6.543850000000000477e+01 2.198025000000000091e+03
1.600000000000000033e-02 2.045234999999999970e-01 1.924609999999999843e+01 6.603870000000000573e+01 2.198095000000000255e+03
1.700000000000000122e-02 2.045734999999999915e-01 1.980109999999999815e+01 6.795135000000000502e+01 2.198465000000000146e+03
1.800000000000000211e-02 2.046695000000000042e-01 2.067345000000000255e+01 7.120179999999999154e+01 2.199164999999999964e+03
1.900000000000000300e-02 2.047990000000000088e-01 2.165549999999999997e+01 7.522044999999999959e+01 2.200109999999999673e+03
2.000000000000000042e-02 2.049354999999999927e-01 2.245449999999999946e+01 7.905235000000000412e+01 2.201125000000000000e+03
2.100000000000000130e-02 2.050494999999999957e-01 2.282455000000000211e+01 8.176420000000000243e+01 2.202000000000000000e+03
2.200000000000000219e-02 2.051200000000000245e-01 2.266424999999999912e+01 8.282120000000000459e+01 2.202554999999999836e+03
2.299999999999999961e-02 2.051394999999999746e-01 2.204200000000000159e+01 8.226380000000000337e+01 2.202744999999999891e+03
2.400000000000000050e-02 2.051175000000000082e-01 2.114695000000000036e+01 8.062550000000000239e+01 2.202609999999999673e+03
2.500000000000000139e-02 2.050724999999999909e-01 2.019740000000000180e+01 7.865954999999999586e+01 2.202289999999999964e+03
2.600000000000000228e-02 2.050244999999999984e-01 1.935195000000000221e+01 7.701644999999999186e+01 2.201940000000000055e+03
2.700000000000000316e-02 2.049870000000000025e-01 1.866055000000000064e+01 7.601574999999999704e+01 2.201655000000000200e+03
2.800000000000000058e-02 2.049640000000000073e-01 1.806674999999999898e+01 7.558529999999998950e+01 2.201474999999999909e+03
2.900000000000000147e-02 2.049484999999999779e-01 1.745125000000000171e+01 7.536254999999999882e+01 2.201355000000000018e+03
3.000000000000000236e-02 2.049294999999999867e-01 1.669350000000000023e+01 7.489159999999999684e+01 2.201220000000000255e+03
3.099999999999999978e-02 2.048964999999999814e-01 1.573069999999999879e+01 7.383684999999999832e+01 2.200985000000000127e+03
3.200000000000000067e-02 2.048440000000000261e-01 1.459209999999999852e+01 7.213900000000001000e+01 2.200605000000000018e+03
3.300000000000000155e-02 2.047760000000000136e-01 1.339864999999999995e+01 7.005989999999999895e+01 2.200114999999999782e+03
3.400000000000000244e-02 2.047059999999999991e-01 1.232779999999999987e+01 6.810429999999999495e+01 2.199599999999999909e+03
3.500000000000000333e-02 2.046514999999999862e-01 1.155648000000000053e+01 6.684754999999999825e+01 2.199184999999999945e+03
3.600000000000000422e-02 2.046274999999999900e-01 1.120485000000000042e+01 6.673969999999999914e+01 2.198985000000000127e+03
3.700000000000000511e-02 2.046450000000000213e-01 1.130044999999999966e+01 6.795730000000000359e+01 2.199079999999999927e+03
3.799999999999999906e-02 2.047034999999999827e-01 1.177165000000000106e+01 7.034819999999999141e+01 2.199480000000000018e+03
3.899999999999999994e-02 2.047940000000000038e-01 1.246870000000000012e+01 7.347605000000000075e+01 2.200130000000000109e+03
4.000000000000000083e-02 2.048999999999999988e-01 1.320129999999999981e+01 7.673619999999999663e+01 2.200904999999999745e+03
4.100000000000000172e-02 2.050024999999999764e-01 1.378020000000000067e+01 7.949965000000000259e+01 2.201659999999999854e+03
4.200000000000000261e-02 2.050814999999999999e-01 1.405229999999999890e+01 8.124439999999999884e+01 2.202260000000000218e+03
4.300000000000000350e-02 2.051235000000000142e-01 1.392190000000000083e+01 8.164355000000000473e+01 2.202585000000000036e+03
4.400000000000000439e-02 2.051189999999999958e-01 1.335679999999999978e+01 8.059775000000000489e+01 2.202579999999999927e+03
4.499999999999999833e-02 2.050675000000000137e-01 1.238090000000000046e+01 7.821465000000000600e+01 2.202224999999999909e+03
4.599999999999999922e-02 2.049730000000000163e-01 1.105729999999999968e+01 7.474889999999999191e+01 2.201550000000000182e+03
4.700000000000000011e-02 2.048439999999999983e-01 9.469224999999999781e+00 7.052729999999999677e+01 2.200605000000000018e+03
4.800000000000000100e-02 2.046899999999999831e-01 7.703440000000000509e+00 6.587900000000000489e+01 2.199480000000000018e+03
4.900000000000000189e-02 2.045220000000000093e-01 5.839780000000000193e+00 6.108825000000000216e+01 2.198239999999999782e+03
5.000000000000000278e-02 2.043480000000000019e-01 3.947139999999999649e+00 5.637415000000000020e+01 2.196949999999999818e+03
5.100000000000000366e-02 2.041755000000000098e-01 2.085230000000000139e+00 5.189435000000000286e+01 2.195675000000000182e+03
5.200000000000000455e-02 2.040109999999999979e-01 3.086450000000000582e-01 4.776449999999999818e+01 2.194449999999999818e+03
5.300000000000000544e-02 2.038575000000000248e-01 -1.328765000000000196e+00 4.408089999999999975e+01 2.193305000000000291e+03
5.399999999999999939e-02 2.037214999999999998e-01 -2.771380500000000247e+00 4.093965000000000032e+01 2.192284999999999854e+03
5.500000000000000028e-02 2.036054999999999948e-01 -3.962155000000000094e+00 3.844504999999999484e+01 2.191414999999999964e+03
5.600000000000000117e-02 2.035150000000000015e-01 -4.845665000000000333e+00 3.670754999999999768e+01 2.190720000000000255e+03
5.700000000000000205e-02 2.034535000000000093e-01 -5.373105000000000686e+00 3.583205000000000240e+01 2.190244999999999891e+03
5.800000000000000294e-02 2.034249999999999947e-01 -5.507789999999999964e+00 3.590174999999999983e+01 2.190005000000000109e+03
5.900000000000000383e-02 2.034325000000000161e-01 -5.229860000000000397e+00 3.696219999999999573e+01 2.190029999999999745e+03
6.000000000000000472e-02 2.034765000000000046e-01 -4.539100000000000357e+00 3.901064999999999827e+01 2.190319999999999709e+03
6.099999999999999867e-02 2.035560000000000147e-01 -3.455384999999999707e+00 4.199139999999999873e+01 2.190885000000000218e+03
6.199999999999999956e-02 2.036699999999999899e-01 -2.017025000000000290e+00 4.579999999999999716e+01 2.191690000000000055e+03
6.300000000000000044e-02 2.038130000000000219e-01 -2.773350000000001092e-01 5.029219999999999402e+01 2.192724999999999909e+03
6.400000000000000133e-02 2.039810000000000234e-01 1.699550000000000116e+00 5.529735000000000156e+01 2.193945000000000164e+03
6.500000000000000222e-02 2.041669999999999874e-01 3.843157999999999852e+00 6.063194999999999624e+01 2.195309999999999945e+03
6.600000000000000311e-02 2.043645000000000045e-01 6.080940000000000012e+00 6.611284999999999457e+01 2.196764999999999873e+03
6.700000000000000400e-02 2.045675000000000132e-01 8.342200000000000060e+00 7.156839999999999691e+01 2.198269999999999982e+03
6.800000000000000488e-02 2.047700000000000076e-01 1.056166500000000141e+01 7.684784999999999400e+01 2.199775000000000091e+03
6.900000000000000577e-02 2.049660000000000093e-01 1.268273500000000098e+01 8.182849999999999113e+01 2.201239999999999782e+03
7.000000000000000666e-02 2.051520000000000010e-01 1.466014999999999979e+01 8.642234999999999445e+01 2.202640000000000327e+03
7.100000000000000755e-02 2.053254999999999941e-01 1.646215000000000117e+01 9.057894999999999186e+01 2.203944999999999709e+03
7.200000000000000844e-02 2.054834999999999856e-01 1.807140000000000057e+01 9.428749999999999432e+01 2.205144999999999982e+03
7.300000000000000933e-02 2.056264999999999898e-01 1.948494999999999777e+01 9.757399999999999807e+01 2.206239999999999782e+03
7.399999999999999634e-02 2.057559999999999945e-01 2.071305000000000263e+01 1.004968999999999966e+02 2.207224999999999909e+03
7.499999999999999722e-02 2.058730000000000004e-01 2.177660000000000196e+01 1.031382499999999993e+02 2.208125000000000000e+03
7.599999999999999811e-02 2.059814999999999841e-01 2.270364999999999966e+01 1.055939999999999941e+02 2.208954999999999927e+03
7.699999999999999900e-02 2.060839999999999894e-01 2.352620000000000289e+01 1.079620000000000033e+02 2.209739999999999782e+03
7.799999999999999989e-02 2.061834999999999918e-01 2.427625000000000099e+01 1.103319999999999936e+02 2.210505000000000109e+03
7.900000000000000078e-02 2.062839999999999951e-01 2.498254999999999981e+01 1.127785000000000082e+02 2.211269999999999982e+03
8.000000000000000167e-02 2.063869999999999871e-01 2.566829999999999856e+01 1.153504999999999967e+02 2.212054999999999836e+03
8.100000000000000255e-02 2.064940000000000109e-01 2.634924999999999784e+01 1.180739999999999981e+02 2.212869999999999891e+03
8.200000000000000344e-02 2.066060000000000119e-01 2.703284999999999982e+01 1.209459999999999980e+02 2.213720000000000255e+03
8.300000000000000433e-02 2.067219999999999891e-01 2.771855000000000047e+01 1.239394999999999953e+02 2.214599999999999909e+03
8.400000000000000522e-02 2.068419999999999981e-01 2.839825000000000088e+01 1.270079999999999956e+02 2.215505000000000109e+03
8.500000000000000611e-02 2.069630000000000081e-01 2.905754999999999910e+01 1.300875000000000057e+02 2.216425000000000182e+03
8.600000000000000699e-02 2.070835000000000037e-01 2.967759999999999820e+01 1.331070000000000277e+02 2.217345000000000255e+03
8.700000000000000788e-02 2.072005000000000097e-01 3.023649999999999949e+01 1.359904999999999973e+02 2.218234999999999673e+03
8.800000000000000877e-02 2.073119999999999963e-01 3.071144999999999925e+01 1.386650000000000205e+02 2.219085000000000036e+03
8.899999999999999578e-02 2.074150000000000160e-01 3.108010000000000161e+01 1.410620000000000118e+02 2.219869999999999891e+03
8.999999999999999667e-02 2.075069999999999970e-01 3.132235000000000014e+01 1.431240000000000236e+02 2.220574999999999818e+03
9.099999999999999756e-02 2.075859999999999927e-01 3.142150000000000176e+01 1.448064999999999998e+02 2.221184999999999945e+03
9.199999999999999845e-02 2.076510000000000022e-01 3.136540000000000106e+01 1.460790000000000077e+02 2.221690000000000055e+03
9.299999999999999933e-02 2.077005000000000101e-01 3.114724999999999966e+01 1.469264999999999759e+02 2.222079999999999927e+03
9.400000000000000022e-02 2.077335000000000154e-01 3.076604999999999990e+01 1.473520000000000039e+02 2.222345000000000255e+03
9.500000000000000111e-02 2.077519999999999922e-01 3.022655000000000314e+01 1.473720000000000141e+02 2.222500000000000000e+03
9.600000000000000200e-02 2.077549999999999952e-01 2.953945000000000221e+01 1.470169999999999959e+02 2.222534999999999854e+03
9.700000000000000289e-02 2.077439999999999842e-01 2.872034999999999982e+01 1.463315000000000055e+02 2.222465000000000146e+03
9.800000000000000377e-02 2.077209999999999890e-01 2.778904999999999959e+01 1.453675000000000068e+02 2.222300000000000182e+03
9.900000000000000466e-02 2.076875000000000249e-01 2.676865000000000094e+01 1.441845000000000141e+02 2.222059999999999945e+03
1.000000000000000056e-01 2.076465000000000116e-01 2.568424999999999869e+01 1.428445000000000107e+02 2.221755000000000109e+03
1.010000000000000064e-01 2.075990000000000058e-01 2.456165000000000020e+01 1.414089999999999918e+02 2.221404999999999745e+03
1.020000000000000073e-01 2.075480000000000103e-01 2.342630000000000123e+01 1.399370000000000118e+02 2.221024999999999636e+03
1.030000000000000082e-01 2.074954999999999994e-01 2.230235000000000056e+01 1.384830000000000041e+02 2.220625000000000000e+03
1.040000000000000091e-01 2.074429999999999885e-01 2.121134999999999948e+01 1.370935000000000059e+02 2.220230000000000018e+03
1.050000000000000100e-01 2.073929999999999940e-01 2.017180000000000106e+01 1.358059999999999832e+02 2.219849999999999909e+03
1.059999999999999970e-01 2.073464999999999892e-01 1.919814999999999827e+01 1.346485000000000127e+02 2.219489999999999782e+03
1.069999999999999979e-01 2.073034999999999739e-01 1.830064999999999742e+01 1.336380000000000052e+02 2.219164999999999964e+03
1.079999999999999988e-01 2.072665000000000202e-01 1.748470000000000013e+01 1.327785000000000082e+02 2.218869999999999891e+03
1.089999999999999997e-01 2.072335000000000149e-01 1.675070000000000192e+01 1.320649999999999977e+02 2.218619999999999891e+03
1.100000000000000006e-01 2.072065000000000157e-01 1.609459999999999980e+01 1.314809999999999945e+02 2.218399999999999636e+03
1.110000000000000014e-01 2.071830000000000060e-01 1.550774999999999970e+01 1.309979999999999905e+02 2.218215000000000146e+03
1.120000000000000023e-01 2.071624999999999994e-01 1.497794999999999987e+01 1.305815000000000055e+02 2.218059999999999945e+03
1.130000000000000032e-01 2.071445000000000092e-01 1.449005000000000010e+01 1.301910000000000025e+02 2.217914999999999964e+03
1.140000000000000041e-01 2.071264999999999912e-01 1.402694999999999936e+01 1.297820000000000107e+02 2.217769999999999982e+03
1.150000000000000050e-01 2.071080000000000143e-01 1.357120000000000104e+01 1.293100000000000023e+02 2.217630000000000109e+03
1.160000000000000059e-01 2.070865000000000067e-01 1.310539999999999949e+01 1.287330000000000041e+02 2.217460000000000036e+03
1.170000000000000068e-01 2.070605000000000084e-01 1.261420000000000030e+01 1.280169999999999959e+02 2.217264999999999873e+03
1.180000000000000077e-01 2.070295000000000052e-01 1.208469999999999978e+01 1.271320000000000050e+02 2.217029999999999745e+03
1.190000000000000085e-01 2.069920000000000093e-01 1.150773500000000027e+01 1.260630000000000024e+02 2.216750000000000000e+03
1.200000000000000094e-01 2.069484999999999797e-01 1.087838500000000153e+01 1.248029999999999973e+02 2.216425000000000182e+03
1.209999999999999964e-01 2.068979999999999986e-01 1.019617000000000040e+01 1.233594999999999970e+02 2.216045000000000073e+03
1.219999999999999973e-01 2.068404999999999827e-01 9.465514999999999901e+00 1.217520000000000095e+02 2.215609999999999673e+03
1.229999999999999982e-01 2.067775000000000030e-01 8.695035000000000736e+00 1.200090000000000003e+02 2.215140000000000327e+03
1.239999999999999991e-01 2.067100000000000048e-01 7.897355000000000125e+00 1.181705000000000041e+02 2.214630000000000109e+03
1.250000000000000000e-01 2.066394999999999760e-01 7.088129999999999598e+00 1.162830000000000013e+02 2.214099999999999909e+03
1.260000000000000009e-01 2.065680000000000016e-01 6.285109999999999530e+00 1.143960000000000008e+02 2.213555000000000291e+03
1.270000000000000018e-01 2.064960000000000129e-01 5.507054999999999367e+00 1.125604999999999905e+02 2.213019999999999982e+03
1.280000000000000027e-01 2.064265000000000128e-01 4.772615000000000052e+00 1.108259999999999934e+02 2.212494999999999891e+03
1.290000000000000036e-01 2.063610000000000166e-01 4.099285000000000068e+00 1.092365000000000066e+02 2.211994999999999891e+03
1.300000000000000044e-01 2.063010000000000121e-01 3.502449999999999619e+00 1.078290000000000077e+02 2.211534999999999854e+03
1.310000000000000053e-01 2.062475000000000003e-01 2.994609999999999772e+00 1.066334999999999980e+02 2.211130000000000109e+03
1.320000000000000062e-01 2.062025000000000108e-01 2.584870000000000001e+00 1.056680000000000064e+02 2.210779999999999745e+03
1.330000000000000071e-01 2.061655000000000015e-01 2.278604999999999769e+00 1.049424999999999955e+02 2.210494999999999891e+03
1.340000000000000080e-01 2.061374999999999735e-01 2.077370000000000161e+00 1.044560000000000031e+02 2.210274999999999636e+03
1.350000000000000089e-01 2.061180000000000234e-01 1.979039999999999910e+00 1.041984999999999957e+02 2.210119999999999891e+03
1.360000000000000098e-01 2.061074999999999990e-01 1.978119999999999878e+00 1.041525000000000034e+02 2.210024999999999636e+03
1.370000000000000107e-01 2.061040000000000094e-01 2.066149999999999931e+00 1.042944999999999993e+02 2.209989999999999782e+03
1.380000000000000115e-01 2.061074999999999990e-01 2.232270000000000199e+00 1.045955000000000013e+02 2.210010000000000218e+03
1.390000000000000124e-01 2.061165000000000080e-01 2.463810000000000056e+00 1.050234999999999985e+02 2.210074999999999818e+03
1.400000000000000133e-01 2.061310000000000087e-01 2.746895000000000309e+00 1.055444999999999993e+02 2.210175000000000182e+03
1.410000000000000142e-01 2.061485000000000123e-01 3.067054999999999865e+00 1.061260000000000048e+02 2.210305000000000291e+03
1.420000000000000151e-01 2.061680000000000179e-01 3.409819999999999851e+00 1.067349999999999994e+02 2.210444999999999709e+03
1.430000000000000160e-01 2.061890000000000112e-01 3.761214999999999975e+00 1.073414999999999964e+02 2.210605000000000018e+03
1.440000000000000169e-01 2.062105000000000188e-01 4.108290000000000219e+00 1.079184999999999945e+02 2.210760000000000218e+03
1.450000000000000178e-01 2.062304999999999833e-01 4.439505000000000479e+00 1.084440000000000026e+02 2.210909999999999854e+03
1.459999999999999909e-01 2.062485000000000013e-01 4.745090000000000252e+00 1.088990000000000009e+02 2.211045000000000073e+03
1.469999999999999918e-01 2.062645000000000173e-01 5.017295000000000726e+00 1.092700000000000102e+02 2.211170000000000073e+03
1.479999999999999927e-01 2.062780000000000169e-01 5.250579999999999359e+00 1.095499999999999972e+02 2.211269999999999982e+03
1.489999999999999936e-01 2.062875000000000125e-01 5.441665000000000418e+00 1.097355000000000018e+02 2.211345000000000255e+03
1.499999999999999944e-01 2.062944999999999918e-01 5.589500000000000135e+00 1.098290000000000077e+02 2.211400000000000091e+03
1.509999999999999953e-01 2.062974999999999948e-01 5.695135000000000502e+00 1.098359999999999985e+02 2.211425000000000182e+03
1.519999999999999962e-01 2.062979999999999814e-01 5.761449999999999960e+00 1.097680000000000007e+02 2.211434999999999945e+03
1.529999999999999971e-01 2.062955000000000205e-01 5.792824999999999669e+00 1.096384999999999934e+02 2.211425000000000182e+03
1.539999999999999980e-01 2.062915000000000165e-01 5.794755000000000322e+00 1.094609999999999985e+02 2.211389999999999873e+03
1.549999999999999989e-01 2.062855000000000105e-01 5.773374999999999702e+00 1.092524999999999977e+02 2.211349999999999909e+03
1.559999999999999998e-01 2.062780000000000169e-01 5.735049999999999315e+00 1.090275000000000034e+02 2.211300000000000182e+03
1.570000000000000007e-01 2.062709999999999821e-01 5.685914999999999608e+00 1.087994999999999948e+02 2.211244999999999891e+03
1.580000000000000016e-01 2.062630000000000019e-01 5.631545000000000023e+00 1.085809999999999889e+02 2.211190000000000055e+03
1.590000000000000024e-01 2.062554999999999805e-01 5.576629999999999754e+00 1.083804999999999978e+02 2.211130000000000109e+03
