# t [s], A [cm^2], U [cm/s], P [cPa], c [cm/s]
1.000000000000000021e-03 1.646765000000000034e-01 2.201770000000000116e-01 9.084639999999998849e+01 1.730304999999999836e+03
2.000000000000000042e-03 1.646589999999999998e-01 1.534249999999999892e+00 8.839924999999999500e+01 1.730139999999999873e+03
3.000000000000000062e-03 1.645709999999999951e-01 3.157359500000000097e+00 8.528665000000000873e+01 1.729384999999999991e+03
4.000000000000000083e-03 1.644309999999999938e-01 4.947648349999999695e+00 8.172979999999999734e+01 1.728210000000000036e+03
5.000000000000000104e-03 1.642620000000000191e-01 6.863635000000000375e+00 7.825735000000000241e+01 1.726804999999999836e+03
6.000000000000000125e-03 1.640840000000000076e-01 8.839795000000000513e+00 7.521620000000000061e+01 1.725335000000000036e+03
7.000000000000000146e-03 1.639085000000000125e-01 1.076702000000000048e+01 7.267445000000000732e+01 1.723904999999999973e+03
8.000000000000000167e-03 1.637409999999999977e-01 1.253548999999999936e+01 7.051144999999999641e+01 1.722549999999999955e+03
9.000000000000001055e-03 1.635840000000000072e-01 1.409071999999999925e+01 6.860219999999999629e+01 1.721299999999999955e+03
1.000000000000000194e-02 1.634400000000000019e-01 1.543649999999999878e+01 6.692210000000000036e+01 1.720170000000000073e+03
1.099999999999999936e-02 1.633124999999999993e-01 1.659305000000000163e+01 6.549725000000000819e+01 1.719175000000000182e+03
1.200000000000000025e-02 1.632020000000000137e-01 1.757269999999999754e+01 6.433140000000000214e+01 1.718325000000000045e+03
1.300000000000000114e-02 1.631080000000000030e-01 1.838235000000000241e+01 6.339804999999999779e+01 1.717610000000000127e+03
1.400000000000000203e-02 1.630294999999999939e-01 1.902824999999999989e+01 6.265845000000000198e+01 1.717019999999999982e+03
1.499999999999999944e-02 1.629645000000000121e-01 1.951529999999999987e+01 6.206624999999999659e+01 1.716539999999999964e+03
1.600000000000000033e-02 1.629114999999999869e-01 1.985184999999999889e+01 6.157479999999999620e+01 1.716150000000000091e+03
1.700000000000000122e-02 1.628665000000000251e-01 2.006049999999999756e+01 6.116280000000000427e+01 1.715835000000000036e+03
1.800000000000000211e-02 1.628310000000000035e-01 2.018694999999999951e+01 6.086480000000000246e+01 1.715585000000000036e+03
1.900000000000000300e-02 1.628069999999999795e-01 2.029489999999999839e+01 6.077590000000000003e+01 1.715425000000000182e+03
2.000000000000000042e-02 1.627969999999999973e-01 2.044855000000000089e+01 6.101935000000000286e+01 1.715369999999999891e+03
2.100000000000000130e-02 1.628054999999999919e-01 2.069164999999999921e+01 6.169235000000000468e+01 1.715454999999999927e+03
2.200000000000000219e-02 1.628340000000000065e-01 2.103304999999999936e+01 6.281855000000000189e+01 1.715684999999999945e+03
2.299999999999999961e-02 1.628819999999999990e-01 2.144529999999999959e+01 6.432694999999999652e+01 1.716059999999999945e+03
2.400000000000000050e-02 1.629455000000000209e-01 2.187340000000000018e+01 6.606475000000000364e+01 1.716559999999999945e+03
2.500000000000000139e-02 1.630185000000000106e-01 2.225164999999999793e+01 6.783414999999999395e+01 1.717130000000000109e+03
2.600000000000000228e-02 1.630935000000000024e-01 2.252029999999999887e+01 6.943960000000001287e+01 1.717724999999999909e+03
2.700000000000000316e-02 1.631639999999999757e-01 2.263895000000000124e+01 7.072979999999999734e+01 1.718279999999999973e+03
2.800000000000000058e-02 1.632240000000000080e-01 2.259295000000000186e+01 7.162454999999999927e+01 1.718765000000000100e+03
2.900000000000000147e-02 1.632715000000000138e-01 2.239245000000000019e+01 7.212059999999999604e+01 1.719150000000000091e+03
3.000000000000000236e-02 1.633050000000000057e-01 2.206589999999999918e+01 7.227949999999999875e+01 1.719430000000000064e+03
3.099999999999999978e-02 1.633264999999999856e-01 2.165055000000000263e+01 7.220150000000001000e+01 1.719615000000000009e+03
3.200000000000000067e-02 1.633390000000000120e-01 2.118184999999999718e+01 7.199569999999999936e+01 1.719724999999999909e+03
3.300000000000000155e-02 1.633450000000000180e-01 2.068625000000000114e+01 7.175309999999998922e+01 1.719779999999999973e+03
3.400000000000000244e-02 1.633474999999999788e-01 2.017719999999999914e+01 7.152970000000000539e+01 1.719805000000000064e+03
3.500000000000000333e-02 1.633470000000000200e-01 1.965565000000000140e+01 7.134184999999999377e+01 1.719815000000000055e+03
3.600000000000000422e-02 1.633465000000000056e-01 1.911370000000000147e+01 7.117204999999999870e+01 1.719809999999999945e+03
3.700000000000000511e-02 1.633434999999999748e-01 1.854005000000000081e+01 7.098349999999999227e+01 1.719789999999999964e+03
3.799999999999999906e-02 1.633374999999999966e-01 1.792600000000000193e+01 7.073659999999999570e+01 1.719750000000000000e+03
3.899999999999999994e-02 1.633284999999999876e-01 1.727035000000000053e+01 7.040534999999999854e+01 1.719684999999999945e+03
4.000000000000000083e-02 1.633155000000000023e-01 1.658190000000000097e+01 6.998855000000000359e+01 1.719589999999999918e+03
4.100000000000000172e-02 1.632989999999999997e-01 1.587995000000000090e+01 6.951390000000000668e+01 1.719465000000000146e+03
4.200000000000000261e-02 1.632804999999999951e-01 1.519219999999999970e+01 6.903534999999999400e+01 1.719329999999999927e+03
4.300000000000000350e-02 1.632619999999999905e-01 1.454995000000000083e+01 6.862340000000000373e+01 1.719184999999999945e+03
4.400000000000000439e-02 1.632465000000000166e-01 1.398349999999999937e+01 6.835229999999999961e+01 1.719070000000000164e+03
4.499999999999999833e-02 1.632374999999999798e-01 1.351694999999999958e+01 6.828480000000000416e+01 1.718990000000000009e+03
4.599999999999999922e-02 1.632354999999999778e-01 1.316379999999999839e+01 6.846070000000000277e+01 1.718974999999999909e+03
4.700000000000000011e-02 1.632434999999999858e-01 1.292530000000000001e+01 6.888810000000000855e+01 1.719029999999999973e+03
4.800000000000000100e-02 1.632609999999999895e-01 1.278999999999999915e+01 6.954175000000000750e+01 1.719159999999999854e+03
4.900000000000000189e-02 1.632879999999999887e-01 1.273550000000000004e+01 7.036610000000000298e+01 1.719355000000000018e+03
5.000000000000000278e-02 1.633215000000000083e-01 1.273160000000000025e+01 7.128294999999999959e+01 1.719610000000000127e+03
5.100000000000000366e-02 1.633594999999999908e-01 1.274404999999999966e+01 7.220230000000000814e+01 1.719894999999999982e+03
5.200000000000000455e-02 1.633975000000000011e-01 1.273864999999999981e+01 7.303309999999999036e+01 1.720190000000000055e+03
5.300000000000000544e-02 1.634335000000000093e-01 1.268420000000000059e+01 7.369384999999999764e+01 1.720464999999999918e+03
5.399999999999999939e-02 1.634629999999999972e-01 1.255539999999999878e+01 7.411974999999999625e+01 1.720694999999999936e+03
5.500000000000000028e-02 1.634835000000000038e-01 1.233404999999999951e+01 7.426784999999999570e+01 1.720855000000000018e+03
5.600000000000000117e-02 1.634940000000000004e-01 1.200955000000000084e+01 7.411760000000001014e+01 1.720934999999999945e+03
5.700000000000000205e-02 1.634915000000000118e-01 1.157835000000000036e+01 7.367005000000000337e+01 1.720920000000000073e+03
5.800000000000000294e-02 1.634764999999999968e-01 1.104321999999999981e+01 7.294364999999999100e+01 1.720815000000000055e+03
5.900000000000000383e-02 1.634495000000000253e-01 1.041168000000000049e+01 7.197024999999999295e+01 1.720610000000000127e+03
6.000000000000000472e-02 1.634114999999999873e-01 9.694784999999999542e+00 7.078995000000000459e+01 1.720315000000000055e+03
6.099999999999999867e-02 1.633634999999999948e-01 8.906155000000000044e+00 6.944669999999999277e+01 1.719950000000000045e+03
6.199999999999999956e-02 1.633064999999999933e-01 8.061004999999999754e+00 6.798580000000001178e+01 1.719510000000000218e+03
6.300000000000000044e-02 1.632434999999999858e-01 7.175625000000000142e+00 6.645120000000000005e+01 1.719019999999999982e+03
6.400000000000000133e-02 1.631750000000000145e-01 6.267275000000000595e+00 6.488500000000000512e+01 1.718494999999999891e+03
6.500000000000000222e-02 1.631039999999999990e-01 5.354004999999999903e+00 6.332759999999999678e+01 1.717944999999999936e+03
6.600000000000000311e-02 1.630314999999999959e-01 4.454720000000000013e+00 6.181795000000000329e+01 1.717380000000000109e+03
6.700000000000000400e-02 1.629594999999999794e-01 3.589120000000000310e+00 6.039419999999999789e+01 1.716824999999999818e+03
6.800000000000000488e-02 1.628904999999999936e-01 2.777567499999999967e+00 5.909435000000000571e+01 1.716289999999999964e+03
6.900000000000000577e-02 1.628259999999999985e-01 2.040788169999999901e+00 5.795624999999999716e+01 1.715784999999999854e+03
7.000000000000000666e-02 1.627679999999999960e-01 1.399424000000000001e+00 5.701720000000000255e+01 1.715329999999999927e+03
7.100000000000000755e-02 1.627180000000000015e-01 8.734079999999999622e-01 5.631309999999999860e+01 1.714940000000000055e+03
7.200000000000000844e-02 1.626785000000000037e-01 4.812579999999999636e-01 5.587709999999999866e+01 1.714625000000000000e+03
7.300000000000000933e-02 1.626504999999999757e-01 2.393270000000000119e-01 5.573845000000000027e+01 1.714405000000000200e+03
7.399999999999999634e-02 1.626354999999999884e-01 1.610659999999999870e-01 5.592045000000000243e+01 1.714275000000000091e+03
7.499999999999999722e-02 1.626350000000000018e-01 2.563956000000000013e-01 5.643945000000000078e+01 1.714259999999999991e+03
7.599999999999999811e-02 1.626500000000000168e-01 5.312135000000000051e-01 5.730369999999999919e+01 1.714365000000000009e+03
7.699999999999999900e-02 1.626814999999999789e-01 9.870884999999999243e-01 5.851239999999999952e+01 1.714590000000000146e+03
7.799999999999999989e-02 1.627279999999999838e-01 1.621159049999999935e+00 6.005594999999999573e+01 1.714940000000000055e+03
7.900000000000000078e-02 1.627910000000000190e-01 2.426270000000000149e+00 6.191599999999999682e+01 1.715409999999999854e+03
8.000000000000000167e-02 1.628689999999999860e-01 3.391256499999999896e+00 6.406629999999999825e+01 1.716000000000000000e+03
8.100000000000000255e-02 1.629619999999999957e-01 4.501450000000000173e+00 6.647400000000000375e+01 1.716704999999999927e+03
8.200000000000000344e-02 1.630675000000000041e-01 5.739270000000000316e+00 6.910124999999999318e+01 1.717509999999999991e+03
8.300000000000000433e-02 1.631845000000000101e-01 7.084995000000000154e+00 7.190670000000000073e+01 1.718410000000000082e+03
8.400000000000000522e-02 1.633114999999999983e-01 8.517399999999998528e+00 7.484754999999999825e+01 1.719389999999999873e+03
8.500000000000000611e-02 1.634464999999999946e-01 1.001475999999999900e+01 7.788134999999999764e+01 1.720429999999999836e+03
8.600000000000000699e-02 1.635874999999999968e-01 1.155537999999999954e+01 8.096744999999999948e+01 1.721525000000000091e+03
8.700000000000000788e-02 1.637325000000000030e-01 1.311837999999999838e+01 8.406874999999999432e+01 1.722650000000000091e+03
8.800000000000000877e-02 1.638804999999999845e-01 1.468434999999999846e+01 8.715264999999999418e+01 1.723804999999999836e+03
8.899999999999999578e-02 1.640294999999999948e-01 1.623574999999999946e+01 9.019210000000001060e+01 1.724969999999999800e+03
8.999999999999999667e-02 1.641779999999999906e-01 1.775720000000000098e+01 9.316589999999999350e+01 1.726130000000000109e+03
9.099999999999999756e-02 1.643244999999999845e-01 1.923604999999999876e+01 9.605895000000001005e+01 1.727289999999999964e+03
9.199999999999999845e-02 1.644694999999999907e-01 2.066199999999999903e+01 9.886240000000000805e+01 1.728429999999999836e+03
9.299999999999999933e-02 1.646110000000000073e-01 2.202734999999999843e+01 1.015718999999999994e+02 1.729550000000000182e+03
9.400000000000000022e-02 1.647490000000000065e-01 2.332675000000000054e+01 1.041884500000000031e+02 1.730639999999999873e+03
9.500000000000000111e-02 1.648840000000000028e-01 2.455685000000000073e+01 1.067164999999999964e+02 1.731710000000000036e+03
9.600000000000000200e-02 1.650149999999999950e-01 2.571630000000000038e+01 1.091634999999999991e+02 1.732755000000000109e+03
9.700000000000000289e-02 1.651424999999999976e-01 2.680489999999999995e+01 1.115374999999999943e+02 1.733769999999999982e+03
9.800000000000000377e-02 1.652669999999999972e-01 2.782355000000000089e+01 1.138479999999999990e+02 1.734769999999999982e+03
9.900000000000000466e-02 1.653884999999999939e-01 2.877394999999999925e+01 1.161029999999999944e+02 1.735744999999999891e+03
1.000000000000000056e-01 1.655075000000000018e-01 2.965789999999999793e+01 1.183110000000000070e+02 1.736694999999999936e+03
1.010000000000000064e-01 1.656239999999999934e-01 3.047744999999999749e+01 1.204770000000000039e+02 1.737630000000000109e+03
1.020000000000000073e-01 1.657385000000000108e-01 3.123420000000000130e+01 1.226045000000000016e+02 1.738555000000000064e+03
1.030000000000000082e-01 1.658514999999999850e-01 3.192945000000000277e+01 1.246935000000000002e+02 1.739460000000000036e+03
1.040000000000000091e-01 1.659614999999999840e-01 3.256394999999999840e+01 1.267439999999999998e+02 1.740355000000000018e+03
1.050000000000000100e-01 1.660699999999999954e-01 3.313790000000000191e+01 1.287520000000000095e+02 1.741230000000000018e+03
1.059999999999999970e-01 1.661765000000000048e-01 3.365090000000000003e+01 1.307104999999999961e+02 1.742090000000000146e+03
1.069999999999999979e-01 1.662810000000000121e-01 3.410184999999999889e+01 1.326119999999999948e+02 1.742930000000000064e+03
1.079999999999999988e-01 1.663824999999999887e-01 3.448930000000000007e+01 1.344480000000000075e+02 1.743750000000000000e+03
1.089999999999999997e-01 1.664805000000000035e-01 3.481149999999999523e+01 1.362079999999999984e+02 1.744549999999999955e+03
1.100000000000000006e-01 1.665754999999999875e-01 3.506624999999999659e+01 1.378820000000000050e+02 1.745315000000000055e+03
1.110000000000000014e-01 1.666660000000000086e-01 3.525124999999999886e+01 1.394585000000000150e+02 1.746054999999999836e+03
1.120000000000000023e-01 1.667520000000000113e-01 3.536435000000000173e+01 1.409279999999999973e+02 1.746755000000000109e+03
1.130000000000000032e-01 1.668334999999999957e-01 3.540344999999999942e+01 1.422810000000000059e+02 1.747420000000000073e+03
1.140000000000000041e-01 1.669090000000000018e-01 3.536684999999999945e+01 1.435090000000000146e+02 1.748039999999999964e+03
1.150000000000000050e-01 1.669789999999999885e-01 3.525305000000000177e+01 1.446034999999999968e+02 1.748610000000000127e+03
1.160000000000000059e-01 1.670425000000000104e-01 3.506125000000000114e+01 1.455600000000000023e+02 1.749130000000000109e+03
1.170000000000000068e-01 1.670989999999999975e-01 3.479129999999999967e+01 1.463745000000000118e+02 1.749595000000000027e+03
1.180000000000000077e-01 1.671489999999999920e-01 3.444369999999999976e+01 1.470434999999999945e+02 1.750005000000000109e+03
1.190000000000000085e-01 1.671924999999999939e-01 3.401980000000000359e+01 1.475674999999999955e+02 1.750365000000000009e+03
1.200000000000000094e-01 1.672285000000000021e-01 3.352185000000000059e+01 1.479474999999999909e+02 1.750664999999999964e+03
1.209999999999999964e-01 1.672575000000000034e-01 3.295279999999999632e+01 1.481875000000000000e+02 1.750904999999999973e+03
1.219999999999999973e-01 1.672795000000000254e-01 3.231669999999999732e+01 1.482925000000000182e+02 1.751089999999999918e+03
1.229999999999999982e-01 1.672945000000000126e-01 3.161824999999999974e+01 1.482699999999999818e+02 1.751219999999999800e+03
1.239999999999999991e-01 1.673034999999999939e-01 3.086305000000000121e+01 1.481290000000000191e+02 1.751304999999999836e+03
1.250000000000000000e-01 1.673054999999999959e-01 3.005740000000000123e+01 1.478795000000000073e+02 1.751329999999999927e+03
1.260000000000000009e-01 1.673029999999999795e-01 2.920805000000000007e+01 1.475330000000000155e+02 1.751315000000000055e+03
1.270000000000000018e-01 1.672939999999999983e-01 2.832220000000000226e+01 1.471014999999999873e+02 1.751250000000000000e+03
1.280000000000000027e-01 1.672810000000000130e-01 2.740735000000000099e+01 1.465969999999999800e+02 1.751150000000000091e+03
1.290000000000000036e-01 1.672635000000000094e-01 2.647090000000000032e+01 1.460330000000000155e+02 1.751015000000000100e+03
1.300000000000000044e-01 1.672430000000000028e-01 2.552045000000000030e+01 1.454219999999999970e+02 1.750849999999999909e+03
1.310000000000000053e-01 1.672190000000000065e-01 2.456305000000000049e+01 1.447744999999999891e+02 1.750664999999999964e+03
1.320000000000000062e-01 1.671924999999999939e-01 2.360545000000000115e+01 1.441019999999999754e+02 1.750454999999999927e+03
1.330000000000000071e-01 1.671644999999999937e-01 2.265380000000000038e+01 1.434134999999999991e+02 1.750230000000000018e+03
1.340000000000000080e-01 1.671350000000000058e-01 2.171359999999999957e+01 1.427169999999999845e+02 1.749990000000000009e+03
1.350000000000000089e-01 1.671040000000000025e-01 2.078960000000000008e+01 1.420190000000000055e+02 1.749744999999999891e+03
1.360000000000000098e-01 1.670725000000000127e-01 1.988560000000000016e+01 1.413249999999999886e+02 1.749485000000000127e+03
1.370000000000000107e-01 1.670399999999999940e-01 1.900460000000000349e+01 1.406374999999999886e+02 1.749230000000000018e+03
1.380000000000000115e-01 1.670074999999999754e-01 1.814869999999999806e+01 1.399574999999999818e+02 1.748965000000000146e+03
1.390000000000000124e-01 1.669754999999999989e-01 1.731915000000000049e+01 1.392860000000000014e+02 1.748704999999999927e+03
1.400000000000000133e-01 1.669430000000000081e-01 1.651634999999999920e+01 1.386210000000000093e+02 1.748440000000000055e+03
1.410000000000000142e-01 1.669100000000000028e-01 1.573995000000000033e+01 1.379599999999999795e+02 1.748174999999999955e+03
1.420000000000000151e-01 1.668779999999999986e-01 1.498890000000000100e+01 1.372994999999999948e+02 1.747909999999999854e+03
1.430000000000000160e-01 1.668450000000000211e-01 1.426164999999999949e+01 1.366349999999999909e+02 1.747639999999999873e+03
1.440000000000000169e-01 1.668115000000000014e-01 1.355594999999999928e+01 1.359610000000000127e+02 1.747364999999999782e+03
1.450000000000000178e-01 1.667779999999999818e-01 1.286935000000000073e+01 1.352729999999999961e+02 1.747095000000000027e+03
1.459999999999999909e-01 1.667430000000000023e-01 1.219920000000000115e+01 1.345649999999999977e+02 1.746809999999999945e+03
1.469999999999999918e-01 1.667079999999999951e-01 1.154255999999999993e+01 1.338315000000000055e+02 1.746519999999999982e+03
1.479999999999999927e-01 1.666704999999999992e-01 1.089645000000000152e+01 1.330670000000000073e+02 1.746224999999999909e+03
1.489999999999999936e-01 1.666325000000000167e-01 1.025814499999999896e+01 1.322680000000000007e+02 1.745910000000000082e+03
1.499999999999999944e-01 1.665924999999999767e-01 9.625009999999999621e+00 1.314294999999999902e+02 1.745585000000000036e+03
1.509999999999999953e-01 1.665504999999999902e-01 8.994730000000000558e+00 1.305490000000000066e+02 1.745250000000000000e+03
1.519999999999999962e-01 1.665070000000000161e-01 8.365410000000000679e+00 1.296245000000000118e+02 1.744894999999999982e+03
1.529999999999999971e-01 1.664614999999999845e-01 7.735615000000001018e+00 1.286545000000000130e+02 1.744525000000000091e+03
1.539999999999999980e-01 1.664130000000000054e-01 7.104524999999999757e+00 1.276400000000000006e+02 1.744139999999999873e+03
1.549999999999999989e-01 1.663630000000000109e-01 6.471864999999999313e+00 1.265825000000000102e+02 1.743735000000000127e+03
1.559999999999999998e-01 1.663109999999999866e-01 5.838004999999999889e+00 1.254849999999999994e+02 1.743315000000000055e+03
1.570000000000000007e-01 1.662564999999999737e-01 5.203960000000000363e+00 1.243509999999999991e+02 1.742884999999999991e+03
1.580000000000000016e-01 1.662009999999999876e-01 4.571369999999999933e+00 1.231860000000000070e+02 1.742430000000000064e+03
1.590000000000000024e-01 1.661424999999999985e-01 3.942489999999999828e+00 1.219969999999999999e+02 1.741970000000000027e+03
