# t [s], A [cm^2], U [cm/s], P [cPa], c [cm/s]
1.000000000000000021e-03 6.863604999999999290e-01 6.173999999999998933e-03 1.004410000000000025e+02 1.801099999999999909e+03
2.000000000000000042e-03 6.863555000000000073e-01 1.217274999999999781e-02 1.004130000000000109e+02 1.801094999999999800e+03
3.000000000000000062e-03 6.864380000000001036e-01 1.749587999999999977e-01 1.006086499999999972e+02 1.801134999999999991e+03
4.000000000000000083e-03 6.864544999999999675e-01 2.381114999999999760e-01 1.006706499999999949e+02 1.801150000000000091e+03
5.000000000000000104e-03 6.863645000000000440e-01 1.094394999999999674e-01 1.003764999999999930e+02 1.801090000000000146e+03
6.000000000000000125e-03 6.862774999999999848e-01 -2.910800000000002274e-02 9.994565000000000055e+01 1.800994999999999891e+03
7.000000000000000146e-03 6.861540000000000417e-01 -2.547699999999999410e-01 9.931794999999999618e+01 1.800865000000000009e+03
8.000000000000000167e-03 6.859349999999999614e-01 -6.829149999999999388e-01 9.830035000000000878e+01 1.800644999999999982e+03
9.000000000000001055e-03 6.856269999999999865e-01 -1.297189999999999843e+00 9.684569999999999368e+01 1.800329999999999927e+03
1.000000000000000194e-02 6.851979999999999738e-01 -2.135495000000000143e+00 9.483915000000000362e+01 1.799889999999999873e+03
1.099999999999999936e-02 6.846364999999999812e-01 -3.193319999999999936e+00 9.220794999999999675e+01 1.799304999999999836e+03
1.200000000000000025e-02 6.840254999999999530e-01 -4.272879999999999789e+00 8.917355000000000587e+01 1.798615000000000009e+03
1.300000000000000114e-02 6.835014999999999841e-01 -5.067244999999999777e+00 8.620615000000000805e+01 1.797904999999999973e+03
1.400000000000000203e-02 6.831475000000000186e-01 -5.361724999999999852e+00 8.373564999999999259e+01 1.797269999999999982e+03
1.499999999999999944e-02 6.829544999999999089e-01 -5.137929999999999886e+00 8.192730000000000246e+01 1.796755000000000109e+03
1.600000000000000033e-02 6.828404999999999614e-01 -4.545499999999999652e+00 8.064830000000000609e+01 1.796355000000000018e+03
1.700000000000000122e-02 6.827060000000000350e-01 -3.805320000000000036e+00 7.957695000000001073e+01 1.796000000000000000e+03
1.800000000000000211e-02 6.824755000000000127e-01 -3.103575000000000195e+00 7.837270000000000891e+01 1.795630000000000109e+03
1.900000000000000300e-02 6.821310000000000429e-01 -2.518232000000000248e+00 7.682859999999999445e+01 1.795195000000000164e+03
2.000000000000000042e-02 6.817079999999999806e-01 -2.009174999999999933e+00 7.493985000000000696e+01 1.794700000000000045e+03
2.100000000000000130e-02 6.812679999999999847e-01 -1.472299999999999942e+00 7.285869999999999891e+01 1.794150000000000091e+03
2.200000000000000219e-02 6.808594999999999509e-01 -8.192299999999999027e-01 7.077774999999999750e+01 1.793599999999999909e+03
2.299999999999999961e-02 6.804959999999999898e-01 -3.676999999999974733e-02 6.881390000000000384e+01 1.793059999999999945e+03
2.400000000000000050e-02 6.801485000000000447e-01 7.954400000000001469e-01 6.694380000000001019e+01 1.792539999999999964e+03
2.500000000000000139e-02 6.797584999999999322e-01 1.525884999999999936e+00 6.500315000000000509e+01 1.792005000000000109e+03
2.600000000000000228e-02 6.792620000000000324e-01 1.977100000000000524e+00 6.273984999999999701e+01 1.791404999999999973e+03
2.700000000000000316e-02 6.786054999999999726e-01 2.001544999999999686e+00 5.990125000000000455e+01 1.790694999999999936e+03
2.800000000000000058e-02 6.777720000000000411e-01 1.530590000000000117e+00 5.632779999999999632e+01 1.789824999999999818e+03
2.900000000000000147e-02 6.767890000000000850e-01 5.988649999999999807e-01 5.202150000000000318e+01 1.788799999999999955e+03
3.000000000000000236e-02 6.757184999999999997e-01 -6.657000000000001805e-01 4.715944999999999965e+01 1.787644999999999982e+03
3.099999999999999978e-02 6.746434999999999516e-01 -2.080295000000000449e+00 4.205379999999999541e+01 1.786414999999999964e+03
3.200000000000000067e-02 6.736450000000000493e-01 -3.454110000000000014e+00 3.707789999999999964e+01 1.785195000000000164e+03
3.300000000000000155e-02 6.727894999999999293e-01 -4.626665000000000028e+00 3.259060000000000201e+01 1.784055000000000064e+03
3.400000000000000244e-02 6.721189999999999110e-01 -5.488540000000000418e+00 2.887895000000000323e+01 1.783079999999999927e+03
3.500000000000000333e-02 6.716519999999999158e-01 -5.984645000000000437e+00 2.612819999999999965e+01 1.782304999999999836e+03
3.600000000000000422e-02 6.713884999999999437e-01 -6.105069999999999553e+00 2.441754999999999853e+01 1.781775000000000091e+03
3.700000000000000511e-02 6.713150000000001061e-01 -5.868584999999999496e+00 2.373760000000000048e+01 1.781485000000000127e+03
3.799999999999999906e-02 6.714134999999999964e-01 -5.305329999999999657e+00 2.401989999999999981e+01 1.781430000000000064e+03
3.899999999999999994e-02 6.716644999999999976e-01 -4.443463500000000010e+00 2.516795000000000115e+01 1.781594999999999800e+03
4.000000000000000083e-02 6.720535000000000814e-01 -3.303169999999999717e+00 2.708210000000000051e+01 1.781965000000000146e+03
4.100000000000000172e-02 6.725670000000000259e-01 -1.898584999999999745e+00 2.967060000000000031e+01 1.782509999999999991e+03
4.200000000000000261e-02 6.731929999999999303e-01 -2.449500000000002231e-01 3.284915000000000163e+01 1.783214999999999918e+03
4.300000000000000350e-02 6.739150000000000418e-01 1.633160000000000167e+00 3.653235000000000099e+01 1.784059999999999945e+03
4.400000000000000439e-02 6.747144999999999948e-01 3.696435000000000137e+00 4.062449999999999761e+01 1.785014999999999873e+03
4.499999999999999833e-02 6.755664999999999587e-01 5.890150000000000219e+00 4.501454999999999984e+01 1.786054999999999836e+03
4.599999999999999922e-02 6.764440000000000452e-01 8.147880000000000678e+00 4.957750000000000057e+01 1.787164999999999964e+03
4.700000000000000011e-02 6.773195000000000743e-01 1.039871999999999908e+01 5.418215000000000003e+01 1.788289999999999964e+03
4.800000000000000100e-02 6.781679999999999930e-01 1.257512000000000008e+01 5.870199999999999818e+01 1.789420000000000073e+03
4.900000000000000189e-02 6.789700000000000735e-01 1.462007000000000012e+01 6.302769999999999584e+01 1.790519999999999982e+03
5.000000000000000278e-02 6.797124999999999417e-01 1.649184999999999945e+01 6.707680000000000575e+01 1.791570000000000164e+03
5.100000000000000366e-02 6.803904999999998982e-01 1.816590000000000060e+01 7.079954999999999643e+01 1.792554999999999836e+03
5.200000000000000455e-02 6.810045000000000126e-01 1.963439999999999941e+01 7.418004999999999427e+01 1.793460000000000036e+03
5.300000000000000544e-02 6.815614999999999313e-01 2.090339999999999776e+01 7.723355000000000814e+01 1.794295000000000073e+03
5.399999999999999939e-02 6.820710000000000939e-01 2.199000000000000199e+01 8.000034999999999741e+01 1.795065000000000055e+03
5.500000000000000028e-02 6.825460000000000971e-01 2.291870000000000118e+01 8.253884999999999650e+01 1.795769999999999982e+03
5.600000000000000117e-02 6.830005000000000104e-01 2.371900000000000119e+01 8.491890000000000782e+01 1.796434999999999945e+03
5.700000000000000205e-02 6.834474999999999856e-01 2.442279999999999873e+01 8.721504999999999086e+01 1.797069999999999936e+03
5.800000000000000294e-02 6.839014999999999400e-01 2.506250000000000000e+01 8.950114999999999554e+01 1.797700000000000045e+03
5.900000000000000383e-02 6.843749999999999556e-01 2.566894999999999882e+01 9.184465000000000146e+01 1.798340000000000146e+03
6.000000000000000472e-02 6.848754999999999704e-01 2.626920000000000144e+01 9.430164999999999509e+01 1.798994999999999891e+03
6.099999999999999867e-02 6.854109999999999925e-01 2.688400000000000034e+01 9.691235000000000355e+01 1.799684999999999945e+03
6.199999999999999956e-02 6.859824999999999395e-01 2.752599999999999980e+01 9.969684999999999775e+01 1.800410000000000082e+03
6.300000000000000044e-02 6.865870000000000584e-01 2.819819999999999993e+01 1.026527499999999975e+02 1.801179999999999836e+03
6.400000000000000133e-02 6.872184999999999544e-01 2.889410000000000167e+01 1.057549999999999955e+02 1.801980000000000018e+03
6.500000000000000222e-02 6.878659999999999775e-01 2.959810000000000230e+01 1.089569999999999936e+02 1.802809999999999945e+03
6.600000000000000311e-02 6.885149999999999881e-01 3.028760000000000119e+01 1.121974999999999909e+02 1.803644999999999982e+03
6.700000000000000400e-02 6.891510000000000691e-01 3.093560000000000088e+01 1.154000000000000057e+02 1.804485000000000127e+03
6.800000000000000488e-02 6.897584999999999411e-01 3.151354999999999862e+01 1.184879999999999995e+02 1.805295000000000073e+03
6.900000000000000577e-02 6.903230000000000199e-01 3.199365000000000236e+01 1.213834999999999980e+02 1.806069999999999936e+03
7.000000000000000666e-02 6.908320000000000016e-01 3.235159999999999769e+01 1.240185000000000031e+02 1.806789999999999964e+03
7.100000000000000755e-02 6.912754999999999317e-01 3.256804999999999950e+01 1.263365000000000009e+02 1.807429999999999836e+03
7.200000000000000844e-02 6.916480000000000405e-01 3.262999999999999545e+01 1.282974999999999852e+02 1.807985000000000127e+03
7.300000000000000933e-02 6.919465000000000199e-01 3.253119999999999834e+01 1.298790000000000191e+02 1.808450000000000045e+03
7.399999999999999634e-02 6.921709999999999807e-01 3.227244999999999919e+01 1.310749999999999886e+02 1.808820000000000164e+03
7.499999999999999722e-02 6.923254999999999271e-01 3.186124999999999829e+01 1.318990000000000009e+02 1.809095000000000027e+03
7.599999999999999811e-02 6.924160000000000315e-01 3.131114999999999782e+01 1.323785000000000025e+02 1.809280000000000200e+03
7.699999999999999900e-02 6.924509999999999277e-01 3.064089999999999847e+01 1.325529999999999973e+02 1.809384999999999991e+03
7.799999999999999989e-02 6.924405000000000143e-01 2.987335000000000207e+01 1.324730000000000132e+02 1.809424999999999955e+03
7.900000000000000078e-02 6.923954999999999416e-01 2.903399999999999892e+01 1.321955000000000098e+02 1.809400000000000091e+03
8.000000000000000167e-02 6.923280000000000545e-01 2.814979999999999905e+01 1.317794999999999845e+02 1.809329999999999927e+03
8.100000000000000255e-02 6.922485000000000444e-01 2.724739999999999895e+01 1.312839999999999918e+02 1.809240000000000009e+03
8.200000000000000344e-02 6.921669999999999767e-01 2.635204999999999842e+01 1.307640000000000100e+02 1.809130000000000109e+03
8.300000000000000433e-02 6.920919999999999295e-01 2.548604999999999876e+01 1.302685000000000173e+02 1.809019999999999982e+03
8.400000000000000522e-02 6.920314999999999106e-01 2.466779999999999973e+01 1.298365000000000009e+02 1.808914999999999964e+03
8.500000000000000611e-02 6.919895000000000351e-01 2.391069999999999851e+01 1.294975000000000023e+02 1.808829999999999927e+03
8.600000000000000699e-02 6.919675000000000686e-01 2.322305000000000064e+01 1.292690000000000055e+02 1.808764999999999873e+03
8.700000000000000788e-02 6.919669999999999987e-01 2.260764999999999958e+01 1.291560000000000059e+02 1.808724999999999909e+03
8.800000000000000877e-02 6.919850000000000723e-01 2.206200000000000117e+01 1.291529999999999916e+02 1.808710000000000036e+03
8.899999999999999578e-02 6.920184999999999809e-01 2.157910000000000039e+01 1.292434999999999832e+02 1.808720000000000027e+03
8.999999999999999667e-02 6.920625000000000249e-01 2.114760000000000062e+01 1.294035000000000082e+02 1.808744999999999891e+03
9.099999999999999756e-02 6.921089999999999742e-01 2.075330000000000297e+01 1.296014999999999873e+02 1.808784999999999854e+03
9.199999999999999845e-02 6.921530000000000182e-01 2.037969999999999970e+01 1.298025000000000091e+02 1.808825000000000045e+03
9.299999999999999933e-02 6.921859999999999680e-01 2.000939999999999941e+01 1.299689999999999941e+02 1.808860000000000127e+03
9.400000000000000022e-02 6.922015000000000251e-01 1.962510000000000332e+01 1.300640000000000214e+02 1.808880000000000109e+03
9.500000000000000111e-02 6.921935000000000171e-01 1.921059999999999945e+01 1.300545000000000186e+02 1.808880000000000109e+03
9.600000000000000200e-02 6.921565000000000634e-01 1.875225000000000009e+01 1.299114999999999895e+02 1.808849999999999909e+03
9.700000000000000289e-02 6.920880000000000365e-01 1.823969999999999914e+01 1.296140000000000043e+02 1.808784999999999854e+03
9.800000000000000377e-02 6.919859999999999900e-01 1.766655000000000086e+01 1.291494999999999891e+02 1.808680000000000064e+03
9.900000000000000466e-02 6.918509999999999938e-01 1.703090000000000259e+01 1.285150000000000148e+02 1.808535000000000082e+03
1.000000000000000056e-01 6.916849999999999943e-01 1.633589999999999876e+01 1.277184999999999917e+02 1.808349999999999909e+03
1.010000000000000064e-01 6.914925000000000654e-01 1.558895000000000053e+01 1.267764999999999986e+02 1.808125000000000000e+03
1.020000000000000073e-01 6.912789999999999768e-01 1.480184999999999995e+01 1.257150000000000034e+02 1.807875000000000000e+03
1.030000000000000082e-01 6.910519999999999996e-01 1.398987999999999943e+01 1.245695000000000050e+02 1.807595000000000027e+03
1.040000000000000091e-01 6.908195000000000308e-01 1.317081999999999908e+01 1.233770000000000095e+02 1.807295000000000073e+03
1.050000000000000100e-01 6.905900000000000372e-01 1.236393499999999968e+01 1.221814999999999998e+02 1.807000000000000000e+03
1.059999999999999970e-01 6.903704999999999981e-01 1.158880999999999872e+01 1.210254999999999939e+02 1.806704999999999927e+03
1.069999999999999979e-01 6.901699999999999502e-01 1.086409499999999895e+01 1.199495000000000005e+02 1.806420000000000073e+03
1.079999999999999988e-01 6.899954999999999838e-01 1.020646999999999949e+01 1.189904999999999973e+02 1.806170000000000073e+03
1.089999999999999997e-01 6.898509999999999920e-01 9.629699999999999704e+00 1.181784999999999997e+02 1.805945000000000164e+03
1.100000000000000006e-01 6.897400000000000198e-01 9.143840000000000856e+00 1.175345000000000084e+02 1.805759999999999991e+03
1.110000000000000014e-01 6.896649999999999725e-01 8.754984999999999573e+00 1.170724999999999909e+02 1.805615000000000009e+03
1.120000000000000023e-01 6.896255000000000024e-01 8.464774999999999494e+00 1.167959999999999923e+02 1.805519999999999982e+03
1.130000000000000032e-01 6.896195000000000519e-01 8.270920000000000272e+00 1.166990000000000123e+02 1.805469999999999800e+03
1.140000000000000041e-01 6.896440000000000348e-01 8.167204999999999160e+00 1.167674999999999983e+02 1.805454999999999927e+03
1.150000000000000050e-01 6.896944999999999881e-01 8.144244999999999735e+00 1.169815000000000111e+02 1.805480000000000018e+03
1.160000000000000059e-01 6.897655000000000314e-01 8.190170000000000172e+00 1.173155000000000001e+02 1.805539999999999964e+03
1.170000000000000068e-01 6.898520000000000207e-01 8.291360000000000952e+00 1.177400000000000091e+02 1.805630000000000109e+03
1.180000000000000077e-01 6.899465000000000181e-01 8.433279999999999887e+00 1.182245000000000061e+02 1.805730000000000018e+03
1.190000000000000085e-01 6.900450000000000195e-01 8.601214999999999833e+00 1.187400000000000091e+02 1.805845000000000027e+03
1.200000000000000094e-01 6.901414999999999633e-01 8.780995000000000772e+00 1.192565000000000026e+02 1.805965000000000146e+03
1.209999999999999964e-01 6.902310000000000390e-01 8.959565000000001334e+00 1.197500000000000000e+02 1.806085000000000036e+03
1.219999999999999973e-01 6.903114999999999668e-01 9.125460000000000349e+00 1.201989999999999981e+02 1.806195000000000164e+03
1.229999999999999982e-01 6.903785000000000061e-01 9.269190000000000040e+00 1.205870000000000033e+02 1.806295000000000073e+03
1.239999999999999991e-01 6.904310000000000169e-01 9.383475000000000676e+00 1.209025000000000034e+02 1.806384999999999991e+03
1.250000000000000000e-01 6.904689999999999994e-01 9.463340000000000529e+00 1.211405000000000030e+02 1.806450000000000045e+03
1.260000000000000009e-01 6.904915000000000358e-01 9.506194999999999951e+00 1.212985000000000042e+02 1.806494999999999891e+03
1.270000000000000018e-01 6.904995000000000438e-01 9.511714999999998810e+00 1.213799999999999955e+02 1.806525000000000091e+03
1.280000000000000027e-01 6.904954999999999288e-01 9.481535000000000935e+00 1.213919999999999959e+02 1.806539999999999964e+03
1.290000000000000036e-01 6.904814999999999703e-01 9.419304999999999595e+00 1.213455000000000013e+02 1.806539999999999964e+03
1.300000000000000044e-01 6.904595000000000038e-01 9.329975000000001017e+00 1.212524999999999977e+02 1.806525000000000091e+03
1.310000000000000053e-01 6.904335000000000333e-01 9.219780000000000086e+00 1.211274999999999977e+02 1.806505000000000109e+03
1.320000000000000062e-01 6.904055000000000053e-01 9.095589999999999620e+00 1.209859999999999900e+02 1.806480000000000018e+03
1.330000000000000071e-01 6.903779999999999362e-01 8.964449999999999363e+00 1.208425000000000011e+02 1.806445000000000164e+03
1.340000000000000080e-01 6.903550000000000519e-01 8.833325000000000315e+00 1.207110000000000127e+02 1.806420000000000073e+03
1.350000000000000089e-01 6.903369999999999784e-01 8.708355000000000956e+00 1.206024999999999920e+02 1.806389999999999873e+03
1.360000000000000098e-01 6.903270000000000239e-01 8.594899999999999096e+00 1.205279999999999916e+02 1.806375000000000000e+03
1.370000000000000107e-01 6.903245000000000076e-01 8.496950000000000003e+00 1.204935000000000116e+02 1.806365000000000009e+03
1.380000000000000115e-01 6.903314999999999868e-01 8.417089999999999961e+00 1.205005000000000024e+02 1.806360000000000127e+03
1.390000000000000124e-01 6.903460000000000152e-01 8.356405000000000527e+00 1.205510000000000019e+02 1.806369999999999891e+03
1.400000000000000133e-01 6.903679999999999817e-01 8.314534999999999343e+00 1.206405000000000030e+02 1.806389999999999873e+03
1.410000000000000142e-01 6.903960000000000097e-01 8.289830000000000254e+00 1.207630000000000052e+02 1.806414999999999964e+03
1.420000000000000151e-01 6.904280000000000417e-01 8.279585000000000861e+00 1.209104999999999990e+02 1.806450000000000045e+03
1.430000000000000160e-01 6.904620000000000202e-01 8.280329999999999302e+00 1.210739999999999981e+02 1.806490000000000009e+03
1.440000000000000169e-01 6.904959999999999987e-01 8.288164999999999338e+00 1.212425000000000068e+02 1.806529999999999973e+03
1.450000000000000178e-01 6.905284999999999895e-01 8.299060000000000770e+00 1.214070000000000107e+02 1.806570000000000164e+03
1.459999999999999909e-01 6.905574999999999353e-01 8.309165000000000134e+00 1.215569999999999879e+02 1.806605000000000018e+03
1.469999999999999918e-01 6.905814999999999593e-01 8.315065000000000595e+00 1.216854999999999905e+02 1.806644999999999982e+03
1.479999999999999927e-01 6.905999999999999917e-01 8.313985000000000625e+00 1.217870000000000061e+02 1.806670000000000073e+03
1.489999999999999936e-01 6.906120000000000037e-01 8.303910000000000124e+00 1.218569999999999993e+02 1.806684999999999945e+03
1.499999999999999944e-01 6.906170000000000364e-01 8.283730000000000260e+00 1.218944999999999936e+02 1.806700000000000045e+03
1.509999999999999953e-01 6.906164999999999665e-01 8.253214999999999080e+00 1.219000000000000057e+02 1.806704999999999927e+03
1.519999999999999962e-01 6.906105000000000160e-01 8.213029999999999831e+00 1.218764999999999930e+02 1.806700000000000045e+03
1.529999999999999971e-01 6.905995000000000328e-01 8.164685000000000414e+00 1.218294999999999959e+02 1.806694999999999936e+03
1.539999999999999980e-01 6.905864999999999920e-01 8.110405000000000086e+00 1.217644999999999982e+02 1.806679999999999836e+03
1.549999999999999989e-01 6.905715000000000048e-01 8.053069999999999951e+00 1.216905000000000001e+02 1.806659999999999854e+03
1.559999999999999998e-01 6.905570000000000874e-01 7.995985000000000120e+00 1.216154999999999973e+02 1.806644999999999982e+03
1.570000000000000007e-01 6.905449999999999644e-01 7.942745000000000388e+00 1.215490000000000066e+02 1.806634999999999991e+03
1.580000000000000016e-01 6.905364999999999975e-01 7.897064999999999557e+00 1.215000000000000000e+02 1.806615000000000009e+03
1.590000000000000024e-01 6.905339999999999812e-01 7.862540000000000084e+00 1.214770000000000039e+02 1.806615000000000009e+03
