# t [s], A [cm^2], U [cm/s], P [cPa], c [cm/s]
1.000000000000000021e-03 1.932784999999999920e-01 3.558341000000000420e-01 8.977785000000000082e+01 1.994875000000000000e+03
2.000000000000000042e-03 1.932245000000000212e-01 1.882085000000000008e+00 8.655519999999999925e+01 1.994450000000000045e+03
3.000000000000000062e-03 1.930800000000000016e-01 3.731508499999999451e+00 8.217689999999998918e+01 1.993360000000000127e+03
4.000000000000000083e-03 1.928834999999999855e-01 5.795961000000000141e+00 7.754200000000000159e+01 1.991900000000000091e+03
5.000000000000000104e-03 1.926754999999999995e-01 8.002235000000000653e+00 7.352289999999999281e+01 1.990365000000000009e+03
6.000000000000000125e-03 1.924774999999999958e-01 1.015869000000000000e+01 7.032880000000000109e+01 1.988920000000000073e+03
7.000000000000000146e-03 1.922935000000000061e-01 1.204789999999999850e+01 6.764060000000000628e+01 1.987605000000000018e+03
8.000000000000000167e-03 1.921259999999999912e-01 1.360633499999999962e+01 6.522870000000000346e+01 1.986429999999999836e+03
9.000000000000001055e-03 1.919804999999999984e-01 1.488650000000000162e+01 6.316939999999999600e+01 1.985414999999999964e+03
1.000000000000000194e-02 1.918590000000000018e-01 1.592399999999999949e+01 6.153109999999999502e+01 1.984590000000000146e+03
1.099999999999999936e-02 1.917610000000000148e-01 1.673430000000000106e+01 6.027445000000000164e+01 1.983925000000000182e+03
1.200000000000000025e-02 1.916849999999999943e-01 1.733654999999999902e+01 5.933984999999999843e+01 1.983414999999999964e+03
1.300000000000000114e-02 1.916260000000000185e-01 1.773955000000000126e+01 5.864020000000000010e+01 1.983029999999999973e+03
1.400000000000000203e-02 1.915795000000000137e-01 1.795394999999999897e+01 5.806385000000000218e+01 1.982740000000000009e+03
1.499999999999999944e-02 1.915429999999999910e-01 1.804359999999999786e+01 5.760790000000000077e+01 1.982514999999999873e+03
1.600000000000000033e-02 1.915209999999999968e-01 1.814620000000000033e+01 5.749479999999999791e+01 1.982385000000000218e+03
1.700000000000000122e-02 1.915244999999999864e-01 1.842034999999999911e+01 5.809564999999999912e+01 1.982424999999999955e+03
1.800000000000000211e-02 1.915644999999999987e-01 1.895734999999999815e+01 5.968894999999999840e+01 1.982700000000000045e+03
1.900000000000000300e-02 1.916414999999999924e-01 1.972295000000000087e+01 6.223879999999999768e+01 1.983235000000000127e+03
2.000000000000000042e-02 1.917490000000000028e-01 2.056484999999999985e+01 6.534019999999999584e+01 1.983974999999999909e+03
2.100000000000000130e-02 1.918670000000000098e-01 2.127390000000000114e+01 6.835115000000000407e+01 1.984800000000000182e+03
2.200000000000000219e-02 1.919740000000000058e-01 2.166409999999999769e+01 7.062639999999998963e+01 1.985559999999999945e+03
2.299999999999999961e-02 1.920520000000000005e-01 2.163555000000000206e+01 7.174115000000000464e+01 1.986125000000000000e+03
2.400000000000000050e-02 1.920900000000000107e-01 2.119984999999999786e+01 7.161574999999999136e+01 1.986414999999999964e+03
2.500000000000000139e-02 1.920884999999999954e-01 2.046215000000000117e+01 7.050450000000000728e+01 1.986434999999999945e+03
2.600000000000000228e-02 1.920574999999999921e-01 1.957280000000000086e+01 6.886795000000000755e+01 1.986244999999999891e+03
2.700000000000000316e-02 1.920115000000000016e-01 1.867115000000000080e+01 6.719079999999999586e+01 1.985940000000000055e+03
2.800000000000000058e-02 1.919644999999999824e-01 1.784375000000000000e+01 6.582229999999999848e+01 1.985610000000000127e+03
2.900000000000000147e-02 1.919239999999999835e-01 1.710895000000000010e+01 6.489190000000000680e+01 1.985329999999999927e+03
3.000000000000000236e-02 1.918930000000000080e-01 1.642794999999999916e+01 6.431565000000000509e+01 1.985109999999999900e+03
3.099999999999999978e-02 1.918679999999999830e-01 1.573385000000000034e+01 6.387310000000000088e+01 1.984930000000000064e+03
3.200000000000000067e-02 1.918424999999999991e-01 1.496580000000000155e+01 6.331865000000000521e+01 1.984759999999999991e+03
3.300000000000000155e-02 1.918104999999999949e-01 1.409740000000000038e+01 6.248510000000000275e+01 1.984535000000000082e+03
3.400000000000000244e-02 1.917689999999999950e-01 1.315204999999999913e+01 6.135249999999999915e+01 1.984259999999999991e+03
3.500000000000000333e-02 1.917200000000000015e-01 1.220124999999999993e+01 6.006284999999999741e+01 1.983920000000000073e+03
3.600000000000000422e-02 1.916700000000000070e-01 1.134647000000000006e+01 5.887999999999999545e+01 1.983579999999999927e+03
3.700000000000000511e-02 1.916295000000000082e-01 1.069134000000000029e+01 5.810994999999999777e+01 1.983295000000000073e+03
3.799999999999999906e-02 1.916074999999999862e-01 1.031281500000000051e+01 5.800789999999999935e+01 1.983125000000000000e+03
3.899999999999999994e-02 1.916110000000000035e-01 1.023990000000000045e+01 5.870069999999999766e+01 1.983140000000000100e+03
4.000000000000000083e-02 1.916439999999999810e-01 1.044484999999999886e+01 6.014744999999999919e+01 1.983344999999999800e+03
4.100000000000000172e-02 1.917020000000000113e-01 1.084882499999999972e+01 6.214385000000000048e+01 1.983730000000000018e+03
4.200000000000000261e-02 1.917774999999999896e-01 1.133755000000000024e+01 6.436584999999999468e+01 1.984235000000000127e+03
4.300000000000000350e-02 1.918579999999999730e-01 1.178320000000000078e+01 6.643565000000000964e+01 1.984789999999999964e+03
4.400000000000000439e-02 1.919309999999999905e-01 1.206534999999999869e+01 6.799230000000000018e+01 1.985295000000000073e+03
4.499999999999999833e-02 1.919829999999999870e-01 1.208845000000000169e+01 6.875079999999999814e+01 1.985664999999999964e+03
4.599999999999999922e-02 1.920049999999999812e-01 1.179180000000000028e+01 6.853905000000000314e+01 1.985825000000000045e+03
4.700000000000000011e-02 1.919905000000000084e-01 1.115249999999999986e+01 6.730930000000000746e+01 1.985744999999999891e+03
4.800000000000000100e-02 1.919385000000000119e-01 1.018211999999999939e+01 6.512654999999999461e+01 1.985394999999999982e+03
4.900000000000000189e-02 1.918505000000000071e-01 8.918734999999999857e+00 6.214069999999999538e+01 1.984795000000000073e+03
5.000000000000000278e-02 1.917304999999999982e-01 7.418224999999999625e+00 5.855145000000000266e+01 1.983980000000000018e+03
5.100000000000000366e-02 1.915870000000000073e-01 5.745054999999999801e+00 5.457515000000000072e+01 1.982989999999999782e+03
5.200000000000000455e-02 1.914259999999999851e-01 3.966069999999999762e+00 5.041949999999999932e+01 1.981884999999999991e+03
5.300000000000000544e-02 1.912564999999999960e-01 2.146480000000000388e+00 4.626845000000000141e+01 1.980710000000000036e+03
5.399999999999999939e-02 1.910844999999999905e-01 3.482899999999999885e-01 4.227774999999999750e+01 1.979519999999999982e+03
5.500000000000000028e-02 1.909170000000000034e-01 -1.369685000000000041e+00 3.857789999999999964e+01 1.978355000000000018e+03
5.600000000000000117e-02 1.907594999999999985e-01 -2.951252499999999834e+00 3.528079999999999927e+01 1.977255000000000109e+03
5.700000000000000205e-02 1.906174999999999953e-01 -4.342505000000000059e+00 3.248595000000000255e+01 1.976264999999999873e+03
5.800000000000000294e-02 1.904949999999999977e-01 -5.492269999999999541e+00 3.028479999999999706e+01 1.975400000000000091e+03
5.900000000000000383e-02 1.903964999999999963e-01 -6.353650000000000020e+00 2.876115000000000066e+01 1.974710000000000036e+03
6.000000000000000472e-02 1.903265000000000096e-01 -6.886294999999999611e+00 2.798744999999999905e+01 1.974200000000000045e+03
6.099999999999999867e-02 1.902874999999999983e-01 -7.059140000000000192e+00 2.801899999999999835e+01 1.973909999999999854e+03
6.199999999999999956e-02 1.902820000000000067e-01 -6.853070000000000661e+00 2.888725000000000165e+01 1.973855000000000018e+03
6.300000000000000044e-02 1.903119999999999812e-01 -6.262859999999999872e+00 3.059360000000000213e+01 1.974029999999999973e+03
6.400000000000000133e-02 1.903765000000000041e-01 -5.298115000000000130e+00 3.310640000000000072e+01 1.974454999999999927e+03
6.500000000000000222e-02 1.904755000000000198e-01 -3.982940000000000147e+00 3.636079999999999757e+01 1.975110000000000127e+03
6.600000000000000311e-02 1.906059999999999977e-01 -2.354454999999999742e+00 4.026234999999999786e+01 1.975985000000000127e+03
6.700000000000000400e-02 1.907639999999999891e-01 -4.603749999999999787e-01 4.469315000000000282e+01 1.977065000000000055e+03
6.800000000000000488e-02 1.909450000000000036e-01 1.643974999999999742e+00 4.952015000000000100e+01 1.978299999999999955e+03
6.900000000000000577e-02 1.911440000000000083e-01 3.898853999999999598e+00 5.460410000000000252e+01 1.979664999999999964e+03
7.000000000000000666e-02 1.913549999999999973e-01 6.243195000000000050e+00 5.980719999999999459e+01 1.981125000000000000e+03
7.100000000000000755e-02 1.915735000000000077e-01 8.617420000000000968e+00 6.500095000000000312e+01 1.982639999999999873e+03
7.200000000000000844e-02 1.917929999999999913e-01 1.096598000000000006e+01 7.007134999999999536e+01 1.984170000000000073e+03
7.300000000000000933e-02 1.920105000000000006e-01 1.323934500000000014e+01 7.492364999999999498e+01 1.985690000000000055e+03
7.399999999999999634e-02 1.922205000000000163e-01 1.539590000000000103e+01 7.948524999999999352e+01 1.987164999999999964e+03
7.499999999999999722e-02 1.924199999999999799e-01 1.740315000000000012e+01 8.370754999999999768e+01 1.988570000000000164e+03
7.599999999999999811e-02 1.926080000000000014e-01 1.923880000000000123e+01 8.756690000000000396e+01 1.989894999999999982e+03
7.699999999999999900e-02 1.927814999999999945e-01 2.089110000000000156e+01 9.106414999999999793e+01 1.991134999999999991e+03
7.799999999999999989e-02 1.929414999999999880e-01 2.235860000000000269e+01 9.422235000000000582e+01 1.992275000000000091e+03
7.900000000000000078e-02 1.930890000000000106e-01 2.364925000000000210e+01 9.708545000000000869e+01 1.993329999999999927e+03
8.000000000000000167e-02 1.932249999999999801e-01 2.477919999999999945e+01 9.971059999999999945e+01 1.994300000000000182e+03
8.100000000000000255e-02 1.933509999999999951e-01 2.577055000000000007e+01 1.021670500000000033e+02 1.995214999999999918e+03
8.200000000000000344e-02 1.934704999999999897e-01 2.664954999999999785e+01 1.045254999999999939e+02 1.996074999999999818e+03
8.300000000000000433e-02 1.935859999999999803e-01 2.744369999999999976e+01 1.068564999999999969e+02 1.996900000000000091e+03
8.400000000000000522e-02 1.936999999999999833e-01 2.817994999999999806e+01 1.092229999999999990e+02 1.997719999999999800e+03
8.500000000000000611e-02 1.938145000000000007e-01 2.888230000000000075e+01 1.116740000000000066e+02 1.998545000000000073e+03
8.600000000000000699e-02 1.939319999999999933e-01 2.957014999999999816e+01 1.142450000000000045e+02 1.999384999999999991e+03
8.700000000000000788e-02 1.940534999999999899e-01 3.025710000000000122e+01 1.169515000000000100e+02 2.000255000000000109e+03
8.800000000000000877e-02 1.941800000000000193e-01 3.095029999999999859e+01 1.197930000000000064e+02 2.001160000000000082e+03
8.899999999999999578e-02 1.943114999999999981e-01 3.165030000000000143e+01 1.227495000000000118e+02 2.002095000000000027e+03
8.999999999999999667e-02 1.944465000000000221e-01 3.235130000000000194e+01 1.257879999999999967e+02 2.003059999999999945e+03
9.099999999999999756e-02 1.945840000000000070e-01 3.304194999999999993e+01 1.288609999999999900e+02 2.004045000000000073e+03
9.199999999999999845e-02 1.947224999999999928e-01 3.370655000000000001e+01 1.319130000000000109e+02 2.005029999999999973e+03
9.299999999999999933e-02 1.948599999999999777e-01 3.432609999999999673e+01 1.348840000000000146e+02 2.006014999999999873e+03
9.400000000000000022e-02 1.949940000000000007e-01 3.487995000000000090e+01 1.377124999999999773e+02 2.006970000000000027e+03
9.500000000000000111e-02 1.951215000000000033e-01 3.534685000000000343e+01 1.403389999999999986e+02 2.007889999999999873e+03
9.600000000000000200e-02 1.952404999999999835e-01 3.570680000000000121e+01 1.427110000000000127e+02 2.008744999999999891e+03
9.700000000000000289e-02 1.953489999999999949e-01 3.594164999999999566e+01 1.447830000000000155e+02 2.009529999999999973e+03
9.800000000000000377e-02 1.954449999999999799e-01 3.603664999999999452e+01 1.465185000000000173e+02 2.010219999999999800e+03
9.900000000000000466e-02 1.955270000000000064e-01 3.598075000000000045e+01 1.478950000000000102e+02 2.010819999999999936e+03
1.000000000000000056e-01 1.955939999999999901e-01 3.576765000000000327e+01 1.488999999999999773e+02 2.011309999999999945e+03
1.010000000000000064e-01 1.956455000000000000e-01 3.539574999999999960e+01 1.495345000000000084e+02 2.011690000000000055e+03
1.020000000000000073e-01 1.956804999999999795e-01 3.486830000000000496e+01 1.498095000000000141e+02 2.011960000000000036e+03
1.030000000000000082e-01 1.957010000000000138e-01 3.419355000000000189e+01 1.497475000000000023e+02 2.012115000000000009e+03
1.040000000000000091e-01 1.957070000000000198e-01 3.338380000000000081e+01 1.493815000000000168e+02 2.012170000000000073e+03
1.050000000000000100e-01 1.956994999999999985e-01 3.245539999999999736e+01 1.487504999999999882e+02 2.012125000000000000e+03
1.059999999999999970e-01 1.956804999999999795e-01 3.142745000000000033e+01 1.478994999999999891e+02 2.012000000000000000e+03
1.069999999999999979e-01 1.956514999999999782e-01 3.032150000000000034e+01 1.468765000000000214e+02 2.011805000000000064e+03
1.079999999999999988e-01 1.956149999999999833e-01 2.916035000000000110e+01 1.457315000000000111e+02 2.011549999999999955e+03
1.089999999999999997e-01 1.955715000000000092e-01 2.796690000000000254e+01 1.445144999999999982e+02 2.011250000000000000e+03
1.100000000000000006e-01 1.955254999999999910e-01 2.676384999999999792e+01 1.432710000000000150e+02 2.010924999999999955e+03
1.110000000000000014e-01 1.954764999999999975e-01 2.557229999999999848e+01 1.420434999999999945e+02 2.010579999999999927e+03
1.120000000000000023e-01 1.954274999999999762e-01 2.441145000000000209e+01 1.408679999999999950e+02 2.010230000000000018e+03
1.130000000000000032e-01 1.953794999999999837e-01 2.329749999999999943e+01 1.397744999999999891e+02 2.009890000000000100e+03
1.140000000000000041e-01 1.953340000000000076e-01 2.224360000000000070e+01 1.387855000000000132e+02 2.009559999999999945e+03
1.150000000000000050e-01 1.952924999999999800e-01 2.125919999999999987e+01 1.379139999999999873e+02 2.009255000000000109e+03
1.160000000000000059e-01 1.952550000000000119e-01 2.035000000000000142e+01 1.371655000000000086e+02 2.008984999999999900e+03
1.170000000000000068e-01 1.952220000000000066e-01 1.951800000000000068e+01 1.365370000000000061e+02 2.008740000000000009e+03
1.180000000000000077e-01 1.951930000000000054e-01 1.876115000000000066e+01 1.360190000000000055e+02 2.008529999999999973e+03
1.190000000000000085e-01 1.951685000000000225e-01 1.807434999999999903e+01 1.355935000000000059e+02 2.008349999999999909e+03
1.200000000000000094e-01 1.951475000000000015e-01 1.744940000000000069e+01 1.352375000000000114e+02 2.008194999999999936e+03
1.209999999999999964e-01 1.951289999999999969e-01 1.687555000000000049e+01 1.349244999999999948e+02 2.008054999999999836e+03
1.219999999999999973e-01 1.951125000000000220e-01 1.634035000000000082e+01 1.346239999999999952e+02 2.007929999999999836e+03
1.229999999999999982e-01 1.950959999999999916e-01 1.583024999999999949e+01 1.343050000000000068e+02 2.007809999999999945e+03
1.239999999999999991e-01 1.950790000000000024e-01 1.533139999999999858e+01 1.339364999999999952e+02 2.007680000000000064e+03
1.250000000000000000e-01 1.950600000000000112e-01 1.483014999999999972e+01 1.334895000000000209e+02 2.007545000000000073e+03
1.260000000000000009e-01 1.950375000000000025e-01 1.431419999999999959e+01 1.329399999999999977e+02 2.007380000000000109e+03
1.270000000000000018e-01 1.950115000000000043e-01 1.377280000000000015e+01 1.322665000000000077e+02 2.007195000000000164e+03
1.280000000000000027e-01 1.949799999999999867e-01 1.319770000000000110e+01 1.314565000000000055e+02 2.006970000000000027e+03
1.290000000000000036e-01 1.949434999999999918e-01 1.258330000000000126e+01 1.305024999999999977e+02 2.006704999999999927e+03
1.300000000000000044e-01 1.949009999999999909e-01 1.192705000000000126e+01 1.294050000000000011e+02 2.006400000000000091e+03
1.310000000000000053e-01 1.948519999999999974e-01 1.122954999999999970e+01 1.281719999999999970e+02 2.006059999999999945e+03
1.320000000000000062e-01 1.947979999999999989e-01 1.049474999999999980e+01 1.268185000000000002e+02 2.005675000000000182e+03
1.330000000000000071e-01 1.947395000000000098e-01 9.729319999999999524e+00 1.253660000000000139e+02 2.005255000000000109e+03
1.340000000000000080e-01 1.946760000000000157e-01 8.942550000000000665e+00 1.238405000000000058e+02 2.004809999999999945e+03
1.350000000000000089e-01 1.946105000000000196e-01 8.145880000000000010e+00 1.222734999999999985e+02 2.004340000000000146e+03
1.360000000000000098e-01 1.945425000000000071e-01 7.352154999999999774e+00 1.206974999999999909e+02 2.003860000000000127e+03
1.370000000000000107e-01 1.944734999999999936e-01 6.575099999999999945e+00 1.191470000000000056e+02 2.003369999999999891e+03
1.380000000000000115e-01 1.944059999999999955e-01 5.828559999999999519e+00 1.176544999999999987e+02 2.002889999999999873e+03
1.390000000000000124e-01 1.943404999999999994e-01 5.125840000000000174e+00 1.162510000000000048e+02 2.002424999999999955e+03
1.400000000000000133e-01 1.942785000000000206e-01 4.479105000000000558e+00 1.149645000000000010e+02 2.001980000000000018e+03
1.410000000000000142e-01 1.942210000000000047e-01 3.898819999999999730e+00 1.138149999999999977e+02 2.001569999999999936e+03
1.420000000000000151e-01 1.941689999999999805e-01 3.393320000000000114e+00 1.128209999999999980e+02 2.001200000000000045e+03
1.430000000000000160e-01 1.941240000000000188e-01 2.968490000000000073e+00 1.119925000000000068e+02 2.000865000000000009e+03
1.440000000000000169e-01 1.940850000000000075e-01 2.627604999999999968e+00 1.113325000000000102e+02 2.000585000000000036e+03
1.450000000000000178e-01 1.940530000000000033e-01 2.371269999999999989e+00 1.108404999999999916e+02 2.000349999999999909e+03
1.459999999999999909e-01 1.940279999999999783e-01 2.197470000000000034e+00 1.105090000000000003e+02 2.000164999999999964e+03
1.469999999999999918e-01 1.940095000000000014e-01 2.101815000000000211e+00 1.103234999999999957e+02 2.000029999999999973e+03
1.479999999999999927e-01 1.939974999999999894e-01 2.077774999999999928e+00 1.102690000000000055e+02 1.999940000000000055e+03
1.489999999999999936e-01 1.939909999999999968e-01 2.117064999999999753e+00 1.103239999999999981e+02 1.999880000000000109e+03
1.499999999999999944e-01 1.939889999999999948e-01 2.210029999999999717e+00 1.104664999999999964e+02 1.999860000000000127e+03
1.509999999999999953e-01 1.939914999999999834e-01 2.346074999999999910e+00 1.106734999999999900e+02 1.999875000000000000e+03
1.519999999999999962e-01 1.939970000000000028e-01 2.514115000000000322e+00 1.109205000000000041e+02 1.999909999999999854e+03
1.529999999999999971e-01 1.940040000000000098e-01 2.702989999999999782e+00 1.111850000000000023e+02 1.999954999999999927e+03
1.539999999999999980e-01 1.940125000000000044e-01 2.901839999999999975e+00 1.114455000000000098e+02 2.000009999999999991e+03
1.549999999999999989e-01 1.940204999999999846e-01 3.100459999999999994e+00 1.116825000000000045e+02 2.000065000000000055e+03
1.559999999999999998e-01 1.940290000000000070e-01 3.289604999999999890e+00 1.118789999999999907e+02 2.000119999999999891e+03
1.570000000000000007e-01 1.940354999999999996e-01 3.461199999999999832e+00 1.120215000000000032e+02 2.000170000000000073e+03
1.580000000000000016e-01 1.940405000000000046e-01 3.608554999999999957e+00 1.120995000000000061e+02 2.000200000000000045e+03
1.590000000000000024e-01 1.940425000000000066e-01 3.726480000000000015e+00 1.121059999999999945e+02 2.000220000000000027e+03
