# t [s], A [cm^2], U [cm/s], P [cPa], c [cm/s]
1.000000000000000021e-03 7.276540000000000230e-01 4.064249999999998419e-03 9.427209999999999468e+01 1.584555000000000064e+03
2.000000000000000042e-03 7.276434999999999986e-01 1.063965000000000050e-03 9.424580000000000268e+01 1.584545000000000073e+03
3.000000000000000062e-03 7.277175000000000171e-01 1.162080500000000072e-01 9.436400000000000432e+01 1.584579999999999927e+03
4.000000000000000083e-03 7.277689999999999992e-01 2.084492000000000012e-01 9.447225000000000250e+01 1.584605000000000018e+03
5.000000000000000104e-03 7.277215000000000211e-01 1.607499000000000011e-01 9.437524999999999409e+01 1.584585000000000036e+03
6.000000000000000125e-03 7.276354999999999906e-01 4.625549999999994943e-02 9.411475000000000080e+01 1.584530000000000200e+03
7.000000000000000146e-03 7.275515000000000176e-01 -7.438250000000001805e-02 9.377514999999999645e+01 1.584449999999999818e+03
8.000000000000000167e-03 7.274110000000000298e-01 -2.965400000000000258e-01 9.325440000000000396e+01 1.584325000000000045e+03
9.000000000000001055e-03 7.271859999999999991e-01 -6.635450000000000514e-01 9.246535000000000082e+01 1.584144999999999982e+03
1.000000000000000194e-02 7.268769999999999953e-01 -1.168919999999999959e+00 9.137215000000000487e+01 1.583884999999999991e+03
1.099999999999999936e-02 7.264595000000000358e-01 -1.833489999999999842e+00 8.990919999999999845e+01 1.583534999999999854e+03
1.200000000000000025e-02 7.259229999999999849e-01 -2.653159999999999741e+00 8.803414999999999679e+01 1.583074999999999818e+03
1.300000000000000114e-02 7.253155000000000019e-01 -3.526245000000000296e+00 8.583445000000000391e+01 1.582529999999999973e+03
1.400000000000000203e-02 7.247310000000000141e-01 -4.274211000000000205e+00 8.353515000000000157e+01 1.581940000000000055e+03
1.499999999999999944e-02 7.242515000000000480e-01 -4.731410349999999987e+00 8.139749999999999375e+01 1.581360000000000127e+03
1.600000000000000033e-02 7.239094999999999835e-01 -4.818018000000000356e+00 7.960405000000000086e+01 1.580845000000000027e+03
1.700000000000000122e-02 7.236829999999999652e-01 -4.557095000000000340e+00 7.820105000000000928e+01 1.580404999999999973e+03
1.800000000000000211e-02 7.235130000000000727e-01 -4.047704999999999664e+00 7.710554999999999382e+01 1.580025000000000091e+03
1.900000000000000300e-02 7.233319999999999750e-01 -3.418474999999999930e+00 7.615555000000000518e+01 1.579690000000000055e+03
2.000000000000000042e-02 7.230874999999999941e-01 -2.780393500000000184e+00 7.517744999999999322e+01 1.579349999999999909e+03
2.100000000000000130e-02 7.227609999999999868e-01 -2.193430999999999909e+00 7.404834999999999923e+01 1.578985000000000127e+03
2.200000000000000219e-02 7.223640000000000061e-01 -1.657999999999999918e+00 7.272964999999999236e+01 1.578579999999999927e+03
2.299999999999999961e-02 7.219305000000000305e-01 -1.132864999999999789e+00 7.126154999999999973e+01 1.578139999999999873e+03
2.400000000000000050e-02 7.214964999999999851e-01 -5.684850000000001291e-01 6.972595000000001164e+01 1.577684999999999945e+03
2.500000000000000139e-02 7.210840000000000583e-01 6.122500000000030695e-02 6.819880000000000564e+01 1.577220000000000027e+03
2.600000000000000228e-02 7.206909999999999705e-01 7.406899999999998485e-01 6.671209999999999241e+01 1.576764999999999873e+03
2.700000000000000316e-02 7.202939999999999898e-01 1.411345000000000072e+00 6.523685000000000400e+01 1.576315000000000055e+03
2.800000000000000058e-02 7.198554999999999815e-01 1.984154999999999891e+00 6.368770000000000664e+01 1.575839999999999918e+03
2.900000000000000147e-02 7.193330000000000002e-01 2.360909999999999620e+00 6.194504999999999484e+01 1.575324999999999818e+03
3.000000000000000236e-02 7.186934999999999851e-01 2.458370000000000388e+00 5.988844999999999885e+01 1.574740000000000009e+03
3.099999999999999978e-02 7.179210000000000313e-01 2.229544999999999888e+00 5.743259999999999366e+01 1.574070000000000164e+03
3.200000000000000067e-02 7.170250000000000234e-01 1.676394999999999857e+00 5.455554999999999666e+01 1.573299999999999955e+03
3.300000000000000155e-02 7.160374999999999934e-01 8.504100000000001103e-01 5.131210000000000093e+01 1.572440000000000055e+03
3.400000000000000244e-02 7.150084999999999358e-01 -1.586999999999996191e-01 4.782805000000000462e+01 1.571505000000000109e+03
3.500000000000000333e-02 7.139965000000000339e-01 -1.241200000000000081e+00 4.427899999999999636e+01 1.570554999999999836e+03
3.600000000000000422e-02 7.130570000000000519e-01 -2.287224999999999397e+00 4.086169999999999902e+01 1.569615000000000009e+03
3.700000000000000511e-02 7.122380000000000377e-01 -3.201480000000000103e+00 3.776559999999999917e+01 1.568744999999999891e+03
3.799999999999999906e-02 7.115734999999999699e-01 -3.912869999999999848e+00 3.515059999999999718e+01 1.567974999999999909e+03
3.899999999999999994e-02 7.110830000000000206e-01 -4.376882499999999787e+00 3.313295000000000101e+01 1.567349999999999909e+03
4.000000000000000083e-02 7.107749999999999346e-01 -4.572924999999999685e+00 3.178115000000000023e+01 1.566894999999999982e+03
4.100000000000000172e-02 7.106479999999999464e-01 -4.498635000000000161e+00 3.111929999999999907e+01 1.566610000000000127e+03
4.200000000000000261e-02 7.106915000000000315e-01 -4.162799999999999834e+00 3.113560000000000372e+01 1.566515000000000100e+03
4.300000000000000350e-02 7.108959999999999724e-01 -3.578963499999999964e+00 3.179410000000000025e+01 1.566590000000000146e+03
4.400000000000000439e-02 7.112484999999999502e-01 -2.761219999999999786e+00 3.304534999999999911e+01 1.566829999999999927e+03
4.499999999999999833e-02 7.117355000000000764e-01 -1.722665000000000113e+00 3.483440000000000225e+01 1.567224999999999909e+03
4.599999999999999922e-02 7.123444999999999361e-01 -4.764349999999999419e-01 3.710504999999999853e+01 1.567760000000000218e+03
4.700000000000000011e-02 7.130639999999999201e-01 9.618149999999996425e-01 3.980010000000000048e+01 1.568424999999999955e+03
4.800000000000000100e-02 7.138774999999999427e-01 2.571070000000000189e+00 4.285999999999999943e+01 1.569200000000000045e+03
4.900000000000000189e-02 7.147684999999999178e-01 4.323285000000000267e+00 4.622015000000000384e+01 1.570070000000000164e+03
5.000000000000000278e-02 7.157160000000000188e-01 6.182840000000000558e+00 4.981029999999999802e+01 1.571009999999999991e+03
5.100000000000000366e-02 7.166989999999999750e-01 8.108124999999999361e+00 5.355440000000000111e+01 1.572009999999999991e+03
5.200000000000000455e-02 7.176955000000000418e-01 1.005424999999999969e+01 5.737360000000000326e+01 1.573045000000000073e+03
5.300000000000000544e-02 7.186839999999999895e-01 1.197603999999999935e+01 6.118974999999999653e+01 1.574090000000000146e+03
5.399999999999999939e-02 7.196454999999999380e-01 1.383186999999999856e+01 6.493049999999999500e+01 1.575134999999999991e+03
5.500000000000000028e-02 7.205654999999999699e-01 1.558631500000000081e+01 6.853324999999999534e+01 1.576155000000000200e+03
5.600000000000000117e-02 7.214325000000000321e-01 1.721195000000000164e+01 7.194939999999999714e+01 1.577139999999999873e+03
5.700000000000000205e-02 7.222410000000000219e-01 1.869069999999999965e+01 7.514619999999999322e+01 1.578074999999999818e+03
5.800000000000000294e-02 7.229905000000000914e-01 2.001334999999999908e+01 7.810755000000000337e+01 1.578954999999999927e+03
5.900000000000000383e-02 7.236814999999999776e-01 2.117895000000000039e+01 8.083334999999999582e+01 1.579775000000000091e+03
6.000000000000000472e-02 7.243200000000000749e-01 2.219355000000000189e+01 8.333719999999999573e+01 1.580539999999999964e+03
6.099999999999999867e-02 7.249140000000000583e-01 2.306850000000000023e+01 8.564424999999999955e+01 1.581250000000000000e+03
6.199999999999999956e-02 7.254730000000000345e-01 2.381929999999999836e+01 8.778740000000000521e+01 1.581920000000000073e+03
6.300000000000000044e-02 7.260064999999999991e-01 2.446399999999999864e+01 8.980500000000000682e+01 1.582549999999999955e+03
6.400000000000000133e-02 7.265254999999999352e-01 2.502210000000000178e+01 9.173744999999999550e+01 1.583154999999999973e+03
6.500000000000000222e-02 7.270395000000000607e-01 2.551344999999999885e+01 9.362460000000000093e+01 1.583740000000000009e+03
6.600000000000000311e-02 7.275575000000000792e-01 2.595720000000000027e+01 9.550329999999999586e+01 1.584324999999999818e+03
6.700000000000000400e-02 7.280865000000000808e-01 2.637049999999999983e+01 9.740524999999999523e+01 1.584900000000000091e+03
6.800000000000000488e-02 7.286325000000000163e-01 2.676784999999999926e+01 9.935499999999998977e+01 1.585490000000000009e+03
6.900000000000000577e-02 7.291974999999999429e-01 2.715954999999999941e+01 1.013671999999999969e+02 1.586095000000000027e+03
7.000000000000000666e-02 7.297819999999999308e-01 2.755170000000000030e+01 1.034480000000000075e+02 1.586704999999999927e+03
7.100000000000000755e-02 7.303830000000000044e-01 2.794529999999999959e+01 1.055914999999999964e+02 1.587340000000000146e+03
7.200000000000000844e-02 7.309954999999999092e-01 2.833655000000000257e+01 1.077819999999999965e+02 1.587980000000000018e+03
7.300000000000000933e-02 7.316105000000000524e-01 2.871715000000000018e+01 1.099939999999999998e+02 1.588630000000000109e+03
7.399999999999999634e-02 7.322195000000000231e-01 2.907535000000000025e+01 1.121954999999999956e+02 1.589275000000000091e+03
7.499999999999999722e-02 7.328105000000000313e-01 2.939695000000000036e+01 1.143469999999999942e+02 1.589914999999999964e+03
7.599999999999999811e-02 7.333739999999999704e-01 2.966624999999999801e+01 1.164085000000000036e+02 1.590530000000000200e+03
7.699999999999999900e-02 7.338979999999999393e-01 2.986779999999999902e+01 1.183379999999999939e+02 1.591109999999999900e+03
7.799999999999999989e-02 7.343729999999999425e-01 2.998709999999999809e+01 1.200970000000000084e+02 1.591650000000000091e+03
7.900000000000000078e-02 7.347909999999999719e-01 3.001180000000000092e+01 1.216529999999999916e+02 1.592134999999999991e+03
8.000000000000000167e-02 7.351460000000000772e-01 2.993245000000000289e+01 1.229774999999999920e+02 1.592559999999999945e+03
8.100000000000000255e-02 7.354324999999999335e-01 2.974289999999999878e+01 1.240525000000000091e+02 1.592920000000000073e+03
8.200000000000000344e-02 7.356499999999999151e-01 2.944079999999999941e+01 1.248675000000000068e+02 1.593204999999999927e+03
8.300000000000000433e-02 7.357985000000000220e-01 2.902744999999999820e+01 1.254199999999999875e+02 1.593420000000000073e+03
8.400000000000000522e-02 7.358799999999999786e-01 2.850795000000000101e+01 1.257179999999999893e+02 1.593559999999999945e+03
8.500000000000000611e-02 7.359005000000000685e-01 2.789059999999999917e+01 1.257764999999999986e+02 1.593630000000000109e+03
8.600000000000000699e-02 7.358649999999999913e-01 2.718679999999999808e+01 1.256170000000000044e+02 1.593644999999999982e+03
8.700000000000000788e-02 7.357810000000000183e-01 2.641029999999999944e+01 1.252674999999999983e+02 1.593595000000000027e+03
8.800000000000000877e-02 7.356584999999999930e-01 2.557690000000000197e+01 1.247604999999999933e+02 1.593494999999999891e+03
8.899999999999999578e-02 7.355050000000000754e-01 2.470320000000000249e+01 1.241295000000000073e+02 1.593355000000000018e+03
8.999999999999999667e-02 7.353304999999999980e-01 2.380659999999999954e+01 1.234114999999999895e+02 1.593180000000000064e+03
9.099999999999999756e-02 7.351440000000000197e-01 2.290424999999999756e+01 1.226415000000000077e+02 1.592990000000000009e+03
9.199999999999999845e-02 7.349544999999999551e-01 2.201219999999999999e+01 1.218534999999999968e+02 1.592779999999999973e+03
9.299999999999999933e-02 7.347695000000000753e-01 2.114499999999999957e+01 1.210785000000000053e+02 1.592569999999999936e+03
9.400000000000000022e-02 7.345949999999999980e-01 2.031520000000000081e+01 1.203435000000000059e+02 1.592365000000000009e+03
9.500000000000000111e-02 7.344370000000000065e-01 1.953255000000000052e+01 1.196694999999999993e+02 1.592180000000000064e+03
9.600000000000000200e-02 7.342980000000000063e-01 1.880405000000000015e+01 1.190725000000000051e+02 1.592000000000000000e+03
9.700000000000000289e-02 7.341809999999999725e-01 1.813354999999999961e+01 1.185619999999999976e+02 1.591840000000000146e+03
9.800000000000000377e-02 7.340854999999999464e-01 1.752185000000000059e+01 1.181424999999999983e+02 1.591704999999999927e+03
9.900000000000000466e-02 7.340115000000000389e-01 1.696669999999999945e+01 1.178114999999999952e+02 1.591595000000000027e+03
1.000000000000000056e-01 7.339560000000000528e-01 1.646330000000000027e+01 1.175614999999999952e+02 1.591505000000000109e+03
1.010000000000000064e-01 7.339160000000000128e-01 1.600435000000000230e+01 1.173804999999999978e+02 1.591434999999999945e+03
1.020000000000000073e-01 7.338860000000000383e-01 1.558084999999999987e+01 1.172524999999999977e+02 1.591375000000000000e+03
1.030000000000000082e-01 7.338624999999999732e-01 1.518250000000000099e+01 1.171594999999999942e+02 1.591329999999999927e+03
1.040000000000000091e-01 7.338390000000000191e-01 1.479809999999999981e+01 1.170809999999999889e+02 1.591295000000000073e+03
1.050000000000000100e-01 7.338115000000000610e-01 1.441640000000000121e+01 1.169969999999999999e+02 1.591264999999999873e+03
1.059999999999999970e-01 7.337750000000000661e-01 1.402650000000000041e+01 1.168880000000000052e+02 1.591224999999999909e+03
1.069999999999999979e-01 7.337240000000000428e-01 1.361854999999999905e+01 1.167359999999999900e+02 1.591175000000000182e+03
1.079999999999999988e-01 7.336555000000000160e-01 1.318394999999999939e+01 1.165250000000000057e+02 1.591115000000000009e+03
1.089999999999999997e-01 7.335679999999999978e-01 1.271603499999999976e+01 1.162439999999999998e+02 1.591034999999999854e+03
1.100000000000000006e-01 7.334579999999999433e-01 1.221032999999999902e+01 1.158855000000000075e+02 1.590934999999999945e+03
1.110000000000000014e-01 7.333274999999999100e-01 1.166469500000000004e+01 1.154445000000000050e+02 1.590820000000000164e+03
1.120000000000000023e-01 7.331754999999999800e-01 1.107957000000000036e+01 1.149244999999999948e+02 1.590680000000000064e+03
1.130000000000000032e-01 7.330054999999999765e-01 1.045771000000000051e+01 1.143294999999999959e+02 1.590519999999999982e+03
1.140000000000000041e-01 7.328194999999999570e-01 9.804325000000000401e+00 1.136709999999999923e+02 1.590345000000000027e+03
1.150000000000000050e-01 7.326230000000000242e-01 9.126789999999999736e+00 1.129625000000000057e+02 1.590154999999999973e+03
1.160000000000000059e-01 7.324195000000000011e-01 8.434025000000000105e+00 1.122214999999999918e+02 1.589949999999999818e+03
1.170000000000000068e-01 7.322159999999999780e-01 7.736394999999999911e+00 1.114669999999999987e+02 1.589744999999999891e+03
1.180000000000000077e-01 7.320170000000000288e-01 7.045130000000000337e+00 1.107210000000000036e+02 1.589534999999999854e+03
1.190000000000000085e-01 7.318279999999999230e-01 6.371679999999999566e+00 1.100035000000000025e+02 1.589329999999999927e+03
1.200000000000000094e-01 7.316549999999999443e-01 5.727274999999999672e+00 1.093365000000000009e+02 1.589139999999999873e+03
1.209999999999999964e-01 7.315035000000000842e-01 5.122395000000000032e+00 1.087384999999999877e+02 1.588965000000000146e+03
1.219999999999999973e-01 7.313754999999999562e-01 4.566259999999999764e+00 1.082265000000000015e+02 1.588804999999999836e+03
1.229999999999999982e-01 7.312760000000000371e-01 4.066449999999999676e+00 1.078130000000000024e+02 1.588674999999999955e+03
1.239999999999999991e-01 7.312060000000000226e-01 3.628570000000000295e+00 1.075074999999999932e+02 1.588570000000000164e+03
1.250000000000000000e-01 7.311659999999999826e-01 3.256060000000000176e+00 1.073155000000000001e+02 1.588500000000000000e+03
1.260000000000000009e-01 7.311564999999999870e-01 2.950115000000000265e+00 1.072369999999999948e+02 1.588454999999999927e+03
1.270000000000000018e-01 7.311760000000000481e-01 2.709699999999999775e+00 1.072694999999999936e+02 1.588444999999999936e+03
1.280000000000000027e-01 7.312214999999999687e-01 2.531705000000000094e+00 1.074039999999999964e+02 1.588460000000000036e+03
1.290000000000000036e-01 7.312899999999999956e-01 2.411170000000000258e+00 1.076295000000000073e+02 1.588505000000000109e+03
1.300000000000000044e-01 7.313769999999999438e-01 2.341594999999999871e+00 1.079329999999999927e+02 1.588565000000000055e+03
1.310000000000000053e-01 7.314789999999999903e-01 2.315280000000000005e+00 1.082969999999999970e+02 1.588654999999999973e+03
1.320000000000000062e-01 7.315905000000000324e-01 2.323714999999999975e+00 1.087055000000000007e+02 1.588750000000000000e+03
1.330000000000000071e-01 7.317074999999999552e-01 2.357944999999999958e+00 1.091394999999999982e+02 1.588865000000000009e+03
1.340000000000000080e-01 7.318240000000000300e-01 2.408949999999999925e+00 1.095819999999999936e+02 1.588974999999999909e+03
1.350000000000000089e-01 7.319375000000000187e-01 2.467989999999999906e+00 1.100159999999999911e+02 1.589090000000000146e+03
1.360000000000000098e-01 7.320434999999999581e-01 2.526880000000000237e+00 1.104265000000000043e+02 1.589204999999999927e+03
1.370000000000000107e-01 7.321385000000000254e-01 2.578244999999999898e+00 1.108000000000000114e+02 1.589309999999999945e+03
1.380000000000000115e-01 7.322204999999999409e-01 2.615700000000000358e+00 1.111250000000000000e+02 1.589404999999999973e+03
1.390000000000000124e-01 7.322865000000000624e-01 2.634024999999999839e+00 1.113944999999999936e+02 1.589485000000000127e+03
1.400000000000000133e-01 7.323364999999999458e-01 2.629199999999999982e+00 1.116020000000000039e+02 1.589549999999999955e+03
1.410000000000000142e-01 7.323690000000000477e-01 2.598485000000000156e+00 1.117429999999999950e+02 1.589599999999999909e+03
1.420000000000000151e-01 7.323839999999999240e-01 2.540370000000000239e+00 1.118185000000000002e+02 1.589630000000000109e+03
1.430000000000000160e-01 7.323830000000000062e-01 2.454514999999999780e+00 1.118285000000000053e+02 1.589644999999999982e+03
1.440000000000000169e-01 7.323659999999999615e-01 2.341714999999999769e+00 1.117759999999999962e+02 1.589639999999999873e+03
1.450000000000000178e-01 7.323344999999999994e-01 2.203695000000000181e+00 1.116675000000000040e+02 1.589625000000000000e+03
1.459999999999999909e-01 7.322904999999999553e-01 2.043045000000000222e+00 1.115070000000000050e+02 1.589590000000000146e+03
1.469999999999999918e-01 7.322364999999999569e-01 1.863013499999999878e+00 1.113029999999999973e+02 1.589539999999999964e+03
1.479999999999999927e-01 7.321729999999999627e-01 1.667330500000000049e+00 1.110625000000000000e+02 1.589480000000000018e+03
1.489999999999999936e-01 7.321035000000000181e-01 1.460053500000000115e+00 1.107934999999999945e+02 1.589414999999999964e+03
1.499999999999999944e-01 7.320290000000000408e-01 1.245364499999999985e+00 1.105035000000000025e+02 1.589340000000000146e+03
1.509999999999999953e-01 7.319519999999999360e-01 1.027401845000000202e+00 1.102000000000000028e+02 1.589260000000000218e+03
1.519999999999999962e-01 7.318735000000000657e-01 8.100990000000000135e-01 1.098894999999999982e+02 1.589174999999999955e+03
1.529999999999999971e-01 7.317955000000000432e-01 5.970520000000000271e-01 1.095775000000000006e+02 1.589090000000000146e+03
1.539999999999999980e-01 7.317184999999999384e-01 3.913694999999999813e-01 1.092690000000000055e+02 1.589005000000000109e+03
1.549999999999999989e-01 7.316435000000000022e-01 1.956339999999999746e-01 1.089675000000000011e+02 1.588924999999999955e+03
1.559999999999999998e-01 7.315715000000000412e-01 1.180700000000001193e-02 1.086750000000000114e+02 1.588839999999999918e+03
1.570000000000000007e-01 7.315015000000000267e-01 -1.587705000000000366e-01 1.083930000000000007e+02 1.588755000000000109e+03
1.580000000000000016e-01 7.314339999999999176e-01 -3.153624999999999901e-01 1.081210000000000093e+02 1.588675000000000182e+03
1.590000000000000024e-01 7.313689999999999358e-01 -4.577984999999999416e-01 1.078590000000000089e+02 1.588599999999999909e+03
