# t [s], A [cm^2], U [cm/s], P [cPa], c [cm/s]
1.000000000000000021e-03 5.707790000000000363e-01 3.465849999999999487e-03 1.096430000000000007e+02 1.617375000000000000e+03
2.000000000000000042e-03 5.707765000000000200e-01 1.186790000000000067e-02 1.096255000000000024e+02 1.617369999999999891e+03
3.000000000000000062e-03 5.708444999999999769e-01 1.478163500000000130e-01 1.097744999999999891e+02 1.617410000000000082e+03
4.000000000000000083e-03 5.708720000000000461e-01 2.149889999999999857e-01 1.098584999999999923e+02 1.617429999999999836e+03
5.000000000000000104e-03 5.708225000000000104e-01 1.325259999999999772e-01 1.096989999999999981e+02 1.617400000000000091e+03
6.000000000000000125e-03 5.707554999999999712e-01 7.180500000000034078e-03 1.093834999999999980e+02 1.617335000000000036e+03
7.000000000000000146e-03 5.706744999999999735e-01 -1.582149999999999945e-01 1.089339999999999975e+02 1.617240000000000009e+03
8.000000000000000167e-03 5.705279999999999241e-01 -4.676149999999998919e-01 1.082119999999999891e+02 1.617089999999999918e+03
9.000000000000001055e-03 5.703065000000000495e-01 -9.380500000000000504e-01 1.071409999999999911e+02 1.616849999999999909e+03
1.000000000000000194e-02 5.700005000000000210e-01 -1.570140000000000313e+00 1.056655000000000086e+02 1.616529999999999973e+03
1.099999999999999936e-02 5.695915000000000283e-01 -2.378624999999999989e+00 1.037152499999999975e+02 1.616090000000000146e+03
1.200000000000000025e-02 5.690929999999999600e-01 -3.306714999999999627e+00 1.013067999999999955e+02 1.615535000000000082e+03
1.300000000000000114e-02 5.685675000000000034e-01 -4.188844999999999708e+00 9.862900000000000489e+01 1.614894999999999982e+03
1.400000000000000203e-02 5.680950000000000166e-01 -4.822144499999999390e+00 9.598210000000000264e+01 1.614235000000000127e+03
1.499999999999999944e-02 5.677265000000000228e-01 -5.067389000000000365e+00 9.363714999999999122e+01 1.613619999999999891e+03
1.600000000000000033e-02 5.674649999999999972e-01 -4.899757999999999392e+00 9.173095000000000709e+01 1.613075000000000045e+03
1.700000000000000122e-02 5.672734999999999861e-01 -4.398175000000000168e+00 9.023650000000000659e+01 1.612610000000000127e+03
1.800000000000000211e-02 5.670990000000000197e-01 -3.698569500000000065e+00 8.900175000000000125e+01 1.612195000000000164e+03
1.900000000000000300e-02 5.668904999999999639e-01 -2.937199000000000115e+00 8.782540000000000191e+01 1.611805000000000064e+03
2.000000000000000042e-02 5.666204999999999714e-01 -2.204359000000000179e+00 8.653685000000000116e+01 1.611400000000000091e+03
2.100000000000000130e-02 5.662899999999999601e-01 -1.524464999999999959e+00 8.505140000000000100e+01 1.610954999999999927e+03
2.200000000000000219e-02 5.659195000000000197e-01 -8.686700000000002753e-01 8.337909999999999400e+01 1.610474999999999909e+03
2.299999999999999961e-02 5.655369999999999564e-01 -1.899350000000001870e-01 8.159110000000001151e+01 1.609965000000000146e+03
2.400000000000000050e-02 5.651599999999999957e-01 5.394099999999997230e-01 7.976470000000000482e+01 1.609440000000000055e+03
2.500000000000000139e-02 5.647885000000000266e-01 1.304100000000000037e+00 7.793665000000000020e+01 1.608914999999999964e+03
2.600000000000000228e-02 5.644059999999999633e-01 2.042374999999999829e+00 7.607880000000000109e+01 1.608375000000000000e+03
2.700000000000000316e-02 5.639830000000000121e-01 2.659539999999999793e+00 7.410114999999998986e+01 1.607815000000000055e+03
2.800000000000000058e-02 5.634860000000000424e-01 3.052079999999999682e+00 7.187680000000000291e+01 1.607200000000000045e+03
2.900000000000000147e-02 5.628900000000000015e-01 3.135064999999999991e+00 6.928065000000000850e+01 1.606505000000000109e+03
3.000000000000000236e-02 5.621859999999999635e-01 2.865285000000000526e+00 6.623044999999999050e+01 1.605710000000000036e+03
3.099999999999999978e-02 5.613825000000000065e-01 2.254075000000000273e+00 6.271849999999999881e+01 1.604815000000000055e+03
3.200000000000000067e-02 5.605115000000000514e-01 1.366284999999999528e+00 5.882495000000000118e+01 1.603829999999999927e+03
3.300000000000000155e-02 5.596155000000000435e-01 3.067000000000001947e-01 5.470879999999999654e+01 1.602784999999999854e+03
3.400000000000000244e-02 5.587439999999999074e-01 -8.010500000000000398e-01 5.058265000000000100e+01 1.601724999999999909e+03
3.500000000000000333e-02 5.579450000000000243e-01 -1.835595000000000532e+00 4.667849999999999966e+01 1.600699999999999818e+03
3.600000000000000422e-02 5.572580000000000311e-01 -2.693835000000000424e+00 4.321529999999999916e+01 1.599759999999999991e+03
3.700000000000000511e-02 5.567115000000000258e-01 -3.300270000000000259e+00 4.037355000000000160e+01 1.598954999999999927e+03
3.799999999999999906e-02 5.563230000000000119e-01 -3.608430000000000248e+00 3.828099999999999881e+01 1.598320000000000164e+03
3.899999999999999994e-02 5.560994999999999688e-01 -3.597532000000000174e+00 3.700900000000000034e+01 1.597875000000000000e+03
4.000000000000000083e-02 5.560390000000000610e-01 -3.265514999999999723e+00 3.657784999999999798e+01 1.597634999999999991e+03
4.100000000000000172e-02 5.561355000000000048e-01 -2.621754999999999836e+00 3.696795000000000186e+01 1.597610000000000127e+03
4.200000000000000261e-02 5.563774999999999693e-01 -1.681114999999999915e+00 3.813224999999999909e+01 1.597779999999999973e+03
4.300000000000000350e-02 5.567545000000000410e-01 -4.605950000000000877e-01 4.000820000000000221e+01 1.598144999999999982e+03
4.400000000000000439e-02 5.572534999999999572e-01 1.021075000000000177e+00 4.252469999999999573e+01 1.598684999999999945e+03
4.499999999999999833e-02 5.578625000000000389e-01 2.741845000000000088e+00 4.560625000000000284e+01 1.599380000000000109e+03
4.599999999999999922e-02 5.585649999999999782e-01 4.673795000000000144e+00 4.917260000000000275e+01 1.600215000000000146e+03
4.700000000000000011e-02 5.593449999999999811e-01 6.781424999999999592e+00 5.313799999999999812e+01 1.601164999999999964e+03
4.800000000000000100e-02 5.601829999999999865e-01 9.021290000000000475e+00 5.741049999999999898e+01 1.602215000000000146e+03
4.900000000000000189e-02 5.610589999999999744e-01 1.134321650000000048e+01 6.189249999999999829e+01 1.603335000000000036e+03
5.000000000000000278e-02 5.619525000000000770e-01 1.369335000000000058e+01 6.648409999999999798e+01 1.604505000000000109e+03
5.100000000000000366e-02 5.628440000000000110e-01 1.601788499999999971e+01 7.108754999999999313e+01 1.605694999999999936e+03
5.200000000000000455e-02 5.637155000000000360e-01 1.826709499999999764e+01 7.561254999999999882e+01 1.606880000000000109e+03
5.300000000000000544e-02 5.645540000000000003e-01 2.039839999999999876e+01 7.998205000000000098e+01 1.608049999999999955e+03
5.399999999999999939e-02 5.653485000000000316e-01 2.237900000000000134e+01 8.413615000000000066e+01 1.609184999999999945e+03
5.500000000000000028e-02 5.660935000000000272e-01 2.418694999999999951e+01 8.803534999999999400e+01 1.610260000000000218e+03
5.600000000000000117e-02 5.667869999999999298e-01 2.581129999999999924e+01 9.166134999999999877e+01 1.611280000000000200e+03
5.700000000000000205e-02 5.674314999999999776e-01 2.725079999999999814e+01 9.501529999999999632e+01 1.612244999999999891e+03
5.800000000000000294e-02 5.680324999999999402e-01 2.851310000000000144e+01 9.811539999999999395e+01 1.613144999999999982e+03
5.900000000000000383e-02 5.685959999999999903e-01 2.961230000000000118e+01 1.009947999999999979e+02 1.613985000000000127e+03
6.000000000000000472e-02 5.691315000000000124e-01 3.056750000000000256e+01 1.036959499999999963e+02 1.614779999999999973e+03
6.099999999999999867e-02 5.696480000000000432e-01 3.140120000000000289e+01 1.062680000000000007e+02 1.615545000000000073e+03
6.199999999999999956e-02 5.701555000000000373e-01 3.213734999999999786e+01 1.087614999999999981e+02 1.616279999999999973e+03
6.300000000000000044e-02 5.706625000000000725e-01 3.280030000000000001e+01 1.112249999999999943e+02 1.617005000000000109e+03
6.400000000000000133e-02 5.711779999999999635e-01 3.341294999999999504e+01 1.137039999999999935e+02 1.617724999999999909e+03
6.500000000000000222e-02 5.717069999999999652e-01 3.399564999999999770e+01 1.162349999999999994e+02 1.618449999999999818e+03
6.600000000000000311e-02 5.722549999999999581e-01 3.456465000000000032e+01 1.188449999999999989e+02 1.619190000000000055e+03
6.700000000000000400e-02 5.728235000000000410e-01 3.513119999999999976e+01 1.215485000000000042e+02 1.619954999999999927e+03
6.800000000000000488e-02 5.734110000000000040e-01 3.570060000000000144e+01 1.243464999999999918e+02 1.620740000000000009e+03
6.900000000000000577e-02 5.740149999999999419e-01 3.627195000000000391e+01 1.272280000000000086e+02 1.621545000000000073e+03
7.000000000000000666e-02 5.746284999999999865e-01 3.683840000000000003e+01 1.301665000000000134e+02 1.622360000000000127e+03
7.100000000000000755e-02 5.752445000000000475e-01 3.738765000000000072e+01 1.331265000000000214e+02 1.623179999999999836e+03
7.200000000000000844e-02 5.758520000000000305e-01 3.790344999999999942e+01 1.360614999999999952e+02 1.624005000000000109e+03
7.300000000000000933e-02 5.764415000000000511e-01 3.836670000000000158e+01 1.389205000000000041e+02 1.624809999999999945e+03
7.399999999999999634e-02 5.770020000000000149e-01 3.875719999999999743e+01 1.416505000000000223e+02 1.625585000000000036e+03
7.499999999999999722e-02 5.775230000000000086e-01 3.905530000000000257e+01 1.441984999999999957e+02 1.626315000000000055e+03
7.599999999999999811e-02 5.779959999999999543e-01 3.924289999999999878e+01 1.465165000000000077e+02 1.626994999999999891e+03
7.699999999999999900e-02 5.784135000000000248e-01 3.930509999999999593e+01 1.485654999999999859e+02 1.627610000000000127e+03
7.799999999999999989e-02 5.787689999999999779e-01 3.923104999999999620e+01 1.503125000000000000e+02 1.628144999999999982e+03
7.900000000000000078e-02 5.790604999999999780e-01 3.901425000000000409e+01 1.517379999999999995e+02 1.628599999999999909e+03
8.000000000000000167e-02 5.792865000000000375e-01 3.865310000000000201e+01 1.528329999999999984e+02 1.628970000000000027e+03
8.100000000000000255e-02 5.794479999999999631e-01 3.815090000000000003e+01 1.536014999999999873e+02 1.629255000000000109e+03
8.200000000000000344e-02 5.795479999999999521e-01 3.751565000000000083e+01 1.540554999999999950e+02 1.629450000000000045e+03
8.300000000000000433e-02 5.795915000000000372e-01 3.675939999999999941e+01 1.542194999999999823e+02 1.629570000000000164e+03
8.400000000000000522e-02 5.795860000000000456e-01 3.589789999999999992e+01 1.541254999999999882e+02 1.629610000000000127e+03
8.500000000000000611e-02 5.795379999999999976e-01 3.494979999999999620e+01 1.538095000000000141e+02 1.629590000000000146e+03
8.600000000000000699e-02 5.794559999999999711e-01 3.393554999999999922e+01 1.533160000000000025e+02 1.629514999999999873e+03
8.700000000000000788e-02 5.793485000000000440e-01 3.287684999999999746e+01 1.526890000000000214e+02 1.629394999999999982e+03
8.800000000000000877e-02 5.792245000000000310e-01 3.179554999999999865e+01 1.519724999999999966e+02 1.629240000000000009e+03
8.899999999999999578e-02 5.790929999999999689e-01 3.071249999999999858e+01 1.512110000000000127e+02 1.629069999999999936e+03
8.999999999999999667e-02 5.789604999999999890e-01 2.964699999999999847e+01 1.504424999999999955e+02 1.628884999999999991e+03
9.099999999999999756e-02 5.788335000000000008e-01 2.861574999999999847e+01 1.497024999999999864e+02 1.628699999999999818e+03
9.199999999999999845e-02 5.787174999999999958e-01 2.763250000000000028e+01 1.490185000000000173e+02 1.628525000000000091e+03
9.299999999999999933e-02 5.786149999999999904e-01 2.670730000000000004e+01 1.484105000000000132e+02 1.628355000000000018e+03
9.400000000000000022e-02 5.785294999999999188e-01 2.584644999999999726e+01 1.478915000000000077e+02 1.628210000000000036e+03
9.500000000000000111e-02 5.784610000000000030e-01 2.505199999999999960e+01 1.474664999999999964e+02 1.628085000000000036e+03
9.600000000000000200e-02 5.784080000000000332e-01 2.432270000000000110e+01 1.471334999999999980e+02 1.627980000000000018e+03
9.700000000000000289e-02 5.783690000000000220e-01 2.365339999999999776e+01 1.468810000000000002e+02 1.627889999999999873e+03
9.800000000000000377e-02 5.783405000000000351e-01 2.303620000000000090e+01 1.466949999999999932e+02 1.627825000000000045e+03
9.900000000000000466e-02 5.783179999999999987e-01 2.246065000000000111e+01 1.465550000000000068e+02 1.627764999999999873e+03
1.000000000000000056e-01 5.782975000000000199e-01 2.191479999999999961e+01 1.464375000000000000e+02 1.627720000000000027e+03
1.010000000000000064e-01 5.782739999999999547e-01 2.138569999999999993e+01 1.463170000000000073e+02 1.627675000000000182e+03
1.020000000000000073e-01 5.782420000000000337e-01 2.086005000000000109e+01 1.461690000000000111e+02 1.627625000000000000e+03
1.030000000000000082e-01 5.781979999999999897e-01 2.032529999999999859e+01 1.459689999999999941e+02 1.627559999999999945e+03
1.040000000000000091e-01 5.781370000000000120e-01 1.977009999999999934e+01 1.456965000000000146e+02 1.627485000000000127e+03
1.050000000000000100e-01 5.780575000000000019e-01 1.918479999999999919e+01 1.453329999999999984e+02 1.627389999999999873e+03
1.059999999999999970e-01 5.779560000000000253e-01 1.856224999999999881e+01 1.448664999999999736e+02 1.627269999999999982e+03
1.069999999999999979e-01 5.778324999999999712e-01 1.789789999999999992e+01 1.442894999999999754e+02 1.627119999999999891e+03
1.079999999999999988e-01 5.776864999999999917e-01 1.719010000000000105e+01 1.436005000000000109e+02 1.626944999999999936e+03
1.089999999999999997e-01 5.775194999999999634e-01 1.644020000000000081e+01 1.428044999999999902e+02 1.626744999999999891e+03
1.100000000000000006e-01 5.773345000000000837e-01 1.565244999999999997e+01 1.419105000000000132e+02 1.626514999999999873e+03
1.110000000000000014e-01 5.771334999999999660e-01 1.483404499999999970e+01 1.409339999999999975e+02 1.626264999999999873e+03
1.120000000000000023e-01 5.769220000000000459e-01 1.399415499999999923e+01 1.398950000000000102e+02 1.625994999999999891e+03
1.130000000000000032e-01 5.767039999999999944e-01 1.314412000000000091e+01 1.388165000000000191e+02 1.625715000000000146e+03
1.140000000000000041e-01 5.764850000000000252e-01 1.229656999999999911e+01 1.377235000000000014e+02 1.625424999999999955e+03
1.150000000000000050e-01 5.762700000000000600e-01 1.146499000000000024e+01 1.366440000000000055e+02 1.625139999999999873e+03
1.160000000000000059e-01 5.760650000000000492e-01 1.066281000000000034e+01 1.356030000000000086e+02 1.624855000000000018e+03
1.170000000000000068e-01 5.758745000000000669e-01 9.903159999999999741e+00 1.346274999999999977e+02 1.624585000000000036e+03
1.180000000000000077e-01 5.757025000000000059e-01 9.197820000000000107e+00 1.337390000000000043e+02 1.624335000000000036e+03
1.190000000000000085e-01 5.755529999999999813e-01 8.556974999999999554e+00 1.329574999999999818e+02 1.624105000000000018e+03
1.200000000000000094e-01 5.754280000000000506e-01 7.988794999999999646e+00 1.322980000000000018e+02 1.623909999999999854e+03
1.209999999999999964e-01 5.753304999999999669e-01 7.498860000000000525e+00 1.317704999999999984e+02 1.623740000000000009e+03
1.219999999999999973e-01 5.752589999999999648e-01 7.090160000000000018e+00 1.313795000000000073e+02 1.623615000000000009e+03
1.229999999999999982e-01 5.752150000000000318e-01 6.762950000000000017e+00 1.311245000000000118e+02 1.623514999999999873e+03
1.239999999999999991e-01 5.751954999999999707e-01 6.514934999999999476e+00 1.309995000000000118e+02 1.623449999999999818e+03
1.250000000000000000e-01 5.751994999999999747e-01 6.341425000000000090e+00 1.309954999999999927e+02 1.623424999999999955e+03
1.260000000000000009e-01 5.752230000000000398e-01 6.235644999999999882e+00 1.310969999999999800e+02 1.623420000000000073e+03
1.270000000000000018e-01 5.752630000000000798e-01 6.189160000000000217e+00 1.312884999999999991e+02 1.623444999999999936e+03
1.280000000000000027e-01 5.753155000000000907e-01 6.192320000000000491e+00 1.315494999999999948e+02 1.623490000000000009e+03
1.290000000000000036e-01 5.753770000000000273e-01 6.234704999999999941e+00 1.318605000000000018e+02 1.623550000000000182e+03
1.300000000000000044e-01 5.754425000000000789e-01 6.305604999999999905e+00 1.322015000000000100e+02 1.623625000000000000e+03
1.310000000000000053e-01 5.755090000000000483e-01 6.394465000000000288e+00 1.325525000000000091e+02 1.623700000000000045e+03
1.320000000000000062e-01 5.755734999999999602e-01 6.491270000000000095e+00 1.328954999999999984e+02 1.623784999999999854e+03
1.330000000000000071e-01 5.756320000000000325e-01 6.586864999999999526e+00 1.332154999999999916e+02 1.623865000000000009e+03
1.340000000000000080e-01 5.756829999999999448e-01 6.673275000000000290e+00 1.334989999999999952e+02 1.623934999999999945e+03
1.350000000000000089e-01 5.757244999999999724e-01 6.743859999999999744e+00 1.337350000000000136e+02 1.624000000000000000e+03
1.360000000000000098e-01 5.757550000000000168e-01 6.793459999999999610e+00 1.339175000000000182e+02 1.624049999999999955e+03
1.370000000000000107e-01 5.757744999999999669e-01 6.818469999999999587e+00 1.340430000000000064e+02 1.624090000000000146e+03
1.380000000000000115e-01 5.757825000000000859e-01 6.816799999999999748e+00 1.341090000000000089e+02 1.624115000000000009e+03
1.390000000000000124e-01 5.757794999999999996e-01 6.787855000000000416e+00 1.341184999999999832e+02 1.624125000000000000e+03
1.400000000000000133e-01 5.757670000000000288e-01 6.732364999999999711e+00 1.340745000000000005e+02 1.624125000000000000e+03
1.410000000000000142e-01 5.757459999999999800e-01 6.652275000000000382e+00 1.339839999999999804e+02 1.624105000000000018e+03
1.420000000000000151e-01 5.757179999999999520e-01 6.550510000000000055e+00 1.338539999999999850e+02 1.624079999999999927e+03
1.430000000000000160e-01 5.756850000000000023e-01 6.430775000000000574e+00 1.336924999999999955e+02 1.624045000000000073e+03
1.440000000000000169e-01 5.756479999999999375e-01 6.297299999999999898e+00 1.335095000000000027e+02 1.624005000000000109e+03
1.450000000000000178e-01 5.756094999999999962e-01 6.154605000000000103e+00 1.333135000000000048e+02 1.623960000000000036e+03
1.459999999999999909e-01 5.755710000000000548e-01 6.007245000000000168e+00 1.331129999999999995e+02 1.623914999999999964e+03
1.469999999999999918e-01 5.755339999999999900e-01 5.859584999999999155e+00 1.329159999999999968e+02 1.623860000000000127e+03
1.479999999999999927e-01 5.754989999999999828e-01 5.715580000000000105e+00 1.327290000000000134e+02 1.623815000000000055e+03
1.489999999999999936e-01 5.754675000000000207e-01 5.578630000000000422e+00 1.325564999999999998e+02 1.623769999999999982e+03
1.499999999999999944e-01 5.754400000000000626e-01 5.451414999999999900e+00 1.324030000000000200e+02 1.623730000000000018e+03
1.509999999999999953e-01 5.754164999999999974e-01 5.335834999999999440e+00 1.322704999999999984e+02 1.623695000000000164e+03
1.519999999999999962e-01 5.753975000000000062e-01 5.232944999999999958e+00 1.321585000000000036e+02 1.623660000000000082e+03
1.529999999999999971e-01 5.753819999999999490e-01 5.143015000000000114e+00 1.320664999999999907e+02 1.623630000000000109e+03
1.539999999999999980e-01 5.753694999999999782e-01 5.065554999999999808e+00 1.319904999999999973e+02 1.623610000000000127e+03
1.549999999999999989e-01 5.753595000000000237e-01 4.999425000000000452e+00 1.319275000000000091e+02 1.623590000000000146e+03
1.559999999999999998e-01 5.753504999999999869e-01 4.942980000000000373e+00 1.318725000000000023e+02 1.623570000000000164e+03
1.570000000000000007e-01 5.753409999999999913e-01 4.894214999999999982e+00 1.318195000000000050e+02 1.623555000000000064e+03
1.580000000000000016e-01 5.753310000000000368e-01 4.850905000000000022e+00 1.317649999999999864e+02 1.623539999999999964e+03
1.590000000000000024e-01 5.753190000000000248e-01 4.810824999999999463e+00 1.317024999999999864e+02 1.623514999999999873e+03
