# t [s], A [cm^2], U [cm/s], P [cPa], c [cm/s]
1.000000000000000021e-03 5.407104999999999828e-01 5.370600000000003149e-03 1.018230000000000075e+02 1.571875000000000000e+03
2.000000000000000042e-03 5.407005000000000283e-01 -3.208524999999999832e-03 1.017959999999999923e+02 1.571869999999999891e+03
3.000000000000000062e-03 5.407429999999999737e-01 8.046619999999998774e-02 1.018820000000000050e+02 1.571884999999999991e+03
4.000000000000000083e-03 5.407889999999999642e-01 1.799593000000000165e-01 1.020024999999999977e+02 1.571920000000000073e+03
5.000000000000000104e-03 5.407739999999999769e-01 1.709380999999999817e-01 1.019724999999999966e+02 1.571914999999999964e+03
6.000000000000000125e-03 5.407165000000000443e-01 7.431049999999997380e-02 1.017729999999999961e+02 1.571875000000000000e+03
7.000000000000000146e-03 5.406659999999999799e-01 -1.577200000000000824e-02 1.015150000000000006e+02 1.571809999999999945e+03
8.000000000000000167e-03 5.405974999999999531e-01 -1.518625000000000114e-01 1.011574999999999989e+02 1.571724999999999909e+03
9.000000000000001055e-03 5.404800000000000715e-01 -4.020550000000000512e-01 1.006054500000000047e+02 1.571605000000000018e+03
1.000000000000000194e-02 5.403124999999999734e-01 -7.668750000000000844e-01 9.982335000000000491e+01 1.571420000000000073e+03
1.099999999999999936e-02 5.400834999999999386e-01 -1.256234999999999769e+00 9.876364999999999839e+01 1.571170000000000073e+03
1.200000000000000025e-02 5.397785000000000499e-01 -1.888574999999999893e+00 9.736419999999999675e+01 1.570840000000000146e+03
1.300000000000000114e-02 5.394060000000000521e-01 -2.623040000000000038e+00 9.563089999999999691e+01 1.570414999999999964e+03
1.400000000000000203e-02 5.390129999999999644e-01 -3.337515000000000231e+00 9.368825000000001069e+01 1.569929999999999836e+03
1.499999999999999944e-02 5.386560000000000237e-01 -3.881343999999999905e+00 9.173619999999999663e+01 1.569420000000000073e+03
1.600000000000000033e-02 5.383725000000000316e-01 -4.146086999999999634e+00 8.995489999999999498e+01 1.568929999999999836e+03
1.700000000000000122e-02 5.381660000000000332e-01 -4.102049000000000056e+00 8.843930000000000291e+01 1.568490000000000009e+03
1.800000000000000211e-02 5.380099999999999882e-01 -3.793427999999999578e+00 8.717955000000000609e+01 1.568095000000000027e+03
1.900000000000000300e-02 5.378665000000000251e-01 -3.308793000000000095e+00 8.608450000000000557e+01 1.567734999999999900e+03
2.000000000000000042e-02 5.376969999999999805e-01 -2.744446500000000011e+00 8.502655000000000030e+01 1.567384999999999991e+03
2.100000000000000130e-02 5.374794999999999989e-01 -2.172606500000000107e+00 8.389015000000000555e+01 1.567019999999999982e+03
2.200000000000000219e-02 5.372090000000000476e-01 -1.622900000000000009e+00 8.260984999999999445e+01 1.566619999999999891e+03
2.299999999999999961e-02 5.368999999999999329e-01 -1.082520000000000149e+00 8.118479999999999563e+01 1.566194999999999936e+03
2.400000000000000050e-02 5.365765000000000118e-01 -5.133549999999997837e-01 7.966665000000000418e+01 1.565740000000000009e+03
2.500000000000000139e-02 5.362599999999999589e-01 1.225350000000000605e-01 7.812884999999999991e+01 1.565279999999999973e+03
2.600000000000000228e-02 5.359619999999999385e-01 8.406649999999999956e-01 7.663190000000000168e+01 1.564819999999999936e+03
2.700000000000000316e-02 5.356809999999999627e-01 1.622130000000000072e+00 7.519765000000001010e+01 1.564375000000000000e+03
2.800000000000000058e-02 5.354004999999999459e-01 2.413865000000000371e+00 7.379869999999999663e+01 1.563940000000000055e+03
2.900000000000000147e-02 5.350964999999999749e-01 3.138865000000000016e+00 7.236339999999999861e+01 1.563494999999999891e+03
3.000000000000000236e-02 5.347425000000000095e-01 3.712705000000000588e+00 7.079354999999999620e+01 1.563025000000000091e+03
3.099999999999999978e-02 5.343170000000000419e-01 4.062514999999999432e+00 6.899000000000000909e+01 1.562505000000000109e+03
3.200000000000000067e-02 5.338104999999999656e-01 4.143894999999999662e+00 6.688015000000000043e+01 1.561920000000000073e+03
3.300000000000000155e-02 5.332270000000000065e-01 3.951645000000000074e+00 6.444060000000000343e+01 1.561255000000000109e+03
3.400000000000000244e-02 5.325864999999999627e-01 3.520735000000000170e+00 6.170754999999999768e+01 1.560519999999999982e+03
3.500000000000000333e-02 5.319175000000000431e-01 2.918074999999999530e+00 5.877330000000000609e+01 1.559735000000000127e+03
3.600000000000000422e-02 5.312554999999999916e-01 2.227990000000000137e+00 5.577029999999999887e+01 1.558924999999999955e+03
3.700000000000000511e-02 5.306355000000000377e-01 1.536585000000000534e+00 5.284914999999999452e+01 1.558130000000000109e+03
3.799999999999999906e-02 5.300850000000000284e-01 9.190700000000004977e-01 5.015659999999999741e+01 1.557369999999999891e+03
3.899999999999999994e-02 5.296245000000000536e-01 4.322300000000001141e-01 4.781780000000000541e+01 1.556695000000000164e+03
4.000000000000000083e-02 5.292660000000000142e-01 1.121500000000001940e-01 4.592614999999999981e+01 1.556130000000000109e+03
4.100000000000000172e-02 5.290150000000000130e-01 -2.383000000000023988e-02 4.453945000000000221e+01 1.555684999999999945e+03
4.200000000000000261e-02 5.288699999999999513e-01 2.756500000000006168e-02 4.368224999999999625e+01 1.555369999999999891e+03
4.300000000000000350e-02 5.288279999999999648e-01 2.614269999999999650e-01 4.335285000000000366e+01 1.555200000000000045e+03
4.400000000000000439e-02 5.288810000000000455e-01 6.701330000000000897e-01 4.353150000000000119e+01 1.555170000000000073e+03
4.499999999999999833e-02 5.290245000000000086e-01 1.247322499999999890e+00 4.418954999999999700e+01 1.555269999999999982e+03
4.599999999999999922e-02 5.292544999999999611e-01 1.989619999999999944e+00 4.529590000000000316e+01 1.555500000000000000e+03
4.700000000000000011e-02 5.295649999999999524e-01 2.896074999999999733e+00 4.682039999999999935e+01 1.555845000000000027e+03
4.800000000000000100e-02 5.299544999999999950e-01 3.965844999999999843e+00 4.873460000000000036e+01 1.556309999999999945e+03
4.900000000000000189e-02 5.304159999999999986e-01 5.195199999999999818e+00 5.100919999999999987e+01 1.556875000000000000e+03
5.000000000000000278e-02 5.309435000000000127e-01 6.574799000000000504e+00 5.361169999999999902e+01 1.557529999999999973e+03
5.100000000000000366e-02 5.315290000000000292e-01 8.088069499999999579e+00 5.650315000000000509e+01 1.558285000000000082e+03
5.200000000000000455e-02 5.321614999999999540e-01 9.711125000000000895e+00 5.963724999999999454e+01 1.559105000000000018e+03
5.300000000000000544e-02 5.328289999999999971e-01 1.141401000000000110e+01 6.296034999999999826e+01 1.559985000000000127e+03
5.399999999999999939e-02 5.335185000000000066e-01 1.316279500000000091e+01 6.641365000000000407e+01 1.560914999999999964e+03
5.500000000000000028e-02 5.342160000000000242e-01 1.492237000000000080e+01 6.993645000000000778e+01 1.561875000000000000e+03
5.600000000000000117e-02 5.349105000000000665e-01 1.665930999999999784e+01 7.346994999999999720e+01 1.562849999999999909e+03
5.700000000000000205e-02 5.355920000000000680e-01 1.834400000000000119e+01 7.696089999999999520e+01 1.563825000000000045e+03
5.800000000000000294e-02 5.362525000000000208e-01 1.995254999999999868e+01 8.036494999999999322e+01 1.564789999999999964e+03
5.900000000000000383e-02 5.368880000000000319e-01 2.146729999999999805e+01 8.364855000000000018e+01 1.565730000000000018e+03
6.000000000000000472e-02 5.374944999999999862e-01 2.287705000000000055e+01 8.679005000000000791e+01 1.566644999999999982e+03
6.099999999999999867e-02 5.380724999999999536e-01 2.417674999999999841e+01 8.977960000000000207e+01 1.567525000000000091e+03
6.199999999999999956e-02 5.386229999999999629e-01 2.536630000000000251e+01 9.261690000000000111e+01 1.568365000000000009e+03
6.300000000000000044e-02 5.391489999999999894e-01 2.644964999999999833e+01 9.531165000000000020e+01 1.569164999999999964e+03
6.400000000000000133e-02 5.396544999999999259e-01 2.743370000000000175e+01 9.787985000000000468e+01 1.569940000000000055e+03
6.500000000000000222e-02 5.401430000000000398e-01 2.832744999999999891e+01 1.003415999999999997e+02 1.570684999999999945e+03
6.600000000000000311e-02 5.406195000000000306e-01 2.914104999999999990e+01 1.027197000000000031e+02 1.571400000000000091e+03
6.700000000000000400e-02 5.410884999999999723e-01 2.988504999999999967e+01 1.050383499999999941e+02 1.572099999999999909e+03
6.800000000000000488e-02 5.415535000000000210e-01 3.056940000000000168e+01 1.073180000000000121e+02 1.572789999999999964e+03
6.900000000000000577e-02 5.420179999999999998e-01 3.120329999999999870e+01 1.095780000000000030e+02 1.573470000000000027e+03
7.000000000000000666e-02 5.424839999999999662e-01 3.179380000000000095e+01 1.118329999999999984e+02 1.574144999999999982e+03
7.100000000000000755e-02 5.429524999999999491e-01 3.234590000000000032e+01 1.140900000000000034e+02 1.574819999999999936e+03
7.200000000000000844e-02 5.434225000000000305e-01 3.286169999999999902e+01 1.163520000000000039e+02 1.575494999999999891e+03
7.300000000000000933e-02 5.438925000000000010e-01 3.334069999999999823e+01 1.186129999999999995e+02 1.576164999999999964e+03
7.399999999999999634e-02 5.443594999999999962e-01 3.377939999999999543e+01 1.208615000000000066e+02 1.576835000000000036e+03
7.499999999999999722e-02 5.448195000000000121e-01 3.417220000000000368e+01 1.230805000000000007e+02 1.577494999999999891e+03
7.599999999999999811e-02 5.452664999999999873e-01 3.451180000000000092e+01 1.252469999999999857e+02 1.578144999999999982e+03
7.699999999999999900e-02 5.456965000000000288e-01 3.478990000000000293e+01 1.273374999999999915e+02 1.578769999999999982e+03
7.799999999999999989e-02 5.461040000000000338e-01 3.499784999999999968e+01 1.293255000000000052e+02 1.579369999999999891e+03
7.900000000000000078e-02 5.464839999999999698e-01 3.512765000000000271e+01 1.311854999999999905e+02 1.579940000000000055e+03
8.000000000000000167e-02 5.468315000000000259e-01 3.517215000000000202e+01 1.328935000000000173e+02 1.580470000000000027e+03
8.100000000000000255e-02 5.471429999999999350e-01 3.512584999999999980e+01 1.344304999999999950e+02 1.580950000000000045e+03
8.200000000000000344e-02 5.474170000000000424e-01 3.498515000000000441e+01 1.357800000000000011e+02 1.581380000000000109e+03
8.300000000000000433e-02 5.476505000000000400e-01 3.474859999999999616e+01 1.369300000000000068e+02 1.581759999999999991e+03
8.400000000000000522e-02 5.478425000000000100e-01 3.441660000000000252e+01 1.378765000000000214e+02 1.582079999999999927e+03
8.500000000000000611e-02 5.479939999999999811e-01 3.399215000000000231e+01 1.386179999999999950e+02 1.582345000000000027e+03
8.600000000000000699e-02 5.481070000000000109e-01 3.348000000000000398e+01 1.391589999999999918e+02 1.582549999999999955e+03
8.700000000000000788e-02 5.481819999999999471e-01 3.288700000000000045e+01 1.395084999999999980e+02 1.582699999999999818e+03
8.800000000000000877e-02 5.482230000000000159e-01 3.222164999999999679e+01 1.396809999999999832e+02 1.582800000000000182e+03
8.899999999999999578e-02 5.482325000000000115e-01 3.149414999999999765e+01 1.396929999999999836e+02 1.582845000000000027e+03
8.999999999999999667e-02 5.482160000000000366e-01 3.071560000000000201e+01 1.395635000000000048e+02 1.582849999999999909e+03
9.099999999999999756e-02 5.481764999999999555e-01 2.989809999999999945e+01 1.393165000000000191e+02 1.582820000000000164e+03
9.199999999999999845e-02 5.481194999999999817e-01 2.905420000000000158e+01 1.389739999999999895e+02 1.582755000000000109e+03
9.299999999999999933e-02 5.480499999999999261e-01 2.819635000000000247e+01 1.385595000000000141e+02 1.582670000000000073e+03
9.400000000000000022e-02 5.479709999999999859e-01 2.733659999999999712e+01 1.380960000000000036e+02 1.582559999999999945e+03
9.500000000000000111e-02 5.478875000000000828e-01 2.648619999999999663e+01 1.376065000000000111e+02 1.582434999999999945e+03
9.600000000000000200e-02 5.478034999999999988e-01 2.565494999999999948e+01 1.371094999999999970e+02 1.582305000000000064e+03
9.700000000000000289e-02 5.477210000000000134e-01 2.485119999999999862e+01 1.366225000000000023e+02 1.582175000000000182e+03
9.800000000000000377e-02 5.476434999999999498e-01 2.408119999999999905e+01 1.361580000000000155e+02 1.582045000000000073e+03
9.900000000000000466e-02 5.475714999999999888e-01 2.334895000000000209e+01 1.357270000000000039e+02 1.581920000000000073e+03
1.000000000000000056e-01 5.475065000000000071e-01 2.265655000000000285e+01 1.353340000000000032e+02 1.581799999999999955e+03
1.010000000000000064e-01 5.474480000000000457e-01 2.200365000000000038e+01 1.349809999999999945e+02 1.581695000000000164e+03
1.020000000000000073e-01 5.473955000000000348e-01 2.138814999999999955e+01 1.346659999999999968e+02 1.581595000000000027e+03
1.030000000000000082e-01 5.473470000000000280e-01 2.080599999999999739e+01 1.343835000000000264e+02 1.581505000000000109e+03
1.040000000000000091e-01 5.473025000000000251e-01 2.025175000000000125e+01 1.341250000000000000e+02 1.581420000000000073e+03
1.050000000000000100e-01 5.472569999999999935e-01 1.971889999999999787e+01 1.338799999999999955e+02 1.581340000000000146e+03
1.059999999999999970e-01 5.472110000000000030e-01 1.920029999999999859e+01 1.336374999999999886e+02 1.581259999999999991e+03
1.069999999999999979e-01 5.471605000000000496e-01 1.868829999999999814e+01 1.333845000000000027e+02 1.581184999999999945e+03
1.079999999999999988e-01 5.471030000000000060e-01 1.817559999999999931e+01 1.331090000000000089e+02 1.581099999999999909e+03
1.089999999999999997e-01 5.470365000000000366e-01 1.765514999999999901e+01 1.327980000000000018e+02 1.581009999999999991e+03
1.100000000000000006e-01 5.469600000000000017e-01 1.712069999999999936e+01 1.324424999999999955e+02 1.580904999999999973e+03
1.110000000000000014e-01 5.468714999999999549e-01 1.656705000000000183e+01 1.320335000000000036e+02 1.580789999999999964e+03
1.120000000000000023e-01 5.467699999999999783e-01 1.599060000000000059e+01 1.315654999999999859e+02 1.580659999999999854e+03
1.130000000000000032e-01 5.466560000000000308e-01 1.538889999999999958e+01 1.310349999999999966e+02 1.580509999999999991e+03
1.140000000000000041e-01 5.465290000000000425e-01 1.476125000000000043e+01 1.304420000000000073e+02 1.580345000000000027e+03
1.150000000000000050e-01 5.463905000000000012e-01 1.410874499999999898e+01 1.297889999999999873e+02 1.580164999999999964e+03
1.160000000000000059e-01 5.462409999999999766e-01 1.343414499999999911e+01 1.290829999999999984e+02 1.579970000000000027e+03
1.170000000000000068e-01 5.460840000000000138e-01 1.274174000000000007e+01 1.283309999999999889e+02 1.579764999999999873e+03
1.180000000000000077e-01 5.459214999999999485e-01 1.203717499999999951e+01 1.275449999999999875e+02 1.579549999999999955e+03
1.190000000000000085e-01 5.457554999999999490e-01 1.132743999999999929e+01 1.267390000000000043e+02 1.579320000000000164e+03
1.200000000000000094e-01 5.455905000000000893e-01 1.062016999999999989e+01 1.259264999999999901e+02 1.579095000000000027e+03
1.209999999999999964e-01 5.454284999999999828e-01 9.923740000000000450e+00 1.251240000000000094e+02 1.578865000000000009e+03
1.219999999999999973e-01 5.452740000000000364e-01 9.246724999999999639e+00 1.243474999999999966e+02 1.578644999999999982e+03
1.229999999999999982e-01 5.451289999999999747e-01 8.597459999999999880e+00 1.236124999999999972e+02 1.578430000000000064e+03
1.239999999999999991e-01 5.449969999999999537e-01 7.983785000000000132e+00 1.229334999999999951e+02 1.578230000000000018e+03
1.250000000000000000e-01 5.448790000000000022e-01 7.412799999999998946e+00 1.223230000000000075e+02 1.578045000000000073e+03
1.260000000000000009e-01 5.447790000000000132e-01 6.890444999999999709e+00 1.217925000000000040e+02 1.577880000000000109e+03
1.270000000000000018e-01 5.446969999999999867e-01 6.421300000000000452e+00 1.213495000000000061e+02 1.577739999999999782e+03
1.280000000000000027e-01 5.446339999999999515e-01 6.008509999999999351e+00 1.209989999999999952e+02 1.577625000000000000e+03
1.290000000000000036e-01 5.445900000000000185e-01 5.653624999999999901e+00 1.207429999999999950e+02 1.577529999999999973e+03
1.300000000000000044e-01 5.445649999999999658e-01 5.356630000000000003e+00 1.205815000000000055e+02 1.577465000000000146e+03
1.310000000000000053e-01 5.445575000000000276e-01 5.115980000000000416e+00 1.205109999999999957e+02 1.577425000000000182e+03
1.320000000000000062e-01 5.445659999999999945e-01 4.928734999999999644e+00 1.205240000000000009e+02 1.577404999999999973e+03
1.330000000000000071e-01 5.445889999999999898e-01 4.790775000000000006e+00 1.206125000000000114e+02 1.577410000000000082e+03
1.340000000000000080e-01 5.446239999999999970e-01 4.696995000000000253e+00 1.207664999999999935e+02 1.577434999999999945e+03
1.350000000000000089e-01 5.446684999999999999e-01 4.641579999999999373e+00 1.209740000000000038e+02 1.577480000000000018e+03
1.360000000000000098e-01 5.447205000000000519e-01 4.618254999999999555e+00 1.212229999999999990e+02 1.577535000000000082e+03
1.370000000000000107e-01 5.447764999999999969e-01 4.620540000000000092e+00 1.215014999999999930e+02 1.577599999999999909e+03
1.380000000000000115e-01 5.448359999999999870e-01 4.642030000000000101e+00 1.217965000000000089e+02 1.577675000000000182e+03
1.390000000000000124e-01 5.448945000000000594e-01 4.676544999999999952e+00 1.220974999999999966e+02 1.577750000000000000e+03
1.400000000000000133e-01 5.449519999999999920e-01 4.718365000000000364e+00 1.223940000000000055e+02 1.577824999999999818e+03
1.410000000000000142e-01 5.450059999999999905e-01 4.762330000000000396e+00 1.226769999999999925e+02 1.577900000000000091e+03
1.420000000000000151e-01 5.450559999999999850e-01 4.803969999999999629e+00 1.229405000000000001e+02 1.577974999999999909e+03
1.430000000000000160e-01 5.451004999999999878e-01 4.839555000000000717e+00 1.231775000000000091e+02 1.578039999999999964e+03
1.440000000000000169e-01 5.451384999999999703e-01 4.866125000000000256e+00 1.233845000000000027e+02 1.578099999999999909e+03
1.450000000000000178e-01 5.451700000000000434e-01 4.881509999999999572e+00 1.235594999999999999e+02 1.578150000000000091e+03
1.459999999999999909e-01 5.451954999999999441e-01 4.884294999999999831e+00 1.237009999999999934e+02 1.578194999999999936e+03
1.469999999999999918e-01 5.452144999999999353e-01 4.873784999999999812e+00 1.238094999999999999e+02 1.578235000000000127e+03
1.479999999999999927e-01 5.452274999999999761e-01 4.849925000000000708e+00 1.238875000000000028e+02 1.578259999999999991e+03
1.489999999999999936e-01 5.452354999999999841e-01 4.813264999999999461e+00 1.239364999999999952e+02 1.578279999999999973e+03
1.499999999999999944e-01 5.452390000000000292e-01 4.764839999999999520e+00 1.239595000000000056e+02 1.578295000000000073e+03
1.509999999999999953e-01 5.452384999999999593e-01 4.706080000000000041e+00 1.239610000000000127e+02 1.578300000000000182e+03
1.519999999999999962e-01 5.452349999999999142e-01 4.638720000000000176e+00 1.239445000000000050e+02 1.578300000000000182e+03
1.529999999999999971e-01 5.452295000000000336e-01 4.564690000000000580e+00 1.239145000000000039e+02 1.578295000000000073e+03
1.539999999999999980e-01 5.452219999999999844e-01 4.485974999999999824e+00 1.238750000000000000e+02 1.578289999999999964e+03
1.549999999999999989e-01 5.452144999999999353e-01 4.404560000000000031e+00 1.238294999999999959e+02 1.578279999999999973e+03
1.559999999999999998e-01 5.452065000000000383e-01 4.322280000000000122e+00 1.237804999999999893e+02 1.578269999999999982e+03
1.570000000000000007e-01 5.451985000000000303e-01 4.240770000000000373e+00 1.237319999999999993e+02 1.578259999999999991e+03
1.580000000000000016e-01 5.451909999999999812e-01 4.161379999999999413e+00 1.236844999999999999e+02 1.578250000000000000e+03
1.590000000000000024e-01 5.451850000000000307e-01 4.085110000000000241e+00 1.236400000000000006e+02 1.578240000000000009e+03
