# t [s], A [cm^2], U [cm/s], P [cPa], c [cm/s]
1.000000000000000021e-03 5.552814999999999834e-01 4.545400000000004992e-03 9.622565000000000168e+01 1.542970000000000027e+03
2.000000000000000042e-03 5.552715000000000289e-01 -3.170085000000000004e-03 9.620185000000000741e+01 1.542960000000000036e+03
3.000000000000000062e-03 5.553084999999999827e-01 6.617560000000000109e-02 9.627015000000000100e+01 1.542980000000000018e+03
4.000000000000000083e-03 5.553569999999999895e-01 1.631754499999999997e-01 9.638675000000000637e+01 1.543014999999999873e+03
5.000000000000000104e-03 5.553529999999999855e-01 1.717615000000000114e-01 9.638705000000000211e+01 1.543014999999999873e+03
6.000000000000000125e-03 5.553019999999999623e-01 9.179149999999999809e-02 9.623240000000001260e+01 1.542974999999999909e+03
7.000000000000000146e-03 5.552540000000000253e-01 1.011000000000000787e-02 9.601509999999998968e+01 1.542920000000000073e+03
8.000000000000000167e-03 5.551985000000000392e-01 -9.354400000000001603e-02 9.573054999999999382e+01 1.542849999999999909e+03
9.000000000000001055e-03 5.551015000000000255e-01 -2.878749999999999920e-01 9.529529999999999745e+01 1.542740000000000009e+03
1.000000000000000194e-02 5.549574999999999925e-01 -5.860899999999999999e-01 9.466610000000000014e+01 1.542585000000000036e+03
1.099999999999999936e-02 5.547604999999999897e-01 -9.938749999999999529e-01 9.380619999999998981e+01 1.542369999999999891e+03
1.200000000000000025e-02 5.544930000000000136e-01 -1.530839999999999979e+00 9.265975000000000250e+01 1.542069999999999936e+03
1.300000000000000114e-02 5.541565000000000518e-01 -2.181925000000000114e+00 9.120660000000000878e+01 1.541690000000000055e+03
1.400000000000000203e-02 5.537814999999999266e-01 -2.863149999999999640e+00 8.951890000000000214e+01 1.541235000000000127e+03
1.499999999999999944e-02 5.534200000000000230e-01 -3.447960000000000136e+00 8.774795000000000300e+01 1.540740000000000009e+03
1.600000000000000033e-02 5.531135000000000357e-01 -3.824882499999999741e+00 8.605790000000000362e+01 1.540244999999999891e+03
1.700000000000000122e-02 5.528769999999999518e-01 -3.939126799999999928e+00 8.456170000000000186e+01 1.539789999999999964e+03
1.800000000000000211e-02 5.526999999999999691e-01 -3.800816999999999890e+00 8.329104999999999848e+01 1.539369999999999891e+03
1.900000000000000300e-02 5.525514999999999732e-01 -3.468090000000000117e+00 8.220210000000000150e+01 1.538994999999999891e+03
2.000000000000000042e-02 5.523974999999999858e-01 -3.019404500000000269e+00 8.120435000000000514e+01 1.538634999999999991e+03
2.100000000000000130e-02 5.522115000000000773e-01 -2.526121499999999909e+00 8.019710000000000605e+01 1.538275000000000091e+03
2.200000000000000219e-02 5.519804999999999851e-01 -2.032585000000000086e+00 7.910365000000000180e+01 1.537900000000000091e+03
2.299999999999999961e-02 5.517079999999999762e-01 -1.548519999999999897e+00 7.789204999999999757e+01 1.537490000000000009e+03
2.400000000000000050e-02 5.514084999999999681e-01 -1.054990000000000094e+00 7.657750000000000057e+01 1.537059999999999945e+03
2.500000000000000139e-02 5.511024999999999396e-01 -5.204899999999998972e-01 7.520754999999999768e+01 1.536615000000000009e+03
2.600000000000000228e-02 5.508060000000000178e-01 8.023000000000024556e-02 7.383764999999999645e+01 1.536159999999999854e+03
2.700000000000000316e-02 5.505255000000000010e-01 7.515549999999997510e-01 7.250730000000000075e+01 1.535710000000000036e+03
2.800000000000000058e-02 5.502555000000000085e-01 1.470675000000000177e+00 7.122395000000000209e+01 1.535275000000000091e+03
2.900000000000000147e-02 5.499815000000000120e-01 2.189770000000000216e+00 6.995850000000000080e+01 1.534845000000000027e+03
3.000000000000000236e-02 5.496840000000000614e-01 2.844964999999999300e+00 6.865064999999999884e+01 1.534400000000000091e+03
3.099999999999999978e-02 5.493394999999999806e-01 3.369279999999999831e+00 6.722360000000000468e+01 1.533934999999999945e+03
3.200000000000000067e-02 5.489330000000000043e-01 3.706739999999999924e+00 6.560325000000000273e+01 1.533420000000000073e+03
3.300000000000000155e-02 5.484569999999999723e-01 3.824529999999999763e+00 6.373765000000000214e+01 1.532849999999999909e+03
3.400000000000000244e-02 5.479175000000000573e-01 3.720054999999999890e+00 6.161285000000000167e+01 1.532215000000000146e+03
3.500000000000000333e-02 5.473289999999999544e-01 3.421394999999999520e+00 5.925950000000000273e+01 1.531519999999999982e+03
3.600000000000000422e-02 5.467180000000000373e-01 2.980660000000000309e+00 5.674994999999999834e+01 1.530780000000000200e+03
3.700000000000000511e-02 5.461125000000000007e-01 2.463489999999999736e+00 5.418659999999999854e+01 1.530019999999999982e+03
3.799999999999999906e-02 5.455415000000000125e-01 1.937500000000000000e+00 5.168619999999999948e+01 1.529269999999999982e+03
3.899999999999999994e-02 5.450285000000000268e-01 1.462844999999999729e+00 4.936374999999999602e+01 1.528559999999999945e+03
4.000000000000000083e-02 5.445925000000000349e-01 1.086295000000000233e+00 4.731974999999999909e+01 1.527914999999999964e+03
4.100000000000000172e-02 5.442449999999999788e-01 8.390999999999997350e-01 4.563179999999999836e+01 1.527365000000000009e+03
4.200000000000000261e-02 5.439905000000000435e-01 7.381299999999999528e-01 4.435150000000000148e+01 1.526920000000000073e+03
4.300000000000000350e-02 5.438309999999999533e-01 7.890850000000000364e-01 4.350549999999999784e+01 1.526599999999999909e+03
4.400000000000000439e-02 5.437625000000000375e-01 9.906989999999999963e-01 4.309955000000000069e+01 1.526400000000000091e+03
4.499999999999999833e-02 5.437830000000000163e-01 1.338934999999999986e+00 4.312484999999999502e+01 1.526329999999999927e+03
4.599999999999999922e-02 5.438870000000000093e-01 1.830096500000000237e+00 4.356400000000000006e+01 1.526385000000000218e+03
4.700000000000000011e-02 5.440715000000000412e-01 2.462526800000000016e+00 4.439629999999999654e+01 1.526565000000000055e+03
4.800000000000000100e-02 5.443339999999999845e-01 3.236525000000000318e+00 4.560079999999999956e+01 1.526855000000000018e+03
4.900000000000000189e-02 5.446710000000000163e-01 4.152961999999999598e+00 4.715695000000000192e+01 1.527255000000000109e+03
5.000000000000000278e-02 5.450785000000000213e-01 5.211075000000000124e+00 4.904399999999999693e+01 1.527759999999999991e+03
5.100000000000000366e-02 5.455535000000000245e-01 6.406325749999999708e+00 5.123855000000000359e+01 1.528364999999999782e+03
5.200000000000000455e-02 5.460884999999999767e-01 7.728696999999999484e+00 5.371290000000000475e+01 1.529059999999999945e+03
5.300000000000000544e-02 5.466754999999999809e-01 9.162330000000000751e+00 5.643305000000000149e+01 1.529829999999999927e+03
5.399999999999999939e-02 5.473040000000000127e-01 1.068568500000000121e+01 5.935904999999999632e+01 1.530675000000000182e+03
5.500000000000000028e-02 5.479640000000000066e-01 1.227298499999999848e+01 6.244519999999999982e+01 1.531575000000000045e+03
5.600000000000000117e-02 5.486435000000000617e-01 1.389602000000000004e+01 6.564265000000000327e+01 1.532519999999999982e+03
5.700000000000000205e-02 5.493315000000000836e-01 1.552633499999999955e+01 6.890175000000000693e+01 1.533494999999999891e+03
5.800000000000000294e-02 5.500180000000000069e-01 1.713723500000000044e+01 7.217480000000000473e+01 1.534480000000000018e+03
5.900000000000000383e-02 5.506944999999999757e-01 1.870514999999999972e+01 7.541929999999999268e+01 1.535474999999999909e+03
6.000000000000000472e-02 5.513550000000000395e-01 2.021119999999999806e+01 7.859964999999999691e+01 1.536460000000000036e+03
6.099999999999999867e-02 5.519950000000000134e-01 2.164110000000000156e+01 8.168870000000001141e+01 1.537425000000000182e+03
6.199999999999999956e-02 5.526109999999999634e-01 2.298570000000000135e+01 8.466849999999999454e+01 1.538369999999999891e+03
6.300000000000000044e-02 5.532040000000000290e-01 2.424024999999999963e+01 8.752984999999999616e+01 1.539279999999999973e+03
6.400000000000000133e-02 5.537739999999999885e-01 2.540395000000000181e+01 9.027134999999999820e+01 1.540164999999999964e+03
6.500000000000000222e-02 5.543230000000000102e-01 2.647889999999999944e+01 9.289920000000000755e+01 1.541015000000000100e+03
6.600000000000000311e-02 5.548534999999999995e-01 2.746959999999999980e+01 9.542304999999998927e+01 1.541840000000000146e+03
6.700000000000000400e-02 5.553694999999999604e-01 2.838194999999999979e+01 9.785779999999999745e+01 1.542639999999999873e+03
6.800000000000000488e-02 5.558739999999999792e-01 2.922259999999999991e+01 1.002183499999999867e+02 1.543414999999999964e+03
6.900000000000000577e-02 5.563700000000000312e-01 2.999844999999999828e+01 1.025216000000000065e+02 1.544175000000000182e+03
7.000000000000000666e-02 5.568599999999999106e-01 3.071594999999999942e+01 1.047820000000000107e+02 1.544914999999999964e+03
7.100000000000000755e-02 5.573455000000000492e-01 3.138050000000000139e+01 1.070120000000000005e+02 1.545650000000000091e+03
7.200000000000000844e-02 5.578294999999999781e-01 3.199624999999999986e+01 1.092194999999999965e+02 1.546369999999999891e+03
7.300000000000000933e-02 5.583105000000000429e-01 3.256564999999999799e+01 1.114089999999999918e+02 1.547090000000000146e+03
7.399999999999999634e-02 5.587884999999999103e-01 3.308935000000000315e+01 1.135815000000000055e+02 1.547804999999999836e+03
7.499999999999999722e-02 5.592620000000000369e-01 3.356595000000000084e+01 1.157300000000000040e+02 1.548505000000000109e+03
7.599999999999999811e-02 5.597275000000000444e-01 3.399264999999999759e+01 1.178460000000000036e+02 1.549200000000000045e+03
7.699999999999999900e-02 5.601814999999999989e-01 3.436514999999999986e+01 1.199149999999999920e+02 1.549880000000000109e+03
7.799999999999999989e-02 5.606219999999999537e-01 3.467815000000000225e+01 1.219215000000000089e+02 1.550539999999999964e+03
7.900000000000000078e-02 5.610424999999999995e-01 3.492605000000000359e+01 1.238460000000000036e+02 1.551179999999999836e+03
8.000000000000000167e-02 5.614405000000000090e-01 3.510325000000000273e+01 1.256709999999999923e+02 1.551789999999999964e+03
8.100000000000000255e-02 5.618119999999999781e-01 3.520445000000000135e+01 1.273774999999999977e+02 1.552364999999999782e+03
8.200000000000000344e-02 5.621534999999999727e-01 3.522549999999999670e+01 1.289490000000000123e+02 1.552900000000000091e+03
8.300000000000000433e-02 5.624624999999999764e-01 3.516324999999999790e+01 1.303710000000000093e+02 1.553394999999999982e+03
8.400000000000000522e-02 5.627360000000000140e-01 3.501590000000000202e+01 1.316320000000000050e+02 1.553840000000000146e+03
8.500000000000000611e-02 5.629739999999999744e-01 3.478315000000000623e+01 1.327245000000000061e+02 1.554230000000000018e+03
8.600000000000000699e-02 5.631744999999999113e-01 3.446640000000000015e+01 1.336440000000000055e+02 1.554570000000000164e+03
8.700000000000000788e-02 5.633390000000000342e-01 3.406824999999999903e+01 1.343910000000000196e+02 1.554860000000000127e+03
8.800000000000000877e-02 5.634675000000000100e-01 3.359309999999999974e+01 1.349675000000000011e+02 1.555090000000000146e+03
8.899999999999999578e-02 5.635630000000000361e-01 3.304659999999999798e+01 1.353805000000000121e+02 1.555269999999999982e+03
8.999999999999999667e-02 5.636255000000000015e-01 3.243574999999999875e+01 1.356394999999999982e+02 1.555400000000000091e+03
9.099999999999999756e-02 5.636594999999999800e-01 3.176859999999999928e+01 1.357574999999999932e+02 1.555485000000000127e+03
9.199999999999999845e-02 5.636674999999999880e-01 3.105414999999999992e+01 1.357489999999999952e+02 1.555525000000000091e+03
9.299999999999999933e-02 5.636535000000000295e-01 3.030205000000000126e+01 1.356304999999999836e+02 1.555525000000000091e+03
9.400000000000000022e-02 5.636200000000000099e-01 2.952239999999999753e+01 1.354184999999999945e+02 1.555494999999999891e+03
9.500000000000000111e-02 5.635725000000000318e-01 2.872534999999999883e+01 1.351329999999999814e+02 1.555444999999999936e+03
9.600000000000000200e-02 5.635135000000000005e-01 2.792089999999999961e+01 1.347905000000000086e+02 1.555360000000000127e+03
9.700000000000000289e-02 5.634464999999999613e-01 2.711844999999999928e+01 1.344094999999999800e+02 1.555264999999999873e+03
9.800000000000000377e-02 5.633755000000000290e-01 2.632665000000000077e+01 1.340060000000000002e+02 1.555154999999999973e+03
9.900000000000000466e-02 5.633029999999999982e-01 2.555284999999999940e+01 1.335945000000000107e+02 1.555039999999999964e+03
1.000000000000000056e-01 5.632314999999999960e-01 2.480300000000000082e+01 1.331870000000000118e+02 1.554920000000000073e+03
1.010000000000000064e-01 5.631625000000000103e-01 2.408149999999999835e+01 1.327930000000000064e+02 1.554799999999999955e+03
1.020000000000000073e-01 5.630964999999999998e-01 2.339110000000000156e+01 1.324200000000000159e+02 1.554684999999999945e+03
1.030000000000000082e-01 5.630349999999999522e-01 2.273284999999999911e+01 1.320709999999999980e+02 1.554569999999999936e+03
1.040000000000000091e-01 5.629775000000000196e-01 2.210589999999999833e+01 1.317464999999999975e+02 1.554460000000000036e+03
1.050000000000000100e-01 5.629230000000000622e-01 2.150829999999999842e+01 1.314449999999999932e+02 1.554365000000000009e+03
1.059999999999999970e-01 5.628710000000000102e-01 2.093645000000000067e+01 1.311620000000000061e+02 1.554265000000000100e+03
1.069999999999999979e-01 5.628189999999999582e-01 2.038600000000000279e+01 1.308909999999999911e+02 1.554170000000000073e+03
1.079999999999999988e-01 5.627659999999999885e-01 1.985164999999999935e+01 1.306239999999999952e+02 1.554079999999999927e+03
1.089999999999999997e-01 5.627100000000000435e-01 1.932779999999999987e+01 1.303530000000000086e+02 1.553985000000000127e+03
1.100000000000000006e-01 5.626499999999999835e-01 1.880865000000000009e+01 1.300685000000000002e+02 1.553889999999999873e+03
1.110000000000000014e-01 5.625824999999999854e-01 1.828855000000000075e+01 1.297615000000000123e+02 1.553789999999999964e+03
1.120000000000000023e-01 5.625069999999999792e-01 1.776219999999999999e+01 1.294234999999999900e+02 1.553684999999999945e+03
1.130000000000000032e-01 5.624225000000000474e-01 1.722500000000000142e+01 1.290480000000000018e+02 1.553565000000000055e+03
1.140000000000000041e-01 5.623270000000000213e-01 1.667299999999999827e+01 1.286295000000000073e+02 1.553429999999999836e+03
1.150000000000000050e-01 5.622215000000000407e-01 1.610350000000000037e+01 1.281634999999999991e+02 1.553289999999999964e+03
1.160000000000000059e-01 5.621045000000000069e-01 1.551480000000000103e+01 1.276479999999999961e+02 1.553135000000000218e+03
1.170000000000000068e-01 5.619769999999999488e-01 1.490634999999999977e+01 1.270835000000000150e+02 1.552960000000000036e+03
1.180000000000000077e-01 5.618395000000000472e-01 1.427890000000000015e+01 1.264729999999999990e+02 1.552780000000000200e+03
1.190000000000000085e-01 5.616929999999999978e-01 1.363446499999999872e+01 1.258204999999999956e+02 1.552574999999999818e+03
1.200000000000000094e-01 5.615400000000000391e-01 1.297616999999999976e+01 1.251320000000000050e+02 1.552369999999999891e+03
1.209999999999999964e-01 5.613825000000000065e-01 1.230809999999999960e+01 1.244165000000000134e+02 1.552150000000000091e+03
1.219999999999999973e-01 5.612224999999999575e-01 1.163536999999999999e+01 1.236839999999999975e+02 1.551924999999999955e+03
1.229999999999999982e-01 5.610614999999999908e-01 1.096370500000000092e+01 1.229440000000000026e+02 1.551694999999999936e+03
1.239999999999999991e-01 5.609030000000000404e-01 1.029940000000000033e+01 1.222100000000000080e+02 1.551469999999999800e+03
1.250000000000000000e-01 5.607495000000000118e-01 9.648889999999999745e+00 1.214919999999999902e+02 1.551240000000000009e+03
1.260000000000000009e-01 5.606035000000000323e-01 9.018715000000000259e+00 1.208040000000000020e+02 1.551025000000000091e+03
1.270000000000000018e-01 5.604675000000000074e-01 8.415140000000000953e+00 1.201555000000000035e+02 1.550819999999999936e+03
1.280000000000000027e-01 5.603430000000000355e-01 7.843865000000000975e+00 1.195575000000000045e+02 1.550625000000000000e+03
1.290000000000000036e-01 5.602325000000000221e-01 7.310109999999999886e+00 1.190190000000000055e+02 1.550444999999999936e+03
1.300000000000000044e-01 5.601369999999999960e-01 6.817970000000000752e+00 1.185464999999999947e+02 1.550284999999999854e+03
1.310000000000000053e-01 5.600570000000000270e-01 6.370715000000000572e+00 1.181460000000000008e+02 1.550139999999999873e+03
1.320000000000000062e-01 5.599935000000000329e-01 5.970435000000000159e+00 1.178199999999999932e+02 1.550025000000000091e+03
1.330000000000000071e-01 5.599465000000000137e-01 5.618059999999999832e+00 1.175699999999999932e+02 1.549929999999999836e+03
1.340000000000000080e-01 5.599150000000000515e-01 5.313390000000000057e+00 1.173944999999999936e+02 1.549855000000000018e+03
1.350000000000000089e-01 5.598984999999999657e-01 5.055099999999999483e+00 1.172905000000000086e+02 1.549804999999999836e+03
1.360000000000000098e-01 5.598950000000000315e-01 4.840885000000000105e+00 1.172524999999999977e+02 1.549769999999999982e+03
1.370000000000000107e-01 5.599039999999999573e-01 4.667569999999999553e+00 1.172744999999999891e+02 1.549759999999999991e+03
1.380000000000000115e-01 5.599229999999999485e-01 4.531274999999999942e+00 1.173485000000000014e+02 1.549764999999999873e+03
1.390000000000000124e-01 5.599505000000000177e-01 4.427599999999999980e+00 1.174650000000000034e+02 1.549784999999999854e+03
1.400000000000000133e-01 5.599844999999999962e-01 4.351815000000000211e+00 1.176154999999999973e+02 1.549819999999999936e+03
1.410000000000000142e-01 5.600225000000000897e-01 4.299020000000000508e+00 1.177905000000000086e+02 1.549860000000000127e+03
1.420000000000000151e-01 5.600635000000000474e-01 4.264345000000000496e+00 1.179809999999999945e+02 1.549904999999999973e+03
1.430000000000000160e-01 5.601045000000000051e-01 4.243079999999999963e+00 1.181790000000000020e+02 1.549954999999999927e+03
1.440000000000000169e-01 5.601450000000000040e-01 4.230819999999999581e+00 1.183754999999999882e+02 1.550009999999999991e+03
1.450000000000000178e-01 5.601834999999999454e-01 4.223530000000000229e+00 1.185644999999999953e+02 1.550065000000000055e+03
1.459999999999999909e-01 5.602184999999999526e-01 4.217674999999999841e+00 1.187394999999999925e+02 1.550115000000000009e+03
1.469999999999999918e-01 5.602495000000000669e-01 4.210219999999999629e+00 1.188969999999999914e+02 1.550160000000000082e+03
1.479999999999999927e-01 5.602754999999999264e-01 4.198674999999999713e+00 1.190324999999999989e+02 1.550204999999999927e+03
1.489999999999999936e-01 5.602970000000000450e-01 4.181104999999999627e+00 1.191444999999999936e+02 1.550240000000000009e+03
1.499999999999999944e-01 5.603135000000000199e-01 4.156134999999999913e+00 1.192319999999999993e+02 1.550269999999999982e+03
1.509999999999999953e-01 5.603240000000000443e-01 4.122885000000000133e+00 1.192930000000000064e+02 1.550289999999999964e+03
1.519999999999999962e-01 5.603299999999999947e-01 4.080969999999999764e+00 1.193305000000000007e+02 1.550309999999999945e+03
1.529999999999999971e-01 5.603314999999999824e-01 4.030434999999999768e+00 1.193439999999999941e+02 1.550315000000000055e+03
1.539999999999999980e-01 5.603285000000000071e-01 3.971700000000000230e+00 1.193369999999999891e+02 1.550319999999999936e+03
1.549999999999999989e-01 5.603219999999999867e-01 3.905489999999999906e+00 1.193105000000000047e+02 1.550315000000000055e+03
1.559999999999999998e-01 5.603120000000000323e-01 3.832780000000000076e+00 1.192669999999999959e+02 1.550304999999999836e+03
1.570000000000000007e-01 5.603004999999999791e-01 3.754710000000000214e+00 1.192099999999999937e+02 1.550295000000000073e+03
1.580000000000000016e-01 5.602865000000000206e-01 3.672515000000000196e+00 1.191424999999999983e+02 1.550275000000000091e+03
1.590000000000000024e-01 5.602709999999999635e-01 3.587450000000000028e+00 1.190660000000000025e+02 1.550255000000000109e+03
