# t [s], A [cm^2], U [cm/s], P [cPa], c [cm/s]
1.000000000000000021e-03 7.460959999999999814e-01 6.790999999999998427e-03 1.061910000000000025e+02 1.799894999999999982e+03
2.000000000000000042e-03 7.460899999999999199e-01 9.950800000000000964e-03 1.061615000000000038e+02 1.799889999999999873e+03
3.000000000000000062e-03 7.461780000000000079e-01 1.671355999999999953e-01 1.063530000000000086e+02 1.799930000000000064e+03
4.000000000000000083e-03 7.461995000000000156e-01 2.347150000000000070e-01 1.064240000000000066e+02 1.799940000000000055e+03
5.000000000000000104e-03 7.461059999999999359e-01 1.137180000000000135e-01 1.061485000000000127e+02 1.799894999999999982e+03
6.000000000000000125e-03 7.460149999999999837e-01 -1.822800000000002196e-02 1.057360000000000042e+02 1.799815000000000055e+03
7.000000000000000146e-03 7.458910000000000817e-01 -2.232699999999999685e-01 1.051490000000000009e+02 1.799710000000000036e+03
8.000000000000000167e-03 7.456665000000000099e-01 -6.244399999999999951e-01 1.041905000000000001e+02 1.799539999999999964e+03
9.000000000000001055e-03 7.453469999999999818e-01 -1.210494999999999877e+00 1.028059999999999974e+02 1.799289999999999964e+03
1.000000000000000194e-02 7.449010000000000353e-01 -2.012319999999999887e+00 1.008888500000000050e+02 1.798940000000000055e+03
1.099999999999999936e-02 7.443150000000000599e-01 -3.027549999999999741e+00 9.836334999999999695e+01 1.798469999999999800e+03
1.200000000000000025e-02 7.436679999999999957e-01 -4.078829999999999956e+00 9.541724999999999568e+01 1.797904999999999973e+03
1.300000000000000114e-02 7.430959999999999788e-01 -4.881037000000000070e+00 9.247524999999998840e+01 1.797319999999999936e+03
1.400000000000000203e-02 7.426874999999999449e-01 -5.223765500000000728e+00 8.994315000000000282e+01 1.796785000000000082e+03
1.499999999999999944e-02 7.424399999999999888e-01 -5.072835000000000427e+00 8.799469999999999459e+01 1.796335000000000036e+03
1.600000000000000033e-02 7.422775000000000345e-01 -4.551014999999999588e+00 8.653449999999999420e+01 1.795965000000000146e+03
1.700000000000000122e-02 7.421024999999999983e-01 -3.853365000000000151e+00 8.528849999999999909e+01 1.795634999999999991e+03
1.800000000000000211e-02 7.418379999999999974e-01 -3.152071499999999915e+00 8.395374999999999943e+01 1.795300000000000182e+03
1.900000000000000300e-02 7.414635000000000531e-01 -2.527652999999999928e+00 8.233660000000000423e+01 1.794920000000000073e+03
2.000000000000000042e-02 7.410084999999999589e-01 -1.954694999999999849e+00 8.042015000000000668e+01 1.794490000000000009e+03
2.100000000000000130e-02 7.405334999999999557e-01 -1.346185000000000187e+00 7.833154999999999291e+01 1.794019999999999982e+03
2.200000000000000219e-02 7.400875000000000092e-01 -6.251650000000004148e-01 7.624025000000000318e+01 1.793550000000000182e+03
2.299999999999999961e-02 7.396834999999999383e-01 2.185299999999998910e-01 7.425034999999999741e+01 1.793090000000000146e+03
2.400000000000000050e-02 7.392939999999998957e-01 1.109160000000000146e+00 7.233854999999999791e+01 1.792644999999999982e+03
2.500000000000000139e-02 7.388584999999999736e-01 1.902589999999999781e+00 7.034999999999999432e+01 1.792184999999999945e+03
2.600000000000000228e-02 7.383094999999999519e-01 2.428505000000000358e+00 6.804664999999999964e+01 1.791670000000000073e+03
2.700000000000000316e-02 7.375924999999999843e-01 2.542879999999999807e+00 6.518770000000000664e+01 1.791065000000000055e+03
2.800000000000000058e-02 7.366894999999999971e-01 2.174794999999999590e+00 6.161820000000000164e+01 1.790340000000000146e+03
2.900000000000000147e-02 7.356255000000000432e-01 1.351115000000000066e+00 5.733384999999999820e+01 1.789474999999999909e+03
3.000000000000000236e-02 7.344654999999999934e-01 1.885000000000003340e-01 5.249725000000000108e+01 1.788505000000000109e+03
3.099999999999999978e-02 7.332950000000000301e-01 -1.141550000000000509e+00 4.740130000000000621e+01 1.787474999999999909e+03
3.200000000000000067e-02 7.321984999999999744e-01 -2.457535000000000025e+00 4.240085000000000548e+01 1.786444999999999936e+03
3.300000000000000155e-02 7.312454999999999927e-01 -3.605169999999999764e+00 3.783959999999999724e+01 1.785480000000000018e+03
3.400000000000000244e-02 7.304815000000000058e-01 -4.477535000000000487e+00 3.399545000000000528e+01 1.784630000000000109e+03
3.500000000000000333e-02 7.299260000000000748e-01 -5.018937499999999829e+00 3.105079999999999885e+01 1.783950000000000045e+03
3.600000000000000422e-02 7.295810000000000350e-01 -5.215724999999999945e+00 2.908905000000000030e+01 1.783454999999999927e+03
3.700000000000000511e-02 7.294344999999999857e-01 -5.081059999999999910e+00 2.811100000000000065e+01 1.783154999999999973e+03
3.799999999999999906e-02 7.294694999999999929e-01 -4.638379999999999725e+00 2.806204999999999927e+01 1.783045000000000073e+03
3.899999999999999994e-02 7.296685000000000532e-01 -3.908900000000000041e+00 2.886195000000000022e+01 1.783119999999999891e+03
4.000000000000000083e-02 7.300174999999999859e-01 -2.906120000000000037e+00 3.042674999999999841e+01 1.783360000000000127e+03
4.100000000000000172e-02 7.305064999999999475e-01 -1.637735000000000163e+00 3.267934999999999945e+01 1.783750000000000000e+03
4.200000000000000261e-02 7.311235000000000372e-01 -1.126800000000001134e-01 3.554874999999999829e+01 1.784275000000000091e+03
4.300000000000000350e-02 7.318554999999999922e-01 1.650724999999999998e+00 3.896124999999999972e+01 1.784924999999999955e+03
4.400000000000000439e-02 7.326814999999999856e-01 3.619055000000000355e+00 4.283124999999999716e+01 1.785675000000000182e+03
4.499999999999999833e-02 7.335774999999999935e-01 5.742640000000000633e+00 4.705594999999999573e+01 1.786509999999999991e+03
4.599999999999999922e-02 7.345150000000000290e-01 7.958709999999999951e+00 5.151590000000000202e+01 1.787405000000000200e+03
4.700000000000000011e-02 7.354635000000000478e-01 1.019799000000000078e+01 5.608169999999999789e+01 1.788340000000000146e+03
4.800000000000000100e-02 7.363954999999999806e-01 1.239237999999999928e+01 6.062485000000000213e+01 1.789289999999999964e+03
4.900000000000000189e-02 7.372875000000000956e-01 1.448190499999999936e+01 6.502944999999999709e+01 1.790220000000000027e+03
5.000000000000000278e-02 7.381230000000000846e-01 1.642004499999999823e+01 6.920260000000000389e+01 1.791119999999999891e+03
5.100000000000000366e-02 7.388930000000000220e-01 1.817620000000000147e+01 7.308095000000000141e+01 1.791969999999999800e+03
5.200000000000000455e-02 7.395955000000000723e-01 1.973545000000000016e+01 7.663344999999999629e+01 1.792765000000000100e+03
5.300000000000000544e-02 7.402345000000000175e-01 2.109714999999999918e+01 7.985955000000001291e+01 1.793494999999999891e+03
5.399999999999999939e-02 7.408175000000000177e-01 2.227205000000000013e+01 8.278499999999999659e+01 1.794170000000000073e+03
5.500000000000000028e-02 7.413564999999999738e-01 2.327920000000000300e+01 8.545574999999999477e+01 1.794789999999999964e+03
5.600000000000000117e-02 7.418644999999999268e-01 2.414385000000000048e+01 8.793184999999999718e+01 1.795369999999999891e+03
5.700000000000000205e-02 7.423569999999999336e-01 2.489464999999999861e+01 9.028119999999999834e+01 1.795920000000000073e+03
5.800000000000000294e-02 7.428460000000000063e-01 2.556199999999999761e+01 9.257380000000000564e+01 1.796450000000000045e+03
5.900000000000000383e-02 7.433469999999999800e-01 2.617579999999999885e+01 9.487645000000000550e+01 1.796980000000000018e+03
6.000000000000000472e-02 7.438690000000000024e-01 2.676299999999999812e+01 9.724719999999999231e+01 1.797514999999999873e+03
6.099999999999999867e-02 7.444209999999999994e-01 2.734544999999999959e+01 9.972990000000000066e+01 1.798069999999999936e+03
6.199999999999999956e-02 7.450050000000000283e-01 2.793764999999999787e+01 1.023516000000000048e+02 1.798650000000000091e+03
6.300000000000000044e-02 7.456210000000000893e-01 2.854565000000000197e+01 1.051169999999999902e+02 1.799255000000000109e+03
6.400000000000000133e-02 7.462629999999998986e-01 2.916649999999999920e+01 1.080109999999999957e+02 1.799884999999999991e+03
6.500000000000000222e-02 7.469215000000000160e-01 2.978894999999999982e+01 1.109964999999999975e+02 1.800534999999999854e+03
6.600000000000000311e-02 7.475829999999999975e-01 3.039540000000000219e+01 1.140225000000000080e+02 1.801200000000000045e+03
6.700000000000000400e-02 7.482345000000000246e-01 3.096385000000000076e+01 1.170250000000000057e+02 1.801855000000000018e+03
6.800000000000000488e-02 7.488604999999999290e-01 3.147039999999999793e+01 1.199364999999999952e+02 1.802500000000000000e+03
6.900000000000000577e-02 7.494469999999999743e-01 3.189174999999999827e+01 1.226889999999999930e+02 1.803109999999999900e+03
7.000000000000000666e-02 7.499824999999999964e-01 3.220685000000000286e+01 1.252199999999999989e+02 1.803684999999999945e+03
7.100000000000000755e-02 7.504554999999999421e-01 3.239869999999999806e+01 1.274770000000000039e+02 1.804210000000000036e+03
7.200000000000000844e-02 7.508615000000000705e-01 3.245510000000000161e+01 1.294230000000000018e+02 1.804664999999999964e+03
7.300000000000000933e-02 7.511950000000000571e-01 3.236939999999999884e+01 1.310320000000000107e+02 1.805054999999999836e+03
7.399999999999999634e-02 7.514555000000000540e-01 3.214050000000000296e+01 1.322944999999999993e+02 1.805369999999999891e+03
7.499999999999999722e-02 7.516454999999999664e-01 3.177309999999999945e+01 1.332164999999999964e+02 1.805619999999999891e+03
7.599999999999999811e-02 7.517700000000000493e-01 3.127730000000000032e+01 1.338170000000000073e+02 1.805799999999999955e+03
7.699999999999999900e-02 7.518359999999999488e-01 3.066769999999999996e+01 1.341259999999999764e+02 1.805909999999999854e+03
7.799999999999999989e-02 7.518525000000000347e-01 2.996324999999999861e+01 1.341845000000000141e+02 1.805970000000000027e+03
7.900000000000000078e-02 7.518294999999999284e-01 2.918569999999999709e+01 1.340399999999999920e+02 1.805974999999999909e+03
8.000000000000000167e-02 7.517789999999999750e-01 2.835869999999999891e+01 1.337439999999999998e+02 1.805945000000000164e+03
8.100000000000000255e-02 7.517110000000000181e-01 2.750649999999999906e+01 1.333489999999999895e+02 1.805889999999999873e+03
8.200000000000000344e-02 7.516365000000000407e-01 2.665245000000000175e+01 1.329074999999999989e+02 1.805815000000000055e+03
8.300000000000000433e-02 7.515644999999999687e-01 2.581790000000000163e+01 1.324650000000000034e+02 1.805740000000000009e+03
8.400000000000000522e-02 7.515020000000000033e-01 2.502084999999999937e+01 1.320614999999999952e+02 1.805659999999999854e+03
8.500000000000000611e-02 7.514555000000000540e-01 2.427524999999999977e+01 1.317280000000000086e+02 1.805590000000000146e+03
8.600000000000000699e-02 7.514279999999999848e-01 2.359029999999999916e+01 1.314844999999999970e+02 1.805534999999999854e+03
8.700000000000000788e-02 7.514199999999999768e-01 2.297009999999999863e+01 1.313400000000000034e+02 1.805494999999999891e+03
8.800000000000000877e-02 7.514309999999999601e-01 2.241390000000000171e+01 1.312939999999999827e+02 1.805474999999999909e+03
8.899999999999999578e-02 7.514570000000000416e-01 2.191649999999999920e+01 1.313350000000000080e+02 1.805474999999999909e+03
8.999999999999999667e-02 7.514944999999999542e-01 2.146859999999999857e+01 1.314435000000000002e+02 1.805490000000000009e+03
9.099999999999999756e-02 7.515365000000000517e-01 2.105790000000000006e+01 1.315935000000000059e+02 1.805514999999999873e+03
9.199999999999999845e-02 7.515764999999999807e-01 2.066975000000000051e+01 1.317529999999999859e+02 1.805539999999999964e+03
9.299999999999999933e-02 7.516070000000000251e-01 2.028845000000000098e+01 1.318880000000000052e+02 1.805565000000000055e+03
9.400000000000000022e-02 7.516220000000000123e-01 1.989784999999999826e+01 1.319650000000000034e+02 1.805575000000000045e+03
9.500000000000000111e-02 7.516140000000000043e-01 1.948274999999999935e+01 1.319524999999999864e+02 1.805574999999999818e+03
9.600000000000000200e-02 7.515775000000000095e-01 1.902994999999999948e+01 1.318210000000000264e+02 1.805549999999999955e+03
9.700000000000000289e-02 7.515100000000000113e-01 1.852884999999999849e+01 1.315504999999999995e+02 1.805500000000000000e+03
9.800000000000000377e-02 7.514080000000000759e-01 1.797234999999999872e+01 1.311245000000000118e+02 1.805420000000000073e+03
9.900000000000000466e-02 7.512710000000000221e-01 1.735749999999999815e+01 1.305384999999999991e+02 1.805305000000000064e+03
1.000000000000000056e-01 7.511019999999999364e-01 1.668554999999999922e+01 1.297959999999999923e+02 1.805160000000000082e+03
1.010000000000000064e-01 7.509040000000000159e-01 1.596229999999999905e+01 1.289094999999999800e+02 1.804985000000000127e+03
1.020000000000000073e-01 7.506815000000000015e-01 1.519735000000000014e+01 1.279000000000000057e+02 1.804784999999999854e+03
1.030000000000000082e-01 7.504425000000000123e-01 1.440404000000000195e+01 1.267974999999999994e+02 1.804554999999999836e+03
1.040000000000000091e-01 7.501940000000000275e-01 1.359808999999999912e+01 1.256359999999999957e+02 1.804315000000000055e+03
1.050000000000000100e-01 7.499449999999999728e-01 1.279720500000000172e+01 1.244544999999999959e+02 1.804070000000000164e+03
1.059999999999999970e-01 7.497040000000000370e-01 1.201976499999999959e+01 1.232924999999999898e+02 1.803820000000000164e+03
1.069999999999999979e-01 7.494784999999999364e-01 1.128367000000000075e+01 1.221894999999999953e+02 1.803585000000000036e+03
1.079999999999999988e-01 7.492760000000000531e-01 1.060548499999999983e+01 1.211829999999999927e+02 1.803365000000000009e+03
1.089999999999999997e-01 7.491029999999999633e-01 9.999439999999999884e+00 1.203015000000000043e+02 1.803164999999999964e+03
1.100000000000000006e-01 7.489624999999999755e-01 9.476630000000000109e+00 1.195709999999999980e+02 1.802994999999999891e+03
1.110000000000000014e-01 7.488585000000000935e-01 9.044660000000000366e+00 1.190074999999999932e+02 1.802849999999999909e+03
1.120000000000000023e-01 7.487920000000000131e-01 8.707040000000001001e+00 1.186184999999999974e+02 1.802750000000000000e+03
1.130000000000000032e-01 7.487610000000000099e-01 8.463625000000000398e+00 1.184039999999999964e+02 1.802679999999999836e+03
1.140000000000000041e-01 7.487635000000000263e-01 8.310394999999999754e+00 1.183550000000000040e+02 1.802644999999999982e+03
1.150000000000000050e-01 7.487954999999999472e-01 8.240075000000000927e+00 1.184559999999999889e+02 1.802644999999999982e+03
1.160000000000000059e-01 7.488524999999999210e-01 8.242744999999999322e+00 1.186850000000000023e+02 1.802670000000000073e+03
1.170000000000000068e-01 7.489280000000000381e-01 8.306464999999999321e+00 1.190180000000000007e+02 1.802724999999999909e+03
1.180000000000000077e-01 7.490170000000000439e-01 8.418044999999999334e+00 1.194265000000000043e+02 1.802795000000000073e+03
1.190000000000000085e-01 7.491134999999999877e-01 8.563760000000000261e+00 1.198834999999999980e+02 1.802880000000000109e+03
1.200000000000000094e-01 7.492115000000000302e-01 8.730045000000000499e+00 1.203605000000000018e+02 1.802970000000000027e+03
1.209999999999999964e-01 7.493069999999999453e-01 8.904085000000000250e+00 1.208335000000000008e+02 1.803059999999999945e+03
1.219999999999999973e-01 7.493940000000000046e-01 9.074334999999999596e+00 1.212800000000000011e+02 1.803150000000000091e+03
1.229999999999999982e-01 7.494720000000000271e-01 9.230879999999999086e+00 1.216829999999999927e+02 1.803235000000000127e+03
1.239999999999999991e-01 7.495365000000000499e-01 9.365755000000000052e+00 1.220300000000000011e+02 1.803309999999999945e+03
1.250000000000000000e-01 7.495870000000000033e-01 9.473065000000000069e+00 1.223114999999999952e+02 1.803375000000000000e+03
1.260000000000000009e-01 7.496229999999999283e-01 9.549004999999999299e+00 1.225250000000000057e+02 1.803424999999999955e+03
1.270000000000000018e-01 7.496454999999999647e-01 9.592064999999999841e+00 1.226694999999999993e+02 1.803460000000000036e+03
1.280000000000000027e-01 7.496549999999999603e-01 9.602505000000000734e+00 1.227500000000000000e+02 1.803485000000000127e+03
1.290000000000000036e-01 7.496540000000000425e-01 9.582599999999999341e+00 1.227750000000000057e+02 1.803500000000000000e+03
1.300000000000000044e-01 7.496449999999998948e-01 9.535944999999999894e+00 1.227545000000000073e+02 1.803505000000000109e+03
1.310000000000000053e-01 7.496300000000000185e-01 9.467459999999999098e+00 1.226999999999999886e+02 1.803500000000000000e+03
1.320000000000000062e-01 7.496125000000000149e-01 9.382984999999999687e+00 1.226260000000000048e+02 1.803490000000000009e+03
1.330000000000000071e-01 7.495950000000000113e-01 9.288664999999999949e+00 1.225449999999999875e+02 1.803474999999999909e+03
1.340000000000000080e-01 7.495810000000000528e-01 9.190739999999999910e+00 1.224710000000000036e+02 1.803464999999999918e+03
1.350000000000000089e-01 7.495709999999999873e-01 9.095130000000001047e+00 1.224140000000000015e+02 1.803454999999999927e+03
1.360000000000000098e-01 7.495689999999999298e-01 9.007114999999998872e+00 1.223859999999999957e+02 1.803449999999999818e+03
1.370000000000000107e-01 7.495745000000000324e-01 8.930880000000000152e+00 1.223925000000000125e+02 1.803449999999999818e+03
1.380000000000000115e-01 7.495890000000000608e-01 8.869510000000000005e+00 1.224389999999999930e+02 1.803460000000000036e+03
1.390000000000000124e-01 7.496129999999999738e-01 8.824695000000000178e+00 1.225260000000000105e+02 1.803474999999999909e+03
1.400000000000000133e-01 7.496445000000000469e-01 8.796915000000000262e+00 1.226529999999999916e+02 1.803500000000000000e+03
1.410000000000000142e-01 7.496834999999999471e-01 8.785325000000000273e+00 1.228149999999999977e+02 1.803534999999999854e+03
1.420000000000000151e-01 7.497274999999999912e-01 8.788070000000001158e+00 1.230070000000000050e+02 1.803570000000000164e+03
1.430000000000000160e-01 7.497759999999999980e-01 8.802445000000000519e+00 1.232199999999999989e+02 1.803615000000000009e+03
1.440000000000000169e-01 7.498259999999999925e-01 8.825195000000000789e+00 1.234454999999999956e+02 1.803659999999999854e+03
1.450000000000000178e-01 7.498754999999999171e-01 8.852805000000000035e+00 1.236744999999999948e+02 1.803710000000000036e+03
1.459999999999999909e-01 7.499234999999999651e-01 8.881755000000000067e+00 1.238979999999999961e+02 1.803755000000000109e+03
1.469999999999999918e-01 7.499675000000000091e-01 8.908805000000000973e+00 1.241080000000000041e+02 1.803800000000000182e+03
1.479999999999999927e-01 7.500070000000000903e-01 8.931169999999999831e+00 1.242990000000000066e+02 1.803840000000000146e+03
1.489999999999999936e-01 7.500409999999999577e-01 8.946709999999999496e+00 1.244650000000000034e+02 1.803880000000000109e+03
1.499999999999999944e-01 7.500694999999999446e-01 8.953890000000001237e+00 1.246045000000000016e+02 1.803909999999999854e+03
1.509999999999999953e-01 7.500914999999999111e-01 8.952109999999999346e+00 1.247164999999999964e+02 1.803934999999999945e+03
1.519999999999999962e-01 7.501085000000000669e-01 8.941365000000001118e+00 1.248025000000000091e+02 1.803954999999999927e+03
1.529999999999999971e-01 7.501204999999999679e-01 8.922530000000000072e+00 1.248650000000000091e+02 1.803974999999999909e+03
1.539999999999999980e-01 7.501290000000000457e-01 8.896940000000000737e+00 1.249095000000000084e+02 1.803985000000000127e+03
1.549999999999999989e-01 7.501355000000000661e-01 8.866710000000001202e+00 1.249419999999999931e+02 1.804000000000000000e+03
1.559999999999999998e-01 7.501405000000000989e-01 8.834270000000000067e+00 1.249679999999999893e+02 1.804005000000000109e+03
1.570000000000000007e-01 7.501474999999999671e-01 8.802434999999999121e+00 1.249964999999999975e+02 1.804014999999999873e+03
1.580000000000000016e-01 7.501565000000000039e-01 8.774110000000000298e+00 1.250335000000000036e+02 1.804019999999999982e+03
1.590000000000000024e-01 7.501694999999999336e-01 8.752465000000000828e+00 1.250875000000000057e+02 1.804034999999999854e+03
