# t [s], A [cm^2], U [cm/s], P [cPa], c [cm/s]
1.000000000000000021e-03 5.107924999999999827e-01 2.984100000000003416e-03 9.119650000000000034e+01 1.579454999999999927e+03
2.000000000000000042e-03 5.107869999999999910e-01 4.559365000000000119e-03 9.117429999999998813e+01 1.579450000000000045e+03
3.000000000000000062e-03 5.108405000000000307e-01 1.239491499999999941e-01 9.129625000000000057e+01 1.579480000000000018e+03
4.000000000000000083e-03 5.108740000000000503e-01 2.083977999999999942e-01 9.139750000000000796e+01 1.579505000000000109e+03
5.000000000000000104e-03 5.108405000000000307e-01 1.542155000000000054e-01 9.129564999999999486e+01 1.579485000000000127e+03
6.000000000000000125e-03 5.107829999999999870e-01 3.956099999999995731e-02 9.103695000000000448e+01 1.579424999999999955e+03
7.000000000000000146e-03 5.107224999999999682e-01 -8.994699999999999918e-02 9.068630000000000280e+01 1.579345000000000027e+03
8.000000000000000167e-03 5.106205000000000327e-01 -3.249049999999999994e-01 9.014180000000000348e+01 1.579215000000000146e+03
9.000000000000001055e-03 5.104585000000000372e-01 -7.025549999999999295e-01 8.932089999999999463e+01 1.579015000000000100e+03
1.000000000000000194e-02 5.102344999999999242e-01 -1.219545000000000101e+00 8.818420000000000414e+01 1.578740000000000009e+03
1.099999999999999936e-02 5.099329999999999696e-01 -1.895264999999999755e+00 8.666835000000000377e+01 1.578359999999999900e+03
1.200000000000000025e-02 5.095494999999999886e-01 -2.717764999999999986e+00 8.474290000000000589e+01 1.577875000000000000e+03
1.300000000000000114e-02 5.091194999999999471e-01 -3.581229999999999691e+00 8.250585000000000946e+01 1.577295000000000073e+03
1.400000000000000203e-02 5.087070000000000203e-01 -4.312072000000000571e+00 8.018269999999999698e+01 1.576664999999999964e+03
1.499999999999999944e-02 5.083670000000000133e-01 -4.754137199999999730e+00 7.802864999999999895e+01 1.576054999999999836e+03
1.600000000000000033e-02 5.081210000000000448e-01 -4.835106999999999822e+00 7.622069999999999368e+01 1.575509999999999991e+03
1.700000000000000122e-02 5.079535000000000577e-01 -4.580675000000000274e+00 7.480395000000000039e+01 1.575034999999999854e+03
1.800000000000000211e-02 5.078255000000000408e-01 -4.087905000000000122e+00 7.369859999999999900e+01 1.574639999999999873e+03
1.900000000000000300e-02 5.076929999999999499e-01 -3.480410000000000004e+00 7.274789999999998713e+01 1.574279999999999973e+03
2.000000000000000042e-02 5.075214999999999588e-01 -2.863602000000000203e+00 7.178309999999999036e+01 1.573925000000000182e+03
2.100000000000000130e-02 5.072965000000000391e-01 -2.293905499999999709e+00 7.068240000000000123e+01 1.573550000000000182e+03
2.200000000000000219e-02 5.070255000000000178e-01 -1.771940000000000071e+00 6.940260000000000673e+01 1.573130000000000109e+03
2.299999999999999961e-02 5.067294999999999439e-01 -1.260229999999999961e+00 6.797409999999999286e+01 1.572680000000000064e+03
2.400000000000000050e-02 5.064294999999999769e-01 -7.143650000000001388e-01 6.646659999999999968e+01 1.572215000000000146e+03
2.500000000000000139e-02 5.061385000000000467e-01 -1.122799999999997134e-01 6.494499999999999318e+01 1.571735000000000127e+03
2.600000000000000228e-02 5.058549999999999436e-01 5.294449999999999434e-01 6.343464999999999776e+01 1.571244999999999891e+03
2.700000000000000316e-02 5.055635000000000545e-01 1.154899999999999594e+00 6.190570000000000306e+01 1.570755000000000109e+03
2.800000000000000058e-02 5.052384999999999238e-01 1.681189999999999962e+00 6.027765000000000128e+01 1.570240000000000009e+03
2.900000000000000147e-02 5.048540000000000250e-01 2.018445000000000267e+00 5.844044999999999845e+01 1.569680000000000064e+03
3.000000000000000236e-02 5.043885000000000174e-01 2.092190000000000438e+00 5.628560000000000230e+01 1.569039999999999964e+03
3.099999999999999978e-02 5.038335000000000452e-01 1.862380000000000368e+00 5.373869999999999436e+01 1.568305000000000064e+03
3.200000000000000067e-02 5.031955000000000178e-01 1.334314999999999696e+00 5.078529999999999944e+01 1.567474999999999909e+03
3.300000000000000155e-02 5.024969999999999715e-01 5.584299999999995379e-01 4.748210000000000264e+01 1.566550000000000182e+03
3.400000000000000244e-02 5.017700000000000493e-01 -3.801149999999999807e-01 4.395150000000000290e+01 1.565565000000000055e+03
3.500000000000000333e-02 5.010535000000000405e-01 -1.378385000000000637e+00 4.036229999999999762e+01 1.564545000000000073e+03
3.600000000000000422e-02 5.003850000000000797e-01 -2.332905000000000229e+00 3.690319999999999823e+01 1.563550000000000182e+03
3.700000000000000511e-02 4.997954999999999481e-01 -3.154080000000000439e+00 3.375659999999999883e+01 1.562615000000000009e+03
3.799999999999999906e-02 4.993099999999999761e-01 -3.774439999999999795e+00 3.107724999999999937e+01 1.561795000000000073e+03
3.899999999999999994e-02 4.989425000000000110e-01 -4.151320000000000121e+00 2.897925000000000040e+01 1.561110000000000127e+03
4.000000000000000083e-02 4.986994999999999623e-01 -4.264402999999999722e+00 2.753134999999999977e+01 1.560595000000000027e+03
4.100000000000000172e-02 4.985804999999999820e-01 -4.110710000000000086e+00 2.675959999999999894e+01 1.560255000000000109e+03
4.200000000000000261e-02 4.985810000000000519e-01 -3.698145000000000238e+00 2.665530000000000044e+01 1.560105000000000018e+03
4.300000000000000350e-02 4.986929999999999974e-01 -3.039786499999999947e+00 2.718515000000000015e+01 1.560134999999999991e+03
4.400000000000000439e-02 4.989084999999999770e-01 -2.150009999999999977e+00 2.830160000000000053e+01 1.560339999999999918e+03
4.499999999999999833e-02 4.992189999999999683e-01 -1.043015000000000025e+00 2.995029999999999859e+01 1.560704999999999927e+03
4.599999999999999922e-02 4.996144999999999614e-01 2.664400000000002322e-01 3.207439999999999714e+01 1.561220000000000027e+03
4.700000000000000011e-02 5.000860000000000305e-01 1.761045000000000194e+00 3.461554999999999893e+01 1.561860000000000127e+03
4.800000000000000100e-02 5.006230000000000402e-01 3.418734999999999857e+00 3.751315000000000310e+01 1.562610000000000127e+03
4.900000000000000189e-02 5.012124999999999497e-01 5.211190000000000211e+00 4.070260000000000389e+01 1.563460000000000036e+03
5.000000000000000278e-02 5.018415000000000514e-01 7.103774999999999729e+00 4.411489999999999867e+01 1.564389999999999873e+03
5.100000000000000366e-02 5.024954999999999838e-01 9.056928800000001445e+00 4.767689999999999628e+01 1.565375000000000000e+03
5.200000000000000455e-02 5.031605000000000105e-01 1.102850499999999911e+01 5.131409999999999627e+01 1.566400000000000091e+03
5.300000000000000544e-02 5.038219999999999921e-01 1.297658999999999985e+01 5.495364999999999611e+01 1.567445000000000164e+03
5.399999999999999939e-02 5.044675000000000686e-01 1.486293500000000023e+01 5.852890000000000015e+01 1.568485000000000127e+03
5.500000000000000028e-02 5.050885000000000513e-01 1.665527499999999961e+01 6.198335000000000150e+01 1.569505000000000109e+03
5.600000000000000117e-02 5.056779999999999609e-01 1.832900000000000063e+01 6.527384999999999593e+01 1.570500000000000000e+03
5.700000000000000205e-02 5.062320000000000153e-01 1.986820000000000164e+01 6.837260000000000559e+01 1.571444999999999936e+03
5.800000000000000294e-02 5.067500000000000338e-01 2.126554999999999751e+01 7.126769999999999072e+01 1.572345000000000027e+03
5.900000000000000383e-02 5.072345000000000326e-01 2.252145000000000152e+01 7.396254999999999313e+01 1.573190000000000055e+03
6.000000000000000472e-02 5.076890000000000569e-01 2.364284999999999926e+01 7.647360000000000468e+01 1.573994999999999891e+03
6.099999999999999867e-02 5.081200000000000161e-01 2.464195000000000135e+01 7.882784999999999798e+01 1.574755000000000109e+03
6.199999999999999956e-02 5.085330000000000128e-01 2.553464999999999918e+01 8.106004999999998972e+01 1.575474999999999909e+03
6.300000000000000044e-02 5.089365000000000139e-01 2.633895000000000053e+01 8.320924999999999727e+01 1.576174999999999955e+03
6.400000000000000133e-02 5.093369999999999287e-01 2.707439999999999714e+01 8.531614999999999327e+01 1.576855000000000018e+03
6.500000000000000222e-02 5.097419999999999174e-01 2.775994999999999990e+01 8.742019999999999413e+01 1.577525000000000091e+03
6.600000000000000311e-02 5.101569999999999716e-01 2.841394999999999982e+01 8.955725000000001046e+01 1.578204999999999927e+03
6.700000000000000400e-02 5.105864999999999432e-01 2.905210000000000292e+01 9.175710000000000832e+01 1.578900000000000091e+03
6.800000000000000488e-02 5.110339999999999883e-01 2.968720000000000070e+01 9.404189999999999827e+01 1.579609999999999900e+03
6.900000000000000577e-02 5.115020000000000122e-01 3.032789999999999964e+01 9.642449999999999477e+01 1.580344999999999800e+03
7.000000000000000666e-02 5.119884999999999575e-01 3.097829999999999728e+01 9.890704999999999814e+01 1.581110000000000127e+03
7.100000000000000755e-02 5.124929999999999763e-01 3.163754999999999740e+01 1.014818499999999943e+02 1.581894999999999982e+03
7.200000000000000844e-02 5.130089999999999373e-01 3.230020000000000380e+01 1.041301500000000004e+02 1.582699999999999818e+03
7.300000000000000933e-02 5.135330000000000172e-01 3.295620000000000260e+01 1.068245000000000005e+02 1.583525000000000091e+03
7.399999999999999634e-02 5.140554999999999986e-01 3.359235000000000326e+01 1.095300000000000011e+02 1.584349999999999909e+03
7.499999999999999722e-02 5.145710000000000006e-01 3.419289999999999452e+01 1.122055000000000007e+02 1.585174999999999955e+03
7.599999999999999811e-02 5.150699999999999168e-01 3.474080000000000013e+01 1.148089999999999975e+02 1.585985000000000127e+03
7.699999999999999900e-02 5.155444999999999611e-01 3.521900000000000119e+01 1.172974999999999994e+02 1.586765000000000100e+03
7.799999999999999989e-02 5.159880000000000022e-01 3.561160000000000281e+01 1.196299999999999955e+02 1.587505000000000109e+03
7.900000000000000078e-02 5.163940000000000197e-01 3.590455000000000041e+01 1.217704999999999984e+02 1.588200000000000045e+03
8.000000000000000167e-02 5.167565000000000630e-01 3.608689999999999998e+01 1.236899999999999977e+02 1.588825000000000045e+03
8.100000000000000255e-02 5.170740000000000336e-01 3.615084999999999837e+01 1.253659999999999997e+02 1.589389999999999873e+03
8.200000000000000344e-02 5.173434999999999562e-01 3.609234999999999616e+01 1.267865000000000038e+02 1.589875000000000000e+03
8.300000000000000433e-02 5.175640000000000240e-01 3.591124999999999545e+01 1.279454999999999956e+02 1.590295000000000073e+03
8.400000000000000522e-02 5.177384999999999904e-01 3.561104999999999876e+01 1.288485000000000014e+02 1.590634999999999991e+03
8.500000000000000611e-02 5.178675000000000361e-01 3.519894999999999641e+01 1.295070000000000050e+02 1.590904999999999973e+03
8.600000000000000699e-02 5.179570000000000007e-01 3.468509999999999849e+01 1.299395000000000095e+02 1.591099999999999909e+03
8.700000000000000788e-02 5.180099999999999705e-01 3.408249999999999602e+01 1.301714999999999804e+02 1.591235000000000127e+03
8.800000000000000877e-02 5.180325000000000069e-01 3.340594999999999715e+01 1.302325000000000159e+02 1.591315000000000055e+03
8.899999999999999578e-02 5.180309999999999082e-01 3.267199999999999704e+01 1.301535000000000082e+02 1.591345000000000027e+03
8.999999999999999667e-02 5.180109999999999992e-01 3.189764999999999873e+01 1.299689999999999941e+02 1.591340000000000146e+03
9.099999999999999756e-02 5.179785000000000084e-01 3.110004999999999953e+01 1.297119999999999891e+02 1.591304999999999836e+03
9.199999999999999845e-02 5.179399999999999560e-01 3.029569999999999652e+01 1.294145000000000039e+02 1.591250000000000000e+03
9.299999999999999933e-02 5.178994999999999571e-01 2.949964999999999904e+01 1.291055000000000064e+02 1.591184999999999945e+03
9.400000000000000022e-02 5.178620000000000445e-01 2.872504999999999953e+01 1.288110000000000070e+02 1.591114999999999782e+03
9.500000000000000111e-02 5.178310000000000413e-01 2.798280000000000101e+01 1.285509999999999877e+02 1.591050000000000182e+03
9.600000000000000200e-02 5.178085000000000049e-01 2.728105000000000047e+01 1.283400000000000034e+02 1.590990000000000009e+03
9.700000000000000289e-02 5.177964999999999929e-01 2.662480000000000047e+01 1.281885000000000048e+02 1.590944999999999936e+03
9.800000000000000377e-02 5.177945000000000464e-01 2.601635000000000275e+01 1.280995000000000061e+02 1.590914999999999964e+03
9.900000000000000466e-02 5.178024999999999434e-01 2.545485000000000042e+01 1.280699999999999932e+02 1.590900000000000091e+03
1.000000000000000056e-01 5.178184999999999594e-01 2.493690000000000140e+01 1.280945000000000107e+02 1.590900000000000091e+03
1.010000000000000064e-01 5.178404999999999259e-01 2.445674999999999955e+01 1.281595000000000084e+02 1.590904999999999973e+03
1.020000000000000073e-01 5.178650000000000198e-01 2.400679999999999836e+01 1.282504999999999882e+02 1.590920000000000073e+03
1.030000000000000082e-01 5.178890000000000438e-01 2.357795000000000130e+01 1.283495000000000061e+02 1.590944999999999936e+03
1.040000000000000091e-01 5.179084999999999939e-01 2.316024999999999778e+01 1.284379999999999882e+02 1.590960000000000036e+03
1.050000000000000100e-01 5.179205000000000059e-01 2.274350000000000094e+01 1.284950000000000045e+02 1.590974999999999909e+03
1.059999999999999970e-01 5.179209999999999647e-01 2.231779999999999831e+01 1.285024999999999977e+02 1.590974999999999909e+03
1.069999999999999979e-01 5.179080000000000350e-01 2.187395000000000067e+01 1.284435000000000002e+02 1.590960000000000036e+03
1.079999999999999988e-01 5.178779999999999495e-01 2.140399999999999991e+01 1.283029999999999973e+02 1.590920000000000073e+03
1.089999999999999997e-01 5.178304999999999714e-01 2.090180000000000149e+01 1.280695000000000050e+02 1.590865000000000009e+03
1.100000000000000006e-01 5.177635000000000431e-01 2.036305000000000121e+01 1.277365000000000066e+02 1.590775000000000091e+03
1.110000000000000014e-01 5.176764999999999839e-01 1.978575000000000017e+01 1.273010000000000019e+02 1.590654999999999973e+03
1.120000000000000023e-01 5.175714999999999621e-01 1.917029999999999745e+01 1.267644999999999982e+02 1.590509999999999991e+03
1.130000000000000032e-01 5.174495000000000067e-01 1.851919999999999789e+01 1.261345000000000027e+02 1.590340000000000146e+03
1.140000000000000041e-01 5.173119999999999941e-01 1.783739999999999881e+01 1.254200000000000017e+02 1.590140000000000100e+03
1.150000000000000050e-01 5.171624999999999694e-01 1.713190000000000168e+01 1.246354999999999933e+02 1.589914999999999964e+03
1.160000000000000059e-01 5.170044999999999780e-01 1.641120000000000090e+01 1.237999999999999972e+02 1.589679999999999836e+03
1.170000000000000068e-01 5.168420000000000236e-01 1.568544999999999945e+01 1.229325000000000045e+02 1.589434999999999945e+03
1.180000000000000077e-01 5.166789999999999994e-01 1.496539999999999893e+01 1.220544999999999902e+02 1.589180000000000064e+03
1.190000000000000085e-01 5.165189999999999504e-01 1.426240999999999914e+01 1.211885000000000048e+02 1.588920000000000073e+03
1.200000000000000094e-01 5.163674999999999793e-01 1.358769500000000008e+01 1.203565000000000111e+02 1.588670000000000073e+03
1.209999999999999964e-01 5.162269999999999914e-01 1.295186999999999955e+01 1.195789999999999935e+02 1.588434999999999945e+03
1.219999999999999973e-01 5.161004999999999621e-01 1.236445999999999934e+01 1.188739999999999952e+02 1.588210000000000036e+03
1.229999999999999982e-01 5.159914999999999363e-01 1.183353999999999928e+01 1.182574999999999932e+02 1.588009999999999991e+03
1.239999999999999991e-01 5.159019999999999717e-01 1.136544500000000113e+01 1.177415000000000020e+02 1.587840000000000146e+03
1.250000000000000000e-01 5.158325000000000271e-01 1.096447500000000019e+01 1.173335000000000008e+02 1.587695000000000164e+03
1.260000000000000009e-01 5.157834999999999503e-01 1.063271999999999906e+01 1.170374999999999943e+02 1.587579999999999927e+03
1.270000000000000018e-01 5.157555000000000334e-01 1.037016500000000008e+01 1.168530000000000086e+02 1.587500000000000000e+03
1.280000000000000027e-01 5.157464999999999966e-01 1.017474999999999952e+01 1.167754999999999939e+02 1.587454999999999927e+03
1.290000000000000036e-01 5.157549999999999635e-01 1.004257999999999917e+01 1.167980000000000018e+02 1.587430000000000064e+03
1.300000000000000044e-01 5.157789999999999875e-01 9.967969999999999331e+00 1.169089999999999918e+02 1.587440000000000055e+03
1.310000000000000053e-01 5.158165000000000111e-01 9.944034999999999513e+00 1.170949999999999989e+02 1.587465000000000146e+03
1.320000000000000062e-01 5.158635000000000304e-01 9.963039999999999452e+00 1.173419999999999987e+02 1.587519999999999982e+03
1.330000000000000071e-01 5.159175000000000288e-01 1.001642999999999972e+01 1.176334999999999980e+02 1.587579999999999927e+03
1.340000000000000080e-01 5.159759999999999902e-01 1.009555499999999917e+01 1.179534999999999911e+02 1.587659999999999854e+03
1.350000000000000089e-01 5.160360000000000502e-01 1.019185000000000052e+01 1.182879999999999967e+02 1.587744999999999891e+03
1.360000000000000098e-01 5.160949999999999704e-01 1.029707499999999953e+01 1.186214999999999975e+02 1.587829999999999927e+03
1.370000000000000107e-01 5.161514999999999853e-01 1.040381999999999962e+01 1.189420000000000073e+02 1.587920000000000073e+03
1.380000000000000115e-01 5.162025000000000086e-01 1.050536999999999921e+01 1.192385000000000019e+02 1.588005000000000109e+03
1.390000000000000124e-01 5.162470000000000114e-01 1.059615499999999955e+01 1.195035000000000025e+02 1.588085000000000036e+03
1.400000000000000133e-01 5.162845000000000351e-01 1.067173499999999997e+01 1.197300000000000040e+02 1.588150000000000091e+03
1.410000000000000142e-01 5.163145000000000095e-01 1.072882500000000050e+01 1.199154999999999944e+02 1.588210000000000036e+03
1.420000000000000151e-01 5.163370000000000459e-01 1.076539000000000001e+01 1.200575000000000045e+02 1.588255000000000109e+03
1.430000000000000160e-01 5.163519999999999222e-01 1.078054999999999986e+01 1.201574999999999989e+02 1.588289999999999964e+03
1.440000000000000169e-01 5.163594999999999713e-01 1.077441999999999922e+01 1.202179999999999893e+02 1.588315000000000055e+03
1.450000000000000178e-01 5.163615000000000288e-01 1.074823999999999913e+01 1.202429999999999950e+02 1.588335000000000036e+03
1.459999999999999909e-01 5.163585000000000536e-01 1.070396500000000017e+01 1.202379999999999995e+02 1.588340000000000146e+03
1.469999999999999918e-01 5.163519999999999222e-01 1.064424499999999973e+01 1.202100000000000080e+02 1.588340000000000146e+03
1.479999999999999927e-01 5.163429999999999964e-01 1.057229500000000044e+01 1.201654999999999944e+02 1.588335000000000036e+03
1.489999999999999936e-01 5.163329999999999309e-01 1.049153499999999894e+01 1.201115000000000066e+02 1.588325000000000045e+03
1.499999999999999944e-01 5.163229999999999764e-01 1.040554500000000004e+01 1.200550000000000068e+02 1.588309999999999945e+03
1.509999999999999953e-01 5.163139999999999397e-01 1.031786999999999921e+01 1.200019999999999953e+02 1.588299999999999955e+03
1.519999999999999962e-01 5.163075000000000303e-01 1.023183000000000042e+01 1.199590000000000032e+02 1.588295000000000073e+03
1.529999999999999971e-01 5.163044999999999440e-01 1.015031499999999909e+01 1.199300000000000068e+02 1.588284999999999854e+03
1.539999999999999980e-01 5.163045000000000551e-01 1.007569499999999962e+01 1.199194999999999993e+02 1.588284999999999854e+03
1.549999999999999989e-01 5.163090000000000179e-01 1.000984000000000052e+01 1.199284999999999997e+02 1.588289999999999964e+03
1.559999999999999998e-01 5.163174999999999848e-01 9.953994999999999038e+00 1.199590000000000032e+02 1.588295000000000073e+03
1.570000000000000007e-01 5.163294999999999968e-01 9.908640000000000114e+00 1.200100000000000051e+02 1.588305000000000064e+03
1.580000000000000016e-01 5.163450000000000539e-01 9.873754999999999171e+00 1.200799999999999983e+02 1.588325000000000045e+03
1.590000000000000024e-01 5.163634999999999753e-01 9.848734999999999573e+00 1.201665000000000134e+02 1.588349999999999909e+03
