# t [s], A [cm^2], U [cm/s], P [cPa], c [cm/s]
1.000000000000000021e-03 1.595004999999999895e-01 2.471145000000000147e-01 8.653749999999999432e+01 1.727554999999999836e+03
2.000000000000000042e-03 1.594774999999999943e-01 1.601081999999999894e+00 8.403504999999999825e+01 1.727340000000000146e+03
3.000000000000000062e-03 1.593820000000000237e-01 3.267600999999999978e+00 8.077674999999999272e+01 1.726494999999999891e+03
4.000000000000000083e-03 1.592350000000000154e-01 5.112577650000000418e+00 7.708405000000000484e+01 1.725224999999999909e+03
5.000000000000000104e-03 1.590620000000000089e-01 7.096019999999999328e+00 7.353674999999999784e+01 1.723740000000000009e+03
6.000000000000000125e-03 1.588829999999999965e-01 9.140229999999998967e+00 7.047925000000000750e+01 1.722219999999999800e+03
7.000000000000000146e-03 1.587095000000000034e-01 1.111590999999999951e+01 6.793115000000000236e+01 1.720755000000000109e+03
8.000000000000000167e-03 1.585445000000000049e-01 1.290419999999999945e+01 6.572379999999999711e+01 1.719389999999999873e+03
9.000000000000001055e-03 1.583910000000000040e-01 1.446300000000000097e+01 6.373414999999999964e+01 1.718130000000000109e+03
1.000000000000000194e-02 1.582510000000000028e-01 1.581145000000000067e+01 6.196935000000000571e+01 1.717000000000000000e+03
1.099999999999999936e-02 1.581275000000000042e-01 1.697350000000000136e+01 6.046759999999999735e+01 1.716019999999999982e+03
1.200000000000000025e-02 1.580209999999999948e-01 1.796000000000000085e+01 5.922404999999999831e+01 1.715174999999999955e+03
1.300000000000000114e-02 1.579309999999999881e-01 1.877939999999999898e+01 5.820709999999999695e+01 1.714464999999999918e+03
1.400000000000000203e-02 1.578554999999999819e-01 1.944030000000000058e+01 5.737910000000000110e+01 1.713880000000000109e+03
1.499999999999999944e-02 1.577925000000000022e-01 1.994800000000000040e+01 5.669200000000000017e+01 1.713404999999999973e+03
1.600000000000000033e-02 1.577395000000000047e-01 2.031230000000000047e+01 5.609704999999999586e+01 1.713005000000000109e+03
1.700000000000000122e-02 1.576950000000000018e-01 2.056530000000000058e+01 5.558624999999999972e+01 1.712675000000000182e+03
1.800000000000000211e-02 1.576599999999999946e-01 2.076935000000000286e+01 5.523004999999999853e+01 1.712420000000000073e+03
1.900000000000000300e-02 1.576380000000000003e-01 2.100479999999999947e+01 5.516934999999999434e+01 1.712264999999999873e+03
2.000000000000000042e-02 1.576329999999999953e-01 2.134165000000000134e+01 5.555575000000000330e+01 1.712244999999999891e+03
2.100000000000000130e-02 1.576504999999999990e-01 2.181194999999999951e+01 5.647490000000000521e+01 1.712394999999999982e+03
2.200000000000000219e-02 1.576899999999999968e-01 2.239645000000000152e+01 5.789235000000000042e+01 1.712715000000000146e+03
2.299999999999999961e-02 1.577490000000000003e-01 2.303054999999999808e+01 5.964719999999999800e+01 1.713184999999999945e+03
2.400000000000000050e-02 1.578200000000000158e-01 2.362415000000000020e+01 6.149114999999999753e+01 1.713755000000000109e+03
2.500000000000000139e-02 1.578940000000000066e-01 2.408790000000000120e+01 6.315409999999999968e+01 1.714355000000000018e+03
2.600000000000000228e-02 1.579610000000000181e-01 2.435585000000000022e+01 6.441210000000000946e+01 1.714904999999999973e+03
2.700000000000000316e-02 1.580145000000000022e-01 2.439965000000000117e+01 6.513684999999999548e+01 1.715355000000000018e+03
2.800000000000000058e-02 1.580499999999999960e-01 2.423059999999999903e+01 6.531539999999999679e+01 1.715659999999999854e+03
2.900000000000000147e-02 1.580670000000000130e-01 2.389154999999999873e+01 6.503775000000000261e+01 1.715815000000000055e+03
3.000000000000000236e-02 1.580685000000000007e-01 2.344205000000000183e+01 6.446044999999999447e+01 1.715840000000000146e+03
3.099999999999999978e-02 1.580584999999999907e-01 2.294125000000000014e+01 6.375789999999999935e+01 1.715779999999999973e+03
3.200000000000000067e-02 1.580429999999999890e-01 2.243424999999999869e+01 6.307819999999999538e+01 1.715664999999999964e+03
3.300000000000000155e-02 1.580254999999999854e-01 2.194464999999999932e+01 6.251229999999999620e+01 1.715534999999999854e+03
3.400000000000000244e-02 1.580094999999999972e-01 2.147390000000000043e+01 6.208424999999999727e+01 1.715400000000000091e+03
3.500000000000000333e-02 1.579949999999999966e-01 2.100679999999999836e+01 6.175974999999999682e+01 1.715289999999999964e+03
3.600000000000000422e-02 1.579820000000000113e-01 2.052045000000000030e+01 6.146854999999999336e+01 1.715190000000000055e+03
3.700000000000000511e-02 1.579679999999999973e-01 1.999390000000000001e+01 6.113309999999999889e+01 1.715075000000000045e+03
3.799999999999999906e-02 1.579504999999999937e-01 1.941704999999999970e+01 6.069525000000000148e+01 1.714940000000000055e+03
3.899999999999999994e-02 1.579295000000000004e-01 1.879529999999999745e+01 6.013585000000000491e+01 1.714779999999999973e+03
4.000000000000000083e-02 1.579039999999999888e-01 1.815119999999999933e+01 5.948315000000000197e+01 1.714579999999999927e+03
4.100000000000000172e-02 1.578760000000000163e-01 1.752084999999999937e+01 5.880924999999999869e+01 1.714365000000000009e+03
4.200000000000000261e-02 1.578479999999999883e-01 1.694805000000000206e+01 5.821500000000000341e+01 1.714139999999999873e+03
4.300000000000000350e-02 1.578245000000000064e-01 1.647524999999999906e+01 5.780920000000000414e+01 1.713950000000000045e+03
4.400000000000000439e-02 1.578089999999999771e-01 1.613569999999999993e+01 5.768424999999999869e+01 1.713820000000000164e+03
4.499999999999999833e-02 1.578045000000000142e-01 1.594694999999999929e+01 5.789690000000000225e+01 1.713779999999999973e+03
4.599999999999999922e-02 1.578129999999999811e-01 1.590750000000000064e+01 5.845539999999999736e+01 1.713835000000000036e+03
4.700000000000000011e-02 1.578350000000000031e-01 1.599640000000000128e+01 5.931654999999999944e+01 1.714000000000000000e+03
4.800000000000000100e-02 1.578689999999999816e-01 1.617674999999999841e+01 6.039154999999999518e+01 1.714259999999999991e+03
4.900000000000000189e-02 1.579105000000000092e-01 1.640060000000000073e+01 6.155980000000000274e+01 1.714579999999999927e+03
5.000000000000000278e-02 1.579564999999999997e-01 1.661565000000000225e+01 6.268599999999999994e+01 1.714940000000000055e+03
5.100000000000000366e-02 1.580010000000000026e-01 1.677139999999999986e+01 6.363799999999999812e+01 1.715299999999999955e+03
5.200000000000000455e-02 1.580400000000000138e-01 1.682394999999999996e+01 6.430285000000000650e+01 1.715605000000000018e+03
5.300000000000000544e-02 1.580679999999999863e-01 1.674064999999999870e+01 6.459774999999999068e+01 1.715835000000000036e+03
5.399999999999999939e-02 1.580820000000000003e-01 1.650099999999999767e+01 6.447594999999999743e+01 1.715954999999999927e+03
5.500000000000000028e-02 1.580794999999999839e-01 1.609734999999999872e+01 6.392705000000000126e+01 1.715944999999999936e+03
5.600000000000000117e-02 1.580600000000000060e-01 1.553335000000000043e+01 6.297339999999999804e+01 1.715789999999999964e+03
5.700000000000000205e-02 1.580234999999999834e-01 1.482195000000000107e+01 6.166250000000000142e+01 1.715514999999999873e+03
5.800000000000000294e-02 1.579720000000000013e-01 1.398294999999999888e+01 6.005880000000000507e+01 1.715105000000000018e+03
5.900000000000000383e-02 1.579070000000000196e-01 1.304039999999999999e+01 5.823529999999999518e+01 1.714590000000000146e+03
6.000000000000000472e-02 1.578304999999999847e-01 1.202065499999999965e+01 5.626699999999999591e+01 1.713985000000000127e+03
6.099999999999999867e-02 1.577459999999999973e-01 1.095116499999999959e+01 5.422594999999999743e+01 1.713315000000000055e+03
6.199999999999999956e-02 1.576565000000000050e-01 9.859429999999999694e+00 5.217860000000000298e+01 1.712605000000000018e+03
6.300000000000000044e-02 1.575654999999999972e-01 8.772745000000000459e+00 5.018534999999999968e+01 1.711875000000000000e+03
6.400000000000000133e-02 1.574740000000000029e-01 7.718150000000000510e+00 4.830105000000000359e+01 1.711150000000000091e+03
6.500000000000000222e-02 1.573859999999999981e-01 6.722494999999999443e+00 4.657635000000000502e+01 1.710450000000000045e+03
6.600000000000000311e-02 1.573034999999999850e-01 5.812459999999999738e+00 4.505894999999999584e+01 1.709789999999999964e+03
6.700000000000000400e-02 1.572290000000000076e-01 5.014229999999999521e+00 4.379444999999999766e+01 1.709184999999999945e+03
6.800000000000000488e-02 1.571644999999999848e-01 4.353149999999999409e+00 4.282645000000000124e+01 1.708670000000000073e+03
6.900000000000000577e-02 1.571130000000000027e-01 3.853004999999999569e+00 4.219610000000000127e+01 1.708250000000000000e+03
7.000000000000000666e-02 1.570759999999999934e-01 3.535124999999999851e+00 4.194010000000000105e+01 1.707945000000000164e+03
7.100000000000000755e-02 1.570550000000000002e-01 3.417489999999999917e+00 4.208964999999999890e+01 1.707765000000000100e+03
7.200000000000000844e-02 1.570524999999999838e-01 3.513774999999999871e+00 4.266760000000000019e+01 1.707730000000000018e+03
7.300000000000000933e-02 1.570684999999999998e-01 3.832570000000000032e+00 4.368710000000000093e+01 1.707839999999999918e+03
7.399999999999999634e-02 1.571055000000000090e-01 4.376875000000000071e+00 4.515014999999999645e+01 1.708119999999999891e+03
7.499999999999999722e-02 1.571619999999999961e-01 5.143819999999999837e+00 4.704684999999999917e+01 1.708554999999999836e+03
7.599999999999999811e-02 1.572390000000000176e-01 6.124769999999999825e+00 4.935559999999999548e+01 1.709155000000000200e+03
7.699999999999999900e-02 1.573354999999999893e-01 7.305699999999999861e+00 5.204375000000000284e+01 1.709904999999999973e+03
7.799999999999999989e-02 1.574500000000000066e-01 8.667960000000000775e+00 5.506949999999999790e+01 1.710799999999999955e+03
7.900000000000000078e-02 1.575814999999999855e-01 1.018886999999999965e+01 5.838365000000000293e+01 1.711840000000000146e+03
8.000000000000000167e-02 1.577270000000000061e-01 1.184300499999999978e+01 6.193215000000000003e+01 1.712994999999999891e+03
8.100000000000000255e-02 1.578859999999999986e-01 1.360307999999999851e+01 6.565850000000000364e+01 1.714250000000000000e+03
8.200000000000000344e-02 1.580540000000000000e-01 1.544099999999999895e+01 6.950629999999999598e+01 1.715594999999999800e+03
8.300000000000000433e-02 1.582299999999999818e-01 1.732894999999999897e+01 7.342150000000000887e+01 1.717000000000000000e+03
8.400000000000000522e-02 1.584114999999999829e-01 1.924034999999999940e+01 7.735425000000000750e+01 1.718460000000000036e+03
8.500000000000000611e-02 1.585955000000000004e-01 2.115044999999999931e+01 8.126064999999999827e+01 1.719940000000000055e+03
8.600000000000000699e-02 1.587804999999999911e-01 2.303725000000000023e+01 8.510394999999999754e+01 1.721434999999999945e+03
8.700000000000000788e-02 1.589645000000000086e-01 2.488210000000000122e+01 8.885545000000000471e+01 1.722925000000000182e+03
8.800000000000000877e-02 1.591464999999999963e-01 2.666980000000000217e+01 9.249479999999999791e+01 1.724404999999999973e+03
8.899999999999999578e-02 1.593249999999999944e-01 2.838889999999999958e+01 9.600995000000000346e+01 1.725860000000000127e+03
8.999999999999999667e-02 1.594990000000000019e-01 3.003179999999999694e+01 9.939759999999999707e+01 1.727284999999999854e+03
9.099999999999999756e-02 1.596684999999999910e-01 3.159440000000000026e+01 1.026603000000000065e+02 1.728670000000000073e+03
9.199999999999999845e-02 1.598330000000000028e-01 3.307594999999999885e+01 1.058075499999999920e+02 1.730025000000000091e+03
9.299999999999999933e-02 1.599935000000000107e-01 3.447820000000000107e+01 1.088534999999999968e+02 1.731344999999999800e+03
9.400000000000000022e-02 1.601489999999999858e-01 3.580525000000000091e+01 1.118139999999999930e+02 1.732630000000000109e+03
9.500000000000000111e-02 1.603009999999999990e-01 3.706260000000000332e+01 1.147079999999999984e+02 1.733885000000000218e+03
9.600000000000000200e-02 1.604495000000000227e-01 3.825655000000000427e+01 1.175524999999999949e+02 1.735115000000000009e+03
9.700000000000000289e-02 1.605964999999999754e-01 3.939350000000000307e+01 1.203644999999999925e+02 1.736329999999999927e+03
9.800000000000000377e-02 1.607409999999999950e-01 4.047950000000000159e+01 1.231554999999999893e+02 1.737535000000000082e+03
9.900000000000000466e-02 1.608844999999999859e-01 4.151954999999999529e+01 1.259365000000000094e+02 1.738724999999999909e+03
1.000000000000000056e-01 1.610270000000000035e-01 4.251735000000000042e+01 1.287104999999999961e+02 1.739914999999999964e+03
1.010000000000000064e-01 1.611690000000000067e-01 4.347504999999999598e+01 1.314780000000000086e+02 1.741090000000000146e+03
1.020000000000000073e-01 1.613100000000000089e-01 4.439294999999999902e+01 1.342339999999999804e+02 1.742264999999999873e+03
1.030000000000000082e-01 1.614499999999999824e-01 4.526975000000000193e+01 1.369689999999999941e+02 1.743434999999999945e+03
1.040000000000000091e-01 1.615889999999999826e-01 4.610240000000000293e+01 1.396700000000000159e+02 1.744599999999999909e+03
1.050000000000000100e-01 1.617259999999999809e-01 4.688639999999999475e+01 1.423199999999999932e+02 1.745740000000000009e+03
1.059999999999999970e-01 1.618605000000000183e-01 4.761619999999999919e+01 1.448994999999999891e+02 1.746869999999999891e+03
1.069999999999999979e-01 1.619919999999999971e-01 4.828520000000000323e+01 1.473899999999999864e+02 1.747970000000000027e+03
1.079999999999999988e-01 1.621194999999999997e-01 4.888639999999999475e+01 1.497690000000000055e+02 1.749034999999999854e+03
1.089999999999999997e-01 1.622415000000000107e-01 4.941259999999999764e+01 1.520169999999999959e+02 1.750065000000000055e+03
1.100000000000000006e-01 1.623580000000000023e-01 4.985670000000000357e+01 1.541144999999999925e+02 1.751045000000000073e+03
1.110000000000000014e-01 1.624680000000000013e-01 5.021224999999999739e+01 1.560455000000000041e+02 1.751969999999999800e+03
1.120000000000000023e-01 1.625699999999999923e-01 5.047339999999999804e+01 1.577930000000000064e+02 1.752829999999999927e+03
1.130000000000000032e-01 1.626635000000000164e-01 5.063544999999999874e+01 1.593464999999999918e+02 1.753625000000000000e+03
1.140000000000000041e-01 1.627484999999999904e-01 5.069504999999999484e+01 1.606960000000000264e+02 1.754344999999999800e+03
1.150000000000000050e-01 1.628235000000000099e-01 5.065005000000000024e+01 1.618375000000000057e+02 1.754984999999999900e+03
1.160000000000000059e-01 1.628895000000000204e-01 5.050000000000000000e+01 1.627680000000000007e+02 1.755549999999999955e+03
1.170000000000000068e-01 1.629454999999999931e-01 5.024609999999999843e+01 1.634895000000000209e+02 1.756030000000000200e+03
1.180000000000000077e-01 1.629915000000000114e-01 4.989104999999999990e+01 1.640074999999999932e+02 1.756430000000000064e+03
1.190000000000000085e-01 1.630280000000000062e-01 4.943930000000000291e+01 1.643305000000000007e+02 1.756740000000000009e+03
1.200000000000000094e-01 1.630544999999999911e-01 4.889674999999999727e+01 1.644689999999999941e+02 1.756980000000000018e+03
1.209999999999999964e-01 1.630725000000000091e-01 4.827074999999999960e+01 1.644385000000000048e+02 1.757139999999999873e+03
1.219999999999999973e-01 1.630820000000000047e-01 4.756985000000000241e+01 1.642545000000000073e+02 1.757230000000000018e+03
1.229999999999999982e-01 1.630829999999999780e-01 4.680360000000000298e+01 1.639359999999999786e+02 1.757250000000000000e+03
1.239999999999999991e-01 1.630785000000000151e-01 4.598220000000000596e+01 1.635029999999999859e+02 1.757220000000000027e+03
1.250000000000000000e-01 1.630670000000000175e-01 4.511655000000000371e+01 1.629745000000000061e+02 1.757130000000000109e+03
1.260000000000000009e-01 1.630500000000000005e-01 4.421734999999999616e+01 1.623720000000000141e+02 1.756994999999999891e+03
1.270000000000000018e-01 1.630289999999999795e-01 4.329555000000000575e+01 1.617149999999999750e+02 1.756825000000000045e+03
1.280000000000000027e-01 1.630044999999999966e-01 4.236135000000000161e+01 1.610210000000000150e+02 1.756625000000000000e+03
1.290000000000000036e-01 1.629770000000000107e-01 4.142440000000000566e+01 1.603085000000000093e+02 1.756400000000000091e+03
1.300000000000000044e-01 1.629479999999999817e-01 4.049354999999999905e+01 1.595914999999999964e+02 1.756159999999999854e+03
1.310000000000000053e-01 1.629180000000000073e-01 3.957630000000000337e+01 1.588829999999999814e+02 1.755910000000000082e+03
1.320000000000000062e-01 1.628870000000000040e-01 3.867900000000000205e+01 1.581929999999999836e+02 1.755650000000000091e+03
1.330000000000000071e-01 1.628565000000000151e-01 3.780670000000000641e+01 1.575285000000000082e+02 1.755389999999999873e+03
1.340000000000000080e-01 1.628264999999999851e-01 3.696285000000000309e+01 1.568935000000000173e+02 1.755134999999999991e+03
1.350000000000000089e-01 1.627965000000000106e-01 3.614945000000000164e+01 1.562895000000000039e+02 1.754889999999999873e+03
1.360000000000000098e-01 1.627680000000000238e-01 3.536714999999999520e+01 1.557154999999999916e+02 1.754644999999999982e+03
1.370000000000000107e-01 1.627405000000000102e-01 3.461534999999999940e+01 1.551684999999999945e+02 1.754409999999999854e+03
1.380000000000000115e-01 1.627135000000000109e-01 3.389209999999999923e+01 1.546415000000000077e+02 1.754179999999999836e+03
1.390000000000000124e-01 1.626869999999999983e-01 3.319429999999999836e+01 1.541279999999999859e+02 1.753954999999999927e+03
1.400000000000000133e-01 1.626610000000000000e-01 3.251825000000000188e+01 1.536189999999999998e+02 1.753740000000000009e+03
1.410000000000000142e-01 1.626354999999999884e-01 3.185940000000000083e+01 1.531044999999999732e+02 1.753514999999999873e+03
1.420000000000000151e-01 1.626095000000000179e-01 3.121260000000000190e+01 1.525745000000000005e+02 1.753295000000000073e+03
1.430000000000000160e-01 1.625830000000000053e-01 3.057274999999999920e+01 1.520169999999999959e+02 1.753065000000000055e+03
1.440000000000000169e-01 1.625544999999999907e-01 2.993455000000000155e+01 1.514239999999999782e+02 1.752829999999999927e+03
1.450000000000000178e-01 1.625250000000000028e-01 2.929295000000000115e+01 1.507845000000000084e+02 1.752579999999999927e+03
1.459999999999999909e-01 1.624939999999999996e-01 2.864334999999999809e+01 1.500919999999999845e+02 1.752315000000000055e+03
1.469999999999999918e-01 1.624595000000000067e-01 2.798160000000000025e+01 1.493394999999999868e+02 1.752034999999999854e+03
1.479999999999999927e-01 1.624229999999999841e-01 2.730454999999999899e+01 1.485210000000000150e+02 1.751724999999999909e+03
1.489999999999999936e-01 1.623844999999999872e-01 2.660970000000000013e+01 1.476355000000000075e+02 1.751394999999999982e+03
1.499999999999999944e-01 1.623419999999999863e-01 2.589569999999999794e+01 1.466809999999999832e+02 1.751045000000000073e+03
1.509999999999999953e-01 1.622965000000000102e-01 2.516225000000000023e+01 1.456595000000000084e+02 1.750664999999999964e+03
1.519999999999999962e-01 1.622474999999999890e-01 2.441000000000000014e+01 1.445749999999999886e+02 1.750259999999999991e+03
1.529999999999999971e-01 1.621964999999999935e-01 2.364085000000000036e+01 1.434329999999999927e+02 1.749835000000000036e+03
1.539999999999999980e-01 1.621424999999999950e-01 2.285774999999999935e+01 1.422420000000000186e+02 1.749380000000000109e+03
1.549999999999999989e-01 1.620860000000000078e-01 2.206439999999999912e+01 1.410115000000000123e+02 1.748910000000000082e+03
1.559999999999999998e-01 1.620274999999999910e-01 2.126545000000000130e+01 1.397520000000000095e+02 1.748430000000000064e+03
1.570000000000000007e-01 1.619674999999999865e-01 2.046620000000000061e+01 1.384770000000000039e+02 1.747925000000000182e+03
1.580000000000000016e-01 1.619065000000000087e-01 1.967245000000000132e+01 1.371985000000000241e+02 1.747420000000000073e+03
1.590000000000000024e-01 1.618450000000000166e-01 1.889025000000000176e+01 1.359300000000000068e+02 1.746905000000000200e+03
