# t [s], A [cm^2], U [cm/s], P [cPa], c [cm/s]
1.000000000000000021e-03 7.051304999999999934e-01 8.501000000000001611e-03 1.092535000000000025e+02 1.821500000000000000e+03
2.000000000000000042e-03 7.051184999999999814e-01 -5.777149999999999126e-04 1.092134999999999962e+02 1.821494999999999891e+03
3.000000000000000062e-03 7.051905000000000534e-01 1.323819999999999997e-01 1.093789999999999907e+02 1.821525000000000091e+03
4.000000000000000083e-03 7.052275000000000071e-01 2.248356999999999994e-01 1.094929999999999950e+02 1.821550000000000182e+03
5.000000000000000104e-03 7.051555000000000462e-01 1.347684999999999855e-01 1.092845000000000084e+02 1.821514999999999873e+03
6.000000000000000125e-03 7.050745000000000484e-01 1.823849999999999083e-02 1.089294999999999902e+02 1.821440000000000055e+03
7.000000000000000146e-03 7.049914999999999932e-01 -1.169849999999998946e-01 1.084849999999999994e+02 1.821339999999999918e+03
8.000000000000000167e-03 7.048319999999999030e-01 -4.138150000000000439e-01 1.077530000000000001e+02 1.821184999999999945e+03
9.000000000000001055e-03 7.045974999999999877e-01 -8.733649999999999469e-01 1.066744999999999948e+02 1.820964999999999918e+03
1.000000000000000194e-02 7.042680000000000051e-01 -1.516760000000000108e+00 1.051655000000000086e+02 1.820644999999999982e+03
1.099999999999999936e-02 7.038149999999999684e-01 -2.376800000000000246e+00 1.031083500000000015e+02 1.820204999999999927e+03
1.200000000000000025e-02 7.032834999999999503e-01 -3.339694999999999858e+00 1.005904999999999916e+02 1.819659999999999854e+03
1.300000000000000114e-02 7.027860000000000218e-01 -4.154259500000000216e+00 9.795449999999999591e+01 1.819065000000000055e+03
1.400000000000000203e-02 7.024144999999999417e-01 -4.596531000000000589e+00 9.558499999999999375e+01 1.818494999999999891e+03
1.499999999999999944e-02 7.021824999999999317e-01 -4.592234999999999623e+00 9.368665000000000020e+01 1.818009999999999991e+03
1.600000000000000033e-02 7.020349999999999646e-01 -4.221334999999999837e+00 9.221774999999999523e+01 1.817594999999999800e+03
1.700000000000000122e-02 7.018874999999999975e-01 -3.647920000000000051e+00 9.095820000000000505e+01 1.817230000000000018e+03
1.800000000000000211e-02 7.016685000000000283e-01 -3.032623000000000069e+00 8.963935000000000741e+01 1.816849999999999909e+03
1.900000000000000300e-02 7.013494999999999591e-01 -2.465529499999999707e+00 8.807070000000000221e+01 1.816429999999999836e+03
2.000000000000000042e-02 7.009505000000000319e-01 -1.942335000000000145e+00 8.621254999999999313e+01 1.815945000000000164e+03
2.100000000000000130e-02 7.005209999999999493e-01 -1.389964999999999895e+00 8.416804999999999382e+01 1.815424999999999955e+03
2.200000000000000219e-02 7.001129999999999853e-01 -7.235049999999998427e-01 8.210730000000000928e+01 1.814889999999999873e+03
2.299999999999999961e-02 6.997535000000000283e-01 9.820500000000009777e-02 8.017144999999999300e+01 1.814375000000000000e+03
2.400000000000000050e-02 6.994350000000000289e-01 1.042740000000000000e+00 7.840165000000000362e+01 1.813894999999999982e+03
2.500000000000000139e-02 6.991175000000000583e-01 2.005984999999999907e+00 7.671545000000000414e+01 1.813429999999999836e+03
2.600000000000000228e-02 6.987440000000000317e-01 2.839255000000000528e+00 7.492964999999999520e+01 1.812950000000000045e+03
2.700000000000000316e-02 6.982595000000000329e-01 3.391634999999999955e+00 7.281835000000000946e+01 1.812409999999999854e+03
2.800000000000000058e-02 6.976314999999999600e-01 3.555754999999999999e+00 7.019079999999999586e+01 1.811775000000000091e+03
2.900000000000000147e-02 6.968600000000000350e-01 3.302620000000000111e+00 6.696334999999999127e+01 1.811019999999999982e+03
3.000000000000000236e-02 6.959839999999999360e-01 2.690539999999999932e+00 6.319785000000000252e+01 1.810144999999999982e+03
3.099999999999999978e-02 6.950680000000000192e-01 1.845410000000000217e+00 5.909170000000000300e+01 1.809184999999999945e+03
3.200000000000000067e-02 6.941839999999999122e-01 9.222950000000000870e-01 5.492710000000000292e+01 1.808210000000000036e+03
3.300000000000000155e-02 6.933949999999999836e-01 6.691999999999964643e-02 5.100529999999999831e+01 1.807264999999999873e+03
3.400000000000000244e-02 6.927459999999999729e-01 -6.101049999999998974e-01 4.759019999999999584e+01 1.806414999999999964e+03
3.500000000000000333e-02 6.922610000000000152e-01 -1.043130000000000113e+00 4.487314999999999543e+01 1.805710000000000036e+03
3.600000000000000422e-02 6.919440000000000035e-01 -1.207905000000000006e+00 4.296120000000000516e+01 1.805180000000000064e+03
3.700000000000000511e-02 6.917895000000000572e-01 -1.109639999999999960e+00 4.188434999999999775e+01 1.804835000000000036e+03
3.799999999999999906e-02 6.917820000000000080e-01 -7.675524999999999709e-01 4.161700000000000443e+01 1.804680000000000064e+03
3.899999999999999994e-02 6.919100000000000250e-01 -2.007200000000000095e-01 4.210415000000000418e+01 1.804714999999999918e+03
4.000000000000000083e-02 6.921625000000000139e-01 5.811350000000001792e-01 4.328555000000000064e+01 1.804914999999999964e+03
4.100000000000000172e-02 6.925360000000000404e-01 1.579594999999999860e+00 4.511025000000000063e+01 1.805279999999999973e+03
4.200000000000000261e-02 6.930264999999999898e-01 2.802750000000000075e+00 4.753999999999999915e+01 1.805800000000000182e+03
4.300000000000000350e-02 6.936314999999999564e-01 4.256565000000000154e+00 5.054220000000000113e+01 1.806460000000000036e+03
4.400000000000000439e-02 6.943435000000000024e-01 5.936314999999999564e+00 5.407829999999999870e+01 1.807259999999999991e+03
4.499999999999999833e-02 6.951505000000000045e-01 7.821199499999998750e+00 5.809340000000000259e+01 1.808174999999999955e+03
4.599999999999999922e-02 6.960319999999999840e-01 9.873405999999999239e+00 6.251115000000000066e+01 1.809195000000000164e+03
4.700000000000000011e-02 6.969670000000000032e-01 1.204161999999999999e+01 6.723440000000000794e+01 1.810304999999999836e+03
4.800000000000000100e-02 6.979279999999999928e-01 1.426680999999999955e+01 7.215234999999999843e+01 1.811470000000000027e+03
4.900000000000000189e-02 6.988940000000000152e-01 1.648963499999999982e+01 7.715049999999999386e+01 1.812670000000000073e+03
5.000000000000000278e-02 6.998435000000000628e-01 1.865657999999999817e+01 8.212184999999999491e+01 1.813880000000000109e+03
5.100000000000000366e-02 7.007615000000000371e-01 2.072469999999999857e+01 8.697745000000000459e+01 1.815074999999999818e+03
5.200000000000000455e-02 7.016385000000000538e-01 2.266385000000000005e+01 9.165035000000000309e+01 1.816244999999999891e+03
5.300000000000000544e-02 7.024714999999999154e-01 2.445664999999999978e+01 9.610085000000000832e+01 1.817369999999999891e+03
5.399999999999999939e-02 7.032599999999999962e-01 2.609694999999999965e+01 1.003145999999999987e+02 1.818450000000000045e+03
5.500000000000000028e-02 7.040094999999999548e-01 2.758739999999999881e+01 1.042983499999999992e+02 1.819474999999999909e+03
5.600000000000000117e-02 7.047244999999999759e-01 2.893699999999999761e+01 1.080743999999999971e+02 1.820460000000000036e+03
5.700000000000000205e-02 7.054145000000000554e-01 3.015905000000000058e+01 1.116784999999999997e+02 1.821394999999999982e+03
5.800000000000000294e-02 7.060864999999999503e-01 3.126885000000000048e+01 1.151504999999999939e+02 1.822305000000000064e+03
5.900000000000000383e-02 7.067479999999999318e-01 3.228255000000000052e+01 1.185319999999999965e+02 1.823190000000000055e+03
6.000000000000000472e-02 7.074059999999999793e-01 3.321540000000000248e+01 1.218619999999999948e+02 1.824055000000000064e+03
6.099999999999999867e-02 7.080649999999999444e-01 3.407994999999999663e+01 1.251719999999999970e+02 1.824909999999999854e+03
6.199999999999999956e-02 7.087280000000000246e-01 3.488490000000000180e+01 1.284815000000000111e+02 1.825764999999999873e+03
6.300000000000000044e-02 7.093935000000000102e-01 3.563410000000000366e+01 1.317965000000000089e+02 1.826619999999999891e+03
6.400000000000000133e-02 7.100589999999999957e-01 3.632585000000000264e+01 1.351089999999999804e+02 1.827474999999999909e+03
6.500000000000000222e-02 7.107175000000000020e-01 3.695354999999999990e+01 1.383965000000000032e+02 1.828319999999999936e+03
6.600000000000000311e-02 7.113620000000000498e-01 3.750659999999999883e+01 1.416250000000000000e+02 1.829154999999999973e+03
6.700000000000000400e-02 7.119830000000000325e-01 3.797200000000000131e+01 1.447510000000000048e+02 1.829965000000000146e+03
6.800000000000000488e-02 7.125709999999999544e-01 3.833610000000000184e+01 1.477284999999999968e+02 1.830744999999999891e+03
6.900000000000000577e-02 7.131175000000000708e-01 3.858615000000000350e+01 1.505115000000000123e+02 1.831480000000000018e+03
7.000000000000000666e-02 7.136145000000000405e-01 3.871159999999999712e+01 1.530579999999999927e+02 1.832159999999999854e+03
7.100000000000000755e-02 7.140565000000000939e-01 3.870504999999999995e+01 1.553334999999999866e+02 1.832769999999999982e+03
7.200000000000000844e-02 7.144395000000000051e-01 3.856265000000000498e+01 1.573125000000000000e+02 1.833315000000000055e+03
7.300000000000000933e-02 7.147609999999999797e-01 3.828430000000000177e+01 1.589800000000000182e+02 1.833785000000000082e+03
7.399999999999999634e-02 7.150220000000000464e-01 3.787349999999999994e+01 1.603309999999999889e+02 1.834174999999999955e+03
7.499999999999999722e-02 7.152229999999999421e-01 3.733719999999999573e+01 1.613700000000000045e+02 1.834490000000000009e+03
7.599999999999999811e-02 7.153685000000000738e-01 3.668560000000000088e+01 1.621119999999999948e+02 1.834724999999999909e+03
7.699999999999999900e-02 7.154625000000000012e-01 3.593179999999999552e+01 1.625790000000000077e+02 1.834894999999999982e+03
7.799999999999999989e-02 7.155110000000000081e-01 3.509134999999999849e+01 1.628000000000000114e+02 1.834994999999999891e+03
7.900000000000000078e-02 7.155210000000000736e-01 3.418189999999999884e+01 1.628089999999999975e+02 1.835045000000000073e+03
8.000000000000000167e-02 7.155000000000000249e-01 3.322235000000000582e+01 1.626444999999999936e+02 1.835039999999999964e+03
8.100000000000000255e-02 7.154549999999999521e-01 3.223225000000000051e+01 1.623455000000000155e+02 1.835000000000000000e+03
8.200000000000000344e-02 7.153944999999999332e-01 3.123094999999999999e+01 1.619530000000000030e+02 1.834929999999999836e+03
8.300000000000000433e-02 7.153255000000000585e-01 3.023639999999999617e+01 1.615045000000000073e+02 1.834835000000000036e+03
8.400000000000000522e-02 7.152540000000000564e-01 2.926459999999999795e+01 1.610345000000000084e+02 1.834735000000000127e+03
8.500000000000000611e-02 7.151855000000000295e-01 2.832840000000000202e+01 1.605720000000000027e+02 1.834625000000000000e+03
8.600000000000000699e-02 7.151224999999999943e-01 2.743735000000000213e+01 1.601394999999999982e+02 1.834525000000000091e+03
8.700000000000000788e-02 7.150670000000000082e-01 2.659689999999999799e+01 1.597504999999999882e+02 1.834424999999999955e+03
8.800000000000000877e-02 7.150199999999999889e-01 2.580870000000000175e+01 1.594114999999999895e+02 1.834335000000000036e+03
8.899999999999999578e-02 7.149810000000000887e-01 2.507039999999999935e+01 1.591220000000000141e+02 1.834255000000000109e+03
8.999999999999999667e-02 7.149464999999999293e-01 2.437675000000000125e+01 1.588729999999999905e+02 1.834184999999999945e+03
9.099999999999999756e-02 7.149140000000000494e-01 2.371965000000000146e+01 1.586500000000000057e+02 1.834119999999999891e+03
9.199999999999999845e-02 7.148795000000000011e-01 2.308905000000000030e+01 1.584354999999999905e+02 1.834054999999999836e+03
9.299999999999999933e-02 7.148399999999999199e-01 2.247379999999999711e+01 1.582090000000000032e+02 1.833994999999999891e+03
9.400000000000000022e-02 7.147890000000000077e-01 2.186240000000000094e+01 1.579479999999999791e+02 1.833924999999999955e+03
9.500000000000000111e-02 7.147240000000000260e-01 2.124344999999999928e+01 1.576310000000000002e+02 1.833840000000000146e+03
9.600000000000000200e-02 7.146419999999999995e-01 2.060679999999999978e+01 1.572390000000000043e+02 1.833744999999999891e+03
9.700000000000000289e-02 7.145399999999999530e-01 1.994379999999999953e+01 1.567560000000000002e+02 1.833630000000000109e+03
9.800000000000000377e-02 7.144159999999999400e-01 1.924794999999999945e+01 1.561694999999999993e+02 1.833490000000000009e+03
9.900000000000000466e-02 7.142695000000000016e-01 1.851559999999999917e+01 1.554755000000000109e+02 1.833325000000000045e+03
1.000000000000000056e-01 7.141020000000000145e-01 1.774615000000000009e+01 1.546725000000000136e+02 1.833130000000000109e+03
1.010000000000000064e-01 7.139145000000000074e-01 1.694194999999999851e+01 1.537680000000000007e+02 1.832914999999999964e+03
1.020000000000000073e-01 7.137109999999999843e-01 1.610845000000000127e+01 1.527750000000000057e+02 1.832680000000000064e+03
1.030000000000000082e-01 7.134964999999999780e-01 1.525404999999999944e+01 1.517125000000000057e+02 1.832420000000000073e+03
1.040000000000000091e-01 7.132739999999999636e-01 1.438930500000000023e+01 1.506025000000000205e+02 1.832154999999999973e+03
1.050000000000000100e-01 7.130514999999999493e-01 1.352648500000000098e+01 1.494735000000000014e+02 1.831875000000000000e+03
1.059999999999999970e-01 7.128324999999999800e-01 1.267885499999999865e+01 1.483539999999999850e+02 1.831595000000000027e+03
1.069999999999999979e-01 7.126250000000000639e-01 1.185988500000000023e+01 1.472719999999999914e+02 1.831329999999999927e+03
1.079999999999999988e-01 7.124325000000000241e-01 1.108247000000000071e+01 1.462570000000000050e+02 1.831069999999999936e+03
1.089999999999999997e-01 7.122604999999999631e-01 1.035819000000000045e+01 1.453329999999999984e+02 1.830825000000000045e+03
1.100000000000000006e-01 7.121124999999999261e-01 9.696854999999999336e+00 1.445210000000000150e+02 1.830615000000000009e+03
1.110000000000000014e-01 7.119900000000000118e-01 9.105885000000000673e+00 1.438369999999999891e+02 1.830429999999999836e+03
1.120000000000000023e-01 7.118955000000000144e-01 8.589925000000000921e+00 1.432905000000000086e+02 1.830275000000000091e+03
1.130000000000000032e-01 7.118284999999999751e-01 8.150985000000000369e+00 1.428840000000000146e+02 1.830154999999999973e+03
1.140000000000000041e-01 7.117884999999999351e-01 7.788174999999999848e+00 1.426159999999999854e+02 1.830065000000000055e+03
1.150000000000000050e-01 7.117720000000000713e-01 7.498084999999999667e+00 1.424775000000000205e+02 1.830014999999999873e+03
1.160000000000000059e-01 7.117774999999999519e-01 7.275089999999999613e+00 1.424555000000000007e+02 1.829985000000000127e+03
1.170000000000000068e-01 7.117999999999999883e-01 7.111790000000000056e+00 1.425330000000000155e+02 1.829980000000000018e+03
1.180000000000000077e-01 7.118360000000000243e-01 6.999550000000000161e+00 1.426910000000000025e+02 1.830005000000000109e+03
1.190000000000000085e-01 7.118819999999999037e-01 6.929024999999999324e+00 1.429094999999999800e+02 1.830045000000000073e+03
1.200000000000000094e-01 7.119334999999999969e-01 6.890649999999999942e+00 1.431664999999999850e+02 1.830095000000000027e+03
1.209999999999999964e-01 7.119874999999999954e-01 6.875135000000000218e+00 1.434435000000000002e+02 1.830150000000000091e+03
1.219999999999999973e-01 7.120394999999999364e-01 6.873749999999999361e+00 1.437235000000000014e+02 1.830210000000000036e+03
1.229999999999999982e-01 7.120889999999999720e-01 6.878664999999999807e+00 1.439900000000000091e+02 1.830275000000000091e+03
1.239999999999999991e-01 7.121314999999999173e-01 6.883104999999999585e+00 1.442315000000000111e+02 1.830329999999999927e+03
1.250000000000000000e-01 7.121674999999999534e-01 6.881450000000000067e+00 1.444385000000000048e+02 1.830375000000000000e+03
1.260000000000000009e-01 7.121945000000000636e-01 6.869279999999999831e+00 1.446055000000000064e+02 1.830420000000000073e+03
1.270000000000000018e-01 7.122135000000000549e-01 6.843404999999999738e+00 1.447274999999999920e+02 1.830454999999999927e+03
1.280000000000000027e-01 7.122239999999999682e-01 6.801774999999999238e+00 1.448040000000000020e+02 1.830474999999999909e+03
1.290000000000000036e-01 7.122254999999999558e-01 6.743454999999999977e+00 1.448369999999999891e+02 1.830490000000000009e+03
1.300000000000000044e-01 7.122200000000000752e-01 6.668509999999999494e+00 1.448285000000000196e+02 1.830490000000000009e+03
1.310000000000000053e-01 7.122074999999999934e-01 6.577914999999999957e+00 1.447835000000000036e+02 1.830485000000000127e+03
1.320000000000000062e-01 7.121904999999999486e-01 6.473425000000000651e+00 1.447069999999999936e+02 1.830474999999999909e+03
1.330000000000000071e-01 7.121690000000000520e-01 6.357385000000000730e+00 1.446064999999999827e+02 1.830450000000000045e+03
1.340000000000000080e-01 7.121444999999999581e-01 6.232540000000000191e+00 1.444870000000000232e+02 1.830424999999999955e+03
1.350000000000000089e-01 7.121195000000000164e-01 6.101874999999999716e+00 1.443565000000000111e+02 1.830394999999999982e+03
1.360000000000000098e-01 7.120935000000000459e-01 5.968339999999999534e+00 1.442210000000000036e+02 1.830365000000000009e+03
1.370000000000000107e-01 7.120680000000000343e-01 5.834704999999999586e+00 1.440849999999999795e+02 1.830335000000000036e+03
1.380000000000000115e-01 7.120440000000000103e-01 5.703319999999999723e+00 1.439534999999999911e+02 1.830305000000000064e+03
1.390000000000000124e-01 7.120220000000000438e-01 5.576029999999999376e+00 1.438290000000000077e+02 1.830275000000000091e+03
1.400000000000000133e-01 7.120020000000000238e-01 5.454064999999999941e+00 1.437130000000000223e+02 1.830244999999999891e+03
1.410000000000000142e-01 7.119834999999999914e-01 5.338025000000000020e+00 1.436049999999999898e+02 1.830220000000000027e+03
1.420000000000000151e-01 7.119659999999999878e-01 5.227920000000000122e+00 1.435045000000000073e+02 1.830195000000000164e+03
1.430000000000000160e-01 7.119490000000000540e-01 5.123255000000000337e+00 1.434070000000000107e+02 1.830164999999999964e+03
1.440000000000000169e-01 7.119320000000000093e-01 5.023200000000000109e+00 1.433100000000000023e+02 1.830139999999999873e+03
1.450000000000000178e-01 7.119134999999999769e-01 4.926700000000000301e+00 1.432100000000000080e+02 1.830115000000000009e+03
1.459999999999999909e-01 7.118929999999999980e-01 4.832690000000000374e+00 1.431020000000000039e+02 1.830090000000000146e+03
1.469999999999999918e-01 7.118705000000000727e-01 4.740240000000000009e+00 1.429834999999999923e+02 1.830059999999999945e+03
1.479999999999999927e-01 7.118450000000000610e-01 4.648665000000000269e+00 1.428514999999999873e+02 1.830029999999999973e+03
1.489999999999999936e-01 7.118160000000000043e-01 4.557644999999999946e+00 1.427049999999999841e+02 1.829990000000000009e+03
1.499999999999999944e-01 7.117839999999999723e-01 4.467270000000000074e+00 1.425434999999999945e+02 1.829950000000000045e+03
1.509999999999999953e-01 7.117495000000000349e-01 4.378059999999999619e+00 1.423670000000000186e+02 1.829909999999999854e+03
1.519999999999999962e-01 7.117124999999999702e-01 4.290974999999999540e+00 1.421790000000000020e+02 1.829865000000000009e+03
1.529999999999999971e-01 7.116744999999999877e-01 4.207349999999999923e+00 1.419825000000000159e+02 1.829809999999999945e+03
1.539999999999999980e-01 7.116354999999999764e-01 4.128840000000000288e+00 1.417819999999999823e+02 1.829764999999999873e+03
1.549999999999999989e-01 7.115974999999999939e-01 4.057389999999999830e+00 1.415835000000000150e+02 1.829710000000000036e+03
1.559999999999999998e-01 7.115609999999999991e-01 3.995095000000000063e+00 1.413919999999999959e+02 1.829664999999999964e+03
1.570000000000000007e-01 7.115275000000000905e-01 3.944160000000000110e+00 1.412139999999999986e+02 1.829619999999999891e+03
1.580000000000000016e-01 7.114979999999999638e-01 3.906789999999999985e+00 1.410564999999999998e+02 1.829575000000000045e+03
1.590000000000000024e-01 7.114745000000000097e-01 3.885064999999999991e+00 1.409245000000000232e+02 1.829539999999999964e+03
