# t [s], A [cm^2], U [cm/s], P [cPa], c [cm/s]
1.000000000000000021e-03 2.117355000000000209e-01 2.391010000000000080e-01 9.243750000000000000e+01 2.001595000000000027e+03
2.000000000000000042e-03 2.116899999999999893e-01 1.622781500000000099e+00 8.958959999999999013e+01 2.001279999999999973e+03
3.000000000000000062e-03 2.115509999999999891e-01 3.350345499999999976e+00 8.562954999999999472e+01 2.000389999999999873e+03
4.000000000000000083e-03 2.113524999999999987e-01 5.291775949999999895e+00 8.118495000000000061e+01 1.999134999999999991e+03
5.000000000000000104e-03 2.111339999999999884e-01 7.390464999999999840e+00 7.706440000000000623e+01 1.997764999999999873e+03
6.000000000000000125e-03 2.109194999999999820e-01 9.510080000000000311e+00 7.363994999999999891e+01 1.996434999999999945e+03
7.000000000000000146e-03 2.107180000000000164e-01 1.145355499999999971e+01 7.078419999999999845e+01 1.995204999999999927e+03
8.000000000000000167e-03 2.105325000000000113e-01 1.310402500000000003e+01 6.824885000000000446e+01 1.994095000000000027e+03
9.000000000000001055e-03 2.103665000000000118e-01 1.447301500000000019e+01 6.601349999999999341e+01 1.993110000000000127e+03
1.000000000000000194e-02 2.102249999999999952e-01 1.560065000000000168e+01 6.416365000000000407e+01 1.992284999999999854e+03
1.099999999999999936e-02 2.101085000000000036e-01 1.650670000000000215e+01 6.271164999999999878e+01 1.991619999999999891e+03
1.200000000000000025e-02 2.100155000000000216e-01 1.720575000000000188e+01 6.161409999999999343e+01 1.991090000000000146e+03
1.300000000000000114e-02 2.099435000000000051e-01 1.770725000000000193e+01 6.080020000000000380e+01 1.990684999999999945e+03
1.400000000000000203e-02 2.098869999999999902e-01 1.801425000000000054e+01 6.016509999999999536e+01 1.990380000000000109e+03
1.499999999999999944e-02 2.098420000000000007e-01 1.815234999999999843e+01 5.963190000000000168e+01 1.990139999999999873e+03
1.600000000000000033e-02 2.098089999999999955e-01 1.820279999999999987e+01 5.926279999999999859e+01 1.989970000000000027e+03
1.700000000000000122e-02 2.097930000000000073e-01 1.829310000000000258e+01 5.928920000000000101e+01 1.989900000000000091e+03
1.800000000000000211e-02 2.098054999999999781e-01 1.854330000000000211e+01 6.000019999999999953e+01 1.989985000000000127e+03
1.900000000000000300e-02 2.098514999999999964e-01 1.900590000000000046e+01 6.156184999999999974e+01 1.990259999999999991e+03
2.000000000000000042e-02 2.099330000000000085e-01 1.963790000000000191e+01 6.388994999999999891e+01 1.990730000000000018e+03
2.100000000000000130e-02 2.100394999999999901e-01 2.031794999999999973e+01 6.664605000000000246e+01 1.991355000000000018e+03
2.200000000000000219e-02 2.101554999999999951e-01 2.089320000000000022e+01 6.934665000000001100e+01 1.992045000000000073e+03
2.299999999999999961e-02 2.102634999999999921e-01 2.123299999999999699e+01 7.152420000000000755e+01 1.992695000000000164e+03
2.400000000000000050e-02 2.103484999999999938e-01 2.126850000000000307e+01 7.286979999999999791e+01 1.993214999999999918e+03
2.500000000000000139e-02 2.104024999999999923e-01 2.100589999999999691e+01 7.330879999999999086e+01 1.993559999999999945e+03
2.600000000000000228e-02 2.104245000000000143e-01 2.051285000000000025e+01 7.299035000000000650e+01 1.993710000000000036e+03
2.700000000000000316e-02 2.104214999999999836e-01 1.988705000000000211e+01 7.220564999999999145e+01 1.993714999999999918e+03
2.800000000000000058e-02 2.104039999999999799e-01 1.921999999999999886e+01 7.127309999999999945e+01 1.993619999999999891e+03
2.900000000000000147e-02 2.103800000000000114e-01 1.856950000000000145e+01 7.043420000000000414e+01 1.993480000000000018e+03
3.000000000000000236e-02 2.103575000000000028e-01 1.794885000000000019e+01 6.979380000000000450e+01 1.993349999999999909e+03
3.099999999999999978e-02 2.103375000000000106e-01 1.733295000000000030e+01 6.931649999999999068e+01 1.993230000000000018e+03
3.200000000000000067e-02 2.103169999999999762e-01 1.667660000000000053e+01 6.886969999999999459e+01 1.993115000000000009e+03
3.300000000000000155e-02 2.102935000000000221e-01 1.593795000000000073e+01 6.829425000000000523e+01 1.992974999999999909e+03
3.400000000000000244e-02 2.102614999999999901e-01 1.509870000000000090e+01 6.747565000000000168e+01 1.992789999999999964e+03
3.500000000000000333e-02 2.102195000000000036e-01 1.417684999999999995e+01 6.639664999999999395e+01 1.992549999999999955e+03
3.600000000000000422e-02 2.101695000000000091e-01 1.322674999999999912e+01 6.515590000000000259e+01 1.992264999999999873e+03
3.700000000000000511e-02 2.101164999999999838e-01 1.232874999999999943e+01 6.394874999999999687e+01 1.991954999999999927e+03
3.799999999999999906e-02 2.100690000000000057e-01 1.157000499999999832e+01 6.301699999999999591e+01 1.991674999999999955e+03
3.899999999999999994e-02 2.100370000000000015e-01 1.102295499999999961e+01 6.258400000000000318e+01 1.991474999999999909e+03
4.000000000000000083e-02 2.100270000000000192e-01 1.072804999999999964e+01 6.279464999999999719e+01 1.991409999999999854e+03
4.100000000000000172e-02 2.100434999999999941e-01 1.068424999999999869e+01 6.367650000000000432e+01 1.991485000000000127e+03
4.200000000000000261e-02 2.100850000000000217e-01 1.084970000000000034e+01 6.513114999999999100e+01 1.991715000000000146e+03
4.300000000000000350e-02 2.101474999999999871e-01 1.115050000000000097e+01 6.695449999999999591e+01 1.992069999999999936e+03
4.400000000000000439e-02 2.102224999999999788e-01 1.149510000000000076e+01 6.887780000000000769e+01 1.992505000000000109e+03
4.499999999999999833e-02 2.102990000000000137e-01 1.178974999999999973e+01 7.061719999999999686e+01 1.992945000000000164e+03
4.599999999999999922e-02 2.103665000000000118e-01 1.195230000000000103e+01 7.192050000000000409e+01 1.993345000000000027e+03
4.700000000000000011e-02 2.104155000000000053e-01 1.192149999999999999e+01 7.260200000000000387e+01 1.993634999999999991e+03
4.800000000000000100e-02 2.104385000000000006e-01 1.166185000000000116e+01 7.256039999999998713e+01 1.993779999999999973e+03
4.900000000000000189e-02 2.104325000000000223e-01 1.116300000000000026e+01 7.177975000000000705e+01 1.993759999999999991e+03
5.000000000000000278e-02 2.103959999999999997e-01 1.043579499999999882e+01 7.031659999999999400e+01 1.993559999999999945e+03
5.100000000000000366e-02 2.103315000000000046e-01 9.506199999999999761e+00 6.827779999999999916e+01 1.993190000000000055e+03
5.200000000000000455e-02 2.102424999999999988e-01 8.409164999999999779e+00 6.579679999999999040e+01 1.992675000000000182e+03
5.300000000000000544e-02 2.101345000000000018e-01 7.183230000000000004e+00 6.301215000000000543e+01 1.992039999999999964e+03
5.399999999999999939e-02 2.100110000000000032e-01 5.867055000000000575e+00 6.005284999999999229e+01 1.991320000000000164e+03
5.500000000000000028e-02 2.098789999999999822e-01 4.497964999999999769e+00 5.703059999999999974e+01 1.990545000000000073e+03
5.600000000000000117e-02 2.097424999999999984e-01 3.111937500000000245e+00 5.403969999999999629e+01 1.989744999999999891e+03
5.700000000000000205e-02 2.096055000000000001e-01 1.744410000000000016e+00 5.116060000000000230e+01 1.988934999999999945e+03
5.800000000000000294e-02 2.094725000000000059e-01 4.313649999999999984e-01 4.846609999999999729e+01 1.988154999999999973e+03
5.900000000000000383e-02 2.093470000000000053e-01 -7.900450000000001083e-01 4.602660000000000196e+01 1.987409999999999854e+03
6.000000000000000472e-02 2.092320000000000013e-01 -1.881612500000000132e+00 4.391349999999999909e+01 1.986724999999999909e+03
6.099999999999999867e-02 2.091319999999999846e-01 -2.805062500000000014e+00 4.219969999999999999e+01 1.986125000000000000e+03
6.199999999999999956e-02 2.090500000000000136e-01 -3.523785000000000167e+00 4.095664999999999623e+01 1.985634999999999991e+03
6.300000000000000044e-02 2.089894999999999947e-01 -4.005060000000000286e+00 4.025010000000000332e+01 1.985264999999999873e+03
6.400000000000000133e-02 2.089544999999999875e-01 -4.222335000000000171e+00 4.013370000000000459e+01 1.985035000000000082e+03
6.500000000000000222e-02 2.089455000000000062e-01 -4.157275000000000276e+00 4.064374999999999716e+01 1.984964999999999918e+03
6.600000000000000311e-02 2.089654999999999985e-01 -3.801235000000000142e+00 4.179469999999999885e+01 1.985065000000000055e+03
6.700000000000000400e-02 2.090140000000000053e-01 -3.155954999999999622e+00 4.357639999999999958e+01 1.985335000000000036e+03
6.800000000000000488e-02 2.090925000000000145e-01 -2.233519949999999810e+00 4.595449999999999591e+01 1.985775000000000091e+03
6.900000000000000577e-02 2.091974999999999807e-01 -1.055520000000000014e+00 4.887205000000000155e+01 1.986369999999999891e+03
7.000000000000000666e-02 2.093274999999999997e-01 3.482799999999999230e-01 5.225365000000000038e+01 1.987119999999999891e+03
7.100000000000000755e-02 2.094789999999999985e-01 1.941765000000000185e+00 5.601019999999999754e+01 1.988000000000000000e+03
7.200000000000000844e-02 2.096485000000000154e-01 3.684475500000000014e+00 6.004469999999999885e+01 1.988985000000000127e+03
7.300000000000000933e-02 2.098315000000000041e-01 5.533724999999999561e+00 6.425800000000000978e+01 1.990059999999999945e+03
7.399999999999999634e-02 2.100245000000000029e-01 7.446690000000000254e+00 6.855419999999999447e+01 1.991184999999999945e+03
7.499999999999999722e-02 2.102220000000000200e-01 9.382455000000000211e+00 7.284579999999999700e+01 1.992355000000000018e+03
7.599999999999999811e-02 2.104214999999999836e-01 1.130370500000000078e+01 7.705764999999999532e+01 1.993529999999999973e+03
7.699999999999999900e-02 2.106184999999999863e-01 1.317825999999999809e+01 8.113040000000000873e+01 1.994704999999999927e+03
7.799999999999999989e-02 2.108109999999999984e-01 1.498024999999999984e+01 8.502219999999999800e+01 1.995849999999999909e+03
7.900000000000000078e-02 2.109969999999999901e-01 1.669050000000000011e+01 8.870965000000001055e+01 1.996965000000000146e+03
8.000000000000000167e-02 2.111754999999999882e-01 1.829694999999999894e+01 9.218729999999999336e+01 1.998030000000000200e+03
8.100000000000000255e-02 2.113454999999999917e-01 1.979420000000000002e+01 9.546540000000000248e+01 1.999049999999999955e+03
8.200000000000000344e-02 2.115075000000000149e-01 2.118270000000000053e+01 9.856655000000000655e+01 2.000029999999999973e+03
8.300000000000000433e-02 2.116624999999999757e-01 2.246754999999999924e+01 1.015236000000000018e+02 2.000965000000000146e+03
8.400000000000000522e-02 2.118114999999999859e-01 2.365715000000000146e+01 1.043735499999999945e+02 2.001869999999999891e+03
8.500000000000000611e-02 2.119559999999999778e-01 2.476219999999999999e+01 1.071529999999999916e+02 2.002740000000000009e+03
8.600000000000000699e-02 2.120974999999999944e-01 2.579370000000000118e+01 1.098979999999999961e+02 2.003599999999999909e+03
8.700000000000000788e-02 2.122374999999999956e-01 2.676214999999999833e+01 1.126355000000000075e+02 2.004449999999999818e+03
8.800000000000000877e-02 2.123769999999999825e-01 2.767654999999999887e+01 1.153874999999999886e+02 2.005295000000000073e+03
8.899999999999999578e-02 2.125164999999999971e-01 2.854364999999999952e+01 1.181645000000000039e+02 2.006139999999999873e+03
8.999999999999999667e-02 2.126574999999999993e-01 2.936744999999999806e+01 1.209664999999999964e+02 2.006990000000000009e+03
9.099999999999999756e-02 2.127979999999999872e-01 3.014914999999999878e+01 1.237864999999999895e+02 2.007845000000000027e+03
9.199999999999999845e-02 2.129395000000000038e-01 3.088725000000000165e+01 1.266080000000000041e+02 2.008699999999999818e+03
9.299999999999999933e-02 2.130805000000000060e-01 3.157759999999999678e+01 1.294079999999999870e+02 2.009554999999999836e+03
9.400000000000000022e-02 2.132199999999999929e-01 3.221389999999999532e+01 1.321585000000000036e+02 2.010400000000000091e+03
9.500000000000000111e-02 2.133570000000000189e-01 3.278829999999999956e+01 1.348280000000000030e+02 2.011235000000000127e+03
9.600000000000000200e-02 2.134900000000000131e-01 3.329175000000000040e+01 1.373840000000000146e+02 2.012039999999999964e+03
9.700000000000000289e-02 2.136174999999999879e-01 3.371460000000000434e+01 1.397939999999999827e+02 2.012815000000000055e+03
9.800000000000000377e-02 2.137374999999999969e-01 3.404724999999999824e+01 1.420269999999999868e+02 2.013550000000000182e+03
9.900000000000000466e-02 2.138500000000000123e-01 3.428054999999999808e+01 1.440550000000000068e+02 2.014240000000000009e+03
1.000000000000000056e-01 2.139524999999999899e-01 3.440650000000000119e+01 1.458534999999999968e+02 2.014865000000000009e+03
1.010000000000000064e-01 2.140444999999999987e-01 3.441854999999999620e+01 1.474035000000000082e+02 2.015429999999999836e+03
1.020000000000000073e-01 2.141244999999999954e-01 3.431220000000000425e+01 1.486910000000000025e+02 2.015924999999999955e+03
1.030000000000000082e-01 2.141929999999999945e-01 3.408520000000000039e+01 1.497099999999999795e+02 2.016345000000000027e+03
1.040000000000000091e-01 2.142479999999999940e-01 3.373799999999999955e+01 1.504590000000000032e+02 2.016690000000000055e+03
1.050000000000000100e-01 2.142915000000000236e-01 3.327369999999999806e+01 1.509445000000000050e+02 2.016960000000000036e+03
1.059999999999999970e-01 2.143214999999999981e-01 3.269814999999999827e+01 1.511784999999999854e+02 2.017154999999999973e+03
1.069999999999999979e-01 2.143399999999999750e-01 3.201975000000000193e+01 1.511804999999999950e+02 2.017279999999999973e+03
1.079999999999999988e-01 2.143474999999999964e-01 3.124949999999999761e+01 1.509744999999999777e+02 2.017335000000000036e+03
1.089999999999999997e-01 2.143455000000000221e-01 3.040005000000000024e+01 1.505885000000000105e+02 2.017329999999999927e+03
1.100000000000000006e-01 2.143340000000000245e-01 2.948584999999999923e+01 1.500529999999999973e+02 2.017269999999999982e+03
1.110000000000000014e-01 2.143154999999999921e-01 2.852199999999999847e+01 1.494014999999999986e+02 2.017164999999999964e+03
1.120000000000000023e-01 2.142910000000000093e-01 2.752434999999999832e+01 1.486670000000000016e+02 2.017025000000000091e+03
1.130000000000000032e-01 2.142620000000000080e-01 2.650820000000000221e+01 1.478799999999999955e+02 2.016855000000000018e+03
1.140000000000000041e-01 2.142300000000000038e-01 2.548829999999999885e+01 1.470720000000000027e+02 2.016659999999999854e+03
1.150000000000000050e-01 2.141959999999999975e-01 2.447825000000000273e+01 1.462665000000000077e+02 2.016454999999999927e+03
1.160000000000000059e-01 2.141615000000000046e-01 2.348985000000000056e+01 1.454865000000000066e+02 2.016250000000000000e+03
1.170000000000000068e-01 2.141274999999999984e-01 2.253289999999999793e+01 1.447484999999999786e+02 2.016045000000000073e+03
1.180000000000000077e-01 2.140945000000000209e-01 2.161509999999999820e+01 1.440645000000000095e+02 2.015845000000000027e+03
1.190000000000000085e-01 2.140640000000000043e-01 2.074180000000000135e+01 1.434395000000000095e+02 2.015654999999999973e+03
1.200000000000000094e-01 2.140349999999999753e-01 1.991570000000000107e+01 1.428754999999999882e+02 2.015474999999999909e+03
1.209999999999999964e-01 2.140079999999999760e-01 1.913734999999999786e+01 1.423679999999999950e+02 2.015315000000000055e+03
1.219999999999999973e-01 2.139834999999999932e-01 1.840484999999999971e+01 1.419085000000000036e+02 2.015159999999999854e+03
1.229999999999999982e-01 2.139610000000000123e-01 1.771450000000000102e+01 1.414834999999999923e+02 2.015019999999999982e+03
1.239999999999999991e-01 2.139400000000000190e-01 1.706074999999999875e+01 1.410790000000000077e+02 2.014884999999999991e+03
1.250000000000000000e-01 2.139189999999999980e-01 1.643669999999999831e+01 1.406759999999999877e+02 2.014755000000000109e+03
1.260000000000000009e-01 2.138975000000000182e-01 1.583455000000000013e+01 1.402549999999999955e+02 2.014625000000000000e+03
1.270000000000000018e-01 2.138754999999999962e-01 1.524610000000000021e+01 1.397975000000000136e+02 2.014485000000000127e+03
1.280000000000000027e-01 2.138514999999999999e-01 1.466300000000000026e+01 1.392860000000000014e+02 2.014340000000000146e+03
1.290000000000000036e-01 2.138255000000000017e-01 1.407750000000000057e+01 1.387024999999999864e+02 2.014179999999999836e+03
1.300000000000000044e-01 2.137959999999999861e-01 1.348249999999999993e+01 1.380344999999999800e+02 2.013994999999999891e+03
1.310000000000000053e-01 2.137624999999999942e-01 1.287229999999999919e+01 1.372710000000000150e+02 2.013795000000000073e+03
1.320000000000000062e-01 2.137244999999999839e-01 1.224264999999999937e+01 1.364069999999999823e+02 2.013565000000000055e+03
1.330000000000000071e-01 2.136824999999999974e-01 1.159118499999999941e+01 1.354399999999999977e+02 2.013309999999999945e+03
1.340000000000000080e-01 2.136354999999999782e-01 1.091744500000000073e+01 1.343740000000000236e+02 2.013025000000000091e+03
1.350000000000000089e-01 2.135845000000000105e-01 1.022301000000000037e+01 1.332169999999999845e+02 2.012720000000000027e+03
1.360000000000000098e-01 2.135285000000000100e-01 9.511385000000000645e+00 1.319809999999999945e+02 2.012384999999999991e+03
1.370000000000000107e-01 2.134695000000000065e-01 8.787964999999999804e+00 1.306834999999999809e+02 2.012029999999999973e+03
1.380000000000000115e-01 2.134079999999999866e-01 8.059709999999999042e+00 1.293445000000000107e+02 2.011659999999999854e+03
1.390000000000000124e-01 2.133435000000000192e-01 7.334814999999998975e+00 1.279859999999999900e+02 2.011275000000000091e+03
1.400000000000000133e-01 2.132789999999999964e-01 6.622400000000000730e+00 1.266310000000000002e+02 2.010884999999999991e+03
1.410000000000000142e-01 2.132145000000000012e-01 5.932019999999999627e+00 1.253055000000000092e+02 2.010494999999999891e+03
1.420000000000000151e-01 2.131509999999999794e-01 5.273234999999999673e+00 1.240310000000000059e+02 2.010105000000000018e+03
1.430000000000000160e-01 2.130900000000000016e-01 4.655190000000000161e+00 1.228309999999999889e+02 2.009740000000000009e+03
1.440000000000000169e-01 2.130315000000000125e-01 4.086180000000000589e+00 1.217235000000000014e+02 2.009385000000000218e+03
1.450000000000000178e-01 2.129780000000000006e-01 3.573330000000000339e+00 1.207249999999999943e+02 2.009054999999999836e+03
1.459999999999999909e-01 2.129290000000000072e-01 3.122284999999999755e+00 1.198464999999999918e+02 2.008755000000000109e+03
1.469999999999999918e-01 2.128849999999999909e-01 2.737000000000000099e+00 1.190965000000000060e+02 2.008490000000000009e+03
1.479999999999999927e-01 2.128470000000000084e-01 2.419669999999999987e+00 1.184775000000000063e+02 2.008255000000000109e+03
1.489999999999999936e-01 2.128145000000000175e-01 2.170634999999999870e+00 1.179879999999999995e+02 2.008054999999999836e+03
1.499999999999999944e-01 2.127884999999999915e-01 1.988504999999999967e+00 1.176239999999999952e+02 2.007894999999999982e+03
1.509999999999999953e-01 2.127680000000000127e-01 1.870204999999999895e+00 1.173760000000000048e+02 2.007759999999999991e+03
1.519999999999999962e-01 2.127529999999999977e-01 1.811250000000000027e+00 1.172330000000000041e+02 2.007664999999999964e+03
1.529999999999999971e-01 2.127425000000000010e-01 1.805895000000000028e+00 1.171809999999999974e+02 2.007599999999999909e+03
1.539999999999999980e-01 2.127364999999999950e-01 1.847450000000000037e+00 1.172044999999999959e+02 2.007559999999999945e+03
1.549999999999999989e-01 2.127340000000000064e-01 1.928539999999999921e+00 1.172880000000000109e+02 2.007534999999999854e+03
1.559999999999999998e-01 2.127344999999999930e-01 2.041395000000000071e+00 1.174145000000000039e+02 2.007539999999999964e+03
1.570000000000000007e-01 2.127379999999999827e-01 2.178100000000000147e+00 1.175674999999999955e+02 2.007550000000000182e+03
1.580000000000000016e-01 2.127419999999999867e-01 2.330885000000000318e+00 1.177319999999999993e+02 2.007575000000000045e+03
1.590000000000000024e-01 2.127474999999999783e-01 2.492325000000000124e+00 1.178944999999999936e+02 2.007599999999999909e+03
