# t [s], A [cm^2], U [cm/s], P [cPa], c [cm/s]
1.000000000000000021e-03 1.647129999999999983e-01 4.391939499999999996e-01 1.024869500000000073e+02 2.092730000000000018e+03
2.000000000000000042e-03 1.646635000000000182e-01 2.164608499999999935e+00 9.862835000000001173e+01 2.092210000000000036e+03
3.000000000000000062e-03 1.645329999999999848e-01 4.245294000000000345e+00 9.347860000000000014e+01 2.090880000000000109e+03
4.000000000000000083e-03 1.643585000000000185e-01 6.565328000000000053e+00 8.814435000000000286e+01 2.089119999999999891e+03
5.000000000000000104e-03 1.641735000000000000e-01 9.024615000000000720e+00 8.357849999999999113e+01 2.087274999999999636e+03
6.000000000000000125e-03 1.639964999999999895e-01 1.139588499999999982e+01 7.991575000000000273e+01 2.085534999999999854e+03
7.000000000000000146e-03 1.638304999999999900e-01 1.346279999999999966e+01 7.676879999999999882e+01 2.083935000000000400e+03
8.000000000000000167e-03 1.636799999999999922e-01 1.518870000000000076e+01 7.395275000000000887e+01 2.082505000000000109e+03
9.000000000000001055e-03 1.635489999999999999e-01 1.662829999999999941e+01 7.157019999999999982e+01 2.081279999999999745e+03
1.000000000000000194e-02 1.634395000000000153e-01 1.780924999999999869e+01 6.965940000000000509e+01 2.080260000000000218e+03
1.099999999999999936e-02 1.633494999999999808e-01 1.874600000000000222e+01 6.815935000000000343e+01 2.079444999999999709e+03
1.200000000000000025e-02 1.632779999999999787e-01 1.945084999999999908e+01 6.698199999999999932e+01 2.078795000000000073e+03
1.300000000000000114e-02 1.632200000000000040e-01 1.992820000000000036e+01 6.600149999999999295e+01 2.078279999999999745e+03
1.400000000000000203e-02 1.631714999999999971e-01 2.021274999999999977e+01 6.513300000000000978e+01 2.077864999999999782e+03
1.499999999999999944e-02 1.631340000000000012e-01 2.041610000000000014e+01 6.450194999999999368e+01 2.077534999999999854e+03
1.600000000000000033e-02 1.631134999999999946e-01 2.070725000000000193e+01 6.447169999999999845e+01 2.077375000000000000e+03
1.700000000000000122e-02 1.631205000000000016e-01 2.122644999999999982e+01 6.543449999999999989e+01 2.077449999999999818e+03
1.800000000000000211e-02 1.631599999999999995e-01 2.200099999999999767e+01 6.752270000000000039e+01 2.077819999999999709e+03
1.900000000000000300e-02 1.632294999999999996e-01 2.292365000000000208e+01 7.045779999999999177e+01 2.078469999999999800e+03
2.000000000000000042e-02 1.633169999999999900e-01 2.379879999999999995e+01 7.362450000000001182e+01 2.079289999999999964e+03
2.100000000000000130e-02 1.634050000000000225e-01 2.442464999999999975e+01 7.630625000000000568e+01 2.080125000000000000e+03
2.200000000000000219e-02 1.634765000000000246e-01 2.466819999999999879e+01 7.794989999999999952e+01 2.080820000000000164e+03
2.299999999999999961e-02 1.635199999999999987e-01 2.450430000000000064e+01 7.834284999999999854e+01 2.081260000000000218e+03
2.400000000000000050e-02 1.635334999999999983e-01 2.400870000000000104e+01 7.764074999999999704e+01 2.081414999999999964e+03
2.500000000000000139e-02 1.635214999999999863e-01 2.331520000000000081e+01 7.625745000000000573e+01 2.081329999999999927e+03
2.600000000000000228e-02 1.634940000000000004e-01 2.255959999999999965e+01 7.467820000000000391e+01 2.081085000000000036e+03
2.700000000000000316e-02 1.634615000000000096e-01 2.183370000000000033e+01 7.328164999999999907e+01 2.080789999999999964e+03
2.800000000000000058e-02 1.634309999999999929e-01 2.116600000000000037e+01 7.223535000000001105e+01 2.080510000000000218e+03
2.900000000000000147e-02 1.634045000000000081e-01 2.052860000000000085e+01 7.148874999999999602e+01 2.080260000000000218e+03
3.000000000000000236e-02 1.633815000000000128e-01 1.986475000000000080e+01 7.084664999999999679e+01 2.080045000000000073e+03
3.099999999999999978e-02 1.633570000000000022e-01 1.912209999999999965e+01 7.008250000000001023e+01 2.079815000000000055e+03
3.200000000000000067e-02 1.633264999999999856e-01 1.828144999999999953e+01 6.904724999999999113e+01 2.079534999999999854e+03
3.300000000000000155e-02 1.632890000000000175e-01 1.737124999999999986e+01 6.774060000000000059e+01 2.079189999999999600e+03
3.400000000000000244e-02 1.632465000000000166e-01 1.646519999999999939e+01 6.632325000000000159e+01 2.078800000000000182e+03
3.500000000000000333e-02 1.632040000000000157e-01 1.566304999999999836e+01 6.507160000000000366e+01 2.078404999999999745e+03
3.600000000000000422e-02 1.631704999999999961e-01 1.506315000000000026e+01 6.429200000000000159e+01 2.078079999999999927e+03
3.700000000000000511e-02 1.631520000000000192e-01 1.473380000000000045e+01 6.422480000000000189e+01 2.077894999999999982e+03
3.799999999999999906e-02 1.631539999999999935e-01 1.469440000000000168e+01 6.496895000000000664e+01 2.077904999999999745e+03
3.899999999999999994e-02 1.631794999999999773e-01 1.490900000000000070e+01 6.644884999999999309e+01 2.078114999999999782e+03
4.000000000000000083e-02 1.632230000000000070e-01 1.529444999999999943e+01 6.842855000000000132e+01 2.078510000000000218e+03
4.100000000000000172e-02 1.632790000000000075e-01 1.573749999999999893e+01 7.056390000000000384e+01 2.079019999999999982e+03
4.200000000000000261e-02 1.633375000000000243e-01 1.611664999999999992e+01 7.247429999999999950e+01 2.079564999999999600e+03
4.300000000000000350e-02 1.633890000000000065e-01 1.632290000000000063e+01 7.381454999999999700e+01 2.080039999999999964e+03
4.400000000000000439e-02 1.634224999999999983e-01 1.627420000000000044e+01 7.432994999999999663e+01 2.080364999999999782e+03
4.499999999999999833e-02 1.634335000000000093e-01 1.592364999999999853e+01 7.388624999999998977e+01 2.080480000000000018e+03
4.599999999999999922e-02 1.634170000000000067e-01 1.525965000000000060e+01 7.247220000000000084e+01 2.080335000000000036e+03
4.700000000000000011e-02 1.633735000000000048e-01 1.430100000000000016e+01 7.018054999999999666e+01 2.079940000000000055e+03
4.800000000000000100e-02 1.633030000000000037e-01 1.308824999999999861e+01 6.717510000000000048e+01 2.079295000000000073e+03
4.900000000000000189e-02 1.632109999999999950e-01 1.167494999999999905e+01 6.365525000000000233e+01 2.078449999999999818e+03
5.000000000000000278e-02 1.631029999999999980e-01 1.012042999999999893e+01 5.982540000000000191e+01 2.077445000000000164e+03
5.100000000000000366e-02 1.629840000000000177e-01 8.484415000000000262e+00 5.587474999999999881e+01 2.076329999999999927e+03
5.200000000000000455e-02 1.628584999999999894e-01 6.825029999999999930e+00 5.196795000000000186e+01 2.075170000000000073e+03
5.300000000000000544e-02 1.627330000000000165e-01 5.198019999999999641e+00 4.824535000000000196e+01 2.073989999999999782e+03
5.399999999999999939e-02 1.626110000000000055e-01 3.657268200000000302e+00 4.482854999999999990e+01 2.072855000000000018e+03
5.500000000000000028e-02 1.624975000000000169e-01 2.255419999999999980e+00 4.182694999999999652e+01 2.071789999999999964e+03
5.600000000000000117e-02 1.623964999999999992e-01 1.043614999999999959e+00 3.934290000000000020e+01 2.070835000000000036e+03
5.700000000000000205e-02 1.623109999999999831e-01 7.033999999999984709e-02 3.747294999999999732e+01 2.070025000000000091e+03
5.800000000000000294e-02 1.622445000000000137e-01 -6.207050000000000622e-01 3.630504999999999427e+01 2.069394999999999982e+03
5.900000000000000383e-02 1.622010000000000118e-01 -9.932623500000000716e-01 3.591249999999999432e+01 2.068965000000000146e+03
6.000000000000000472e-02 1.621819999999999928e-01 -1.021398999999999946e+00 3.634680000000000177e+01 2.068769999999999982e+03
6.099999999999999867e-02 1.621900000000000008e-01 -6.917778500000000275e-01 3.763015000000000043e+01 2.068819999999999709e+03
6.199999999999999956e-02 1.622250000000000081e-01 -5.120000000000013429e-03 3.975140000000000384e+01 2.069119999999999891e+03
6.300000000000000044e-02 1.622875000000000012e-01 1.023559999999999803e+00 4.266400000000000148e+01 2.069675000000000182e+03
6.400000000000000133e-02 1.623755000000000059e-01 2.365860999999999770e+00 4.628835000000000122e+01 2.070474999999999909e+03
6.500000000000000222e-02 1.624869999999999925e-01 3.981991999999999976e+00 5.051735000000000042e+01 2.071494999999999891e+03
6.600000000000000311e-02 1.626195000000000002e-01 5.823439999999999728e+00 5.522395000000000209e+01 2.072710000000000036e+03
6.700000000000000400e-02 1.627679999999999960e-01 7.836084999999999745e+00 6.027030000000000598e+01 2.074085000000000036e+03
6.800000000000000488e-02 1.629295000000000049e-01 9.963440000000000296e+00 6.551659999999999684e+01 2.075585000000000036e+03
6.900000000000000577e-02 1.630989999999999940e-01 1.214956500000000084e+01 7.082984999999999332e+01 2.077164999999999964e+03
7.000000000000000666e-02 1.632724999999999871e-01 1.434215000000000018e+01 7.609094999999999231e+01 2.078789999999999964e+03
7.100000000000000755e-02 1.634464999999999946e-01 1.649479999999999791e+01 8.120050000000000523e+01 2.080429999999999836e+03
7.200000000000000844e-02 1.636170000000000124e-01 1.856879999999999953e+01 8.608295000000001096e+01 2.082045000000000073e+03
7.300000000000000933e-02 1.637824999999999975e-01 2.053474999999999895e+01 9.068899999999999295e+01 2.083614999999999782e+03
7.399999999999999634e-02 1.639404999999999890e-01 2.237315000000000254e+01 9.499609999999999843e+01 2.085119999999999891e+03
7.499999999999999722e-02 1.640909999999999869e-01 2.407450000000000045e+01 9.900724999999999909e+01 2.086555000000000291e+03
7.599999999999999811e-02 1.642330000000000179e-01 2.563864999999999839e+01 1.027471999999999923e+02 2.087914999999999964e+03
7.699999999999999900e-02 1.643674999999999997e-01 2.707339999999999947e+01 1.062601500000000101e+02 2.089199999999999818e+03
7.799999999999999989e-02 1.644950000000000023e-01 2.839305000000000234e+01 1.096004999999999967e+02 2.090430000000000291e+03
7.900000000000000078e-02 1.646174999999999999e-01 2.961580000000000013e+01 1.128290000000000077e+02 2.091614999999999782e+03
8.000000000000000167e-02 1.647365000000000079e-01 3.076215000000000188e+01 1.160080000000000098e+02 2.092764999999999873e+03
8.100000000000000255e-02 1.648540000000000005e-01 3.185224999999999795e+01 1.191905000000000001e+02 2.093890000000000327e+03
8.200000000000000344e-02 1.649704999999999921e-01 3.290390000000000015e+01 1.224205000000000041e+02 2.095019999999999982e+03
8.300000000000000433e-02 1.650889999999999858e-01 3.393139999999999645e+01 1.257259999999999991e+02 2.096159999999999854e+03
8.400000000000000522e-02 1.652080000000000215e-01 3.494409999999999883e+01 1.291210000000000093e+02 2.097309999999999945e+03
8.500000000000000611e-02 1.653304999999999914e-01 3.594604999999999961e+01 1.326005000000000109e+02 2.098484999999999673e+03
8.600000000000000699e-02 1.654545000000000043e-01 3.693540000000000134e+01 1.361435000000000173e+02 2.099689999999999600e+03
8.700000000000000788e-02 1.655800000000000050e-01 3.790540000000000020e+01 1.397155000000000200e+02 2.100894999999999982e+03
8.800000000000000877e-02 1.657059999999999922e-01 3.884459999999999980e+01 1.432715000000000032e+02 2.102114999999999782e+03
8.899999999999999578e-02 1.658310000000000062e-01 3.973789999999999623e+01 1.467580000000000098e+02 2.103319999999999709e+03
8.999999999999999667e-02 1.659534999999999760e-01 4.056804999999999950e+01 1.501184999999999832e+02 2.104510000000000218e+03
9.099999999999999756e-02 1.660714999999999830e-01 4.131640000000000157e+01 1.532955000000000041e+02 2.105654999999999745e+03
9.199999999999999845e-02 1.661839999999999984e-01 4.196444999999999936e+01 1.562344999999999970e+02 2.106744999999999891e+03
9.299999999999999933e-02 1.662885000000000058e-01 4.249484999999999957e+01 1.588865000000000123e+02 2.107765000000000327e+03
9.400000000000000022e-02 1.663840000000000041e-01 4.289244999999999663e+01 1.612110000000000127e+02 2.108695000000000164e+03
9.500000000000000111e-02 1.664684999999999915e-01 4.314515000000000100e+01 1.631784999999999854e+02 2.109525000000000091e+03
9.600000000000000200e-02 1.665419999999999956e-01 4.324455000000000382e+01 1.647680000000000007e+02 2.110239999999999782e+03
9.700000000000000289e-02 1.666024999999999867e-01 4.318670000000000186e+01 1.659710000000000036e+02 2.110845000000000255e+03
9.800000000000000377e-02 1.666505000000000070e-01 4.297175000000000011e+01 1.667925000000000182e+02 2.111324999999999818e+03
9.900000000000000466e-02 1.666865000000000152e-01 4.260475000000000279e+01 1.672459999999999809e+02 2.111684999999999945e+03
1.000000000000000056e-01 1.667095000000000105e-01 4.209475000000000477e+01 1.673575000000000159e+02 2.111925000000000182e+03
1.010000000000000064e-01 1.667214999999999947e-01 4.145479999999999876e+01 1.671605000000000132e+02 2.112055000000000291e+03
1.020000000000000073e-01 1.667230000000000101e-01 4.070125000000000171e+01 1.666970000000000027e+02 2.112085000000000036e+03
1.030000000000000082e-01 1.667150000000000021e-01 3.985294999999999987e+01 1.660124999999999886e+02 2.112014999999999873e+03
1.040000000000000091e-01 1.666995000000000005e-01 3.893035000000000423e+01 1.651554999999999893e+02 2.111880000000000109e+03
1.050000000000000100e-01 1.666779999999999928e-01 3.795465000000000089e+01 1.641765000000000043e+02 2.111675000000000182e+03
1.059999999999999970e-01 1.666504999999999792e-01 3.694704999999999728e+01 1.631225000000000023e+02 2.111425000000000182e+03
1.069999999999999979e-01 1.666205000000000047e-01 3.592749999999999488e+01 1.620374999999999943e+02 2.111135000000000218e+03
1.079999999999999988e-01 1.665885000000000005e-01 3.491414999999999935e+01 1.609610000000000127e+02 2.110829999999999927e+03
1.089999999999999997e-01 1.665559999999999818e-01 3.392280000000000229e+01 1.599234999999999900e+02 2.110515000000000327e+03
1.100000000000000006e-01 1.665240000000000054e-01 3.296620000000000061e+01 1.589499999999999886e+02 2.110204999999999927e+03
1.110000000000000014e-01 1.664930000000000021e-01 3.205369999999999919e+01 1.580550000000000068e+02 2.109900000000000091e+03
1.120000000000000023e-01 1.664640000000000009e-01 3.119109999999999872e+01 1.572475000000000023e+02 2.109619999999999891e+03
1.130000000000000032e-01 1.664370000000000016e-01 3.038080000000000069e+01 1.565244999999999891e+02 2.109350000000000364e+03
1.140000000000000041e-01 1.664114999999999900e-01 2.962154999999999916e+01 1.558790000000000191e+02 2.109105000000000018e+03
1.150000000000000050e-01 1.663890000000000091e-01 2.890910000000000224e+01 1.552939999999999827e+02 2.108880000000000109e+03
1.160000000000000059e-01 1.663680000000000159e-01 2.823655000000000115e+01 1.547489999999999952e+02 2.108670000000000073e+03
1.170000000000000068e-01 1.663474999999999815e-01 2.759469999999999956e+01 1.542195000000000107e+02 2.108470000000000255e+03
1.180000000000000077e-01 1.663275000000000170e-01 2.697305000000000064e+01 1.536759999999999877e+02 2.108275000000000091e+03
1.190000000000000085e-01 1.663074999999999970e-01 2.635999999999999943e+01 1.530920000000000130e+02 2.108069999999999709e+03
1.200000000000000094e-01 1.662855000000000028e-01 2.574399999999999977e+01 1.524385000000000048e+02 2.107860000000000127e+03
1.209999999999999964e-01 1.662615000000000065e-01 2.511399999999999721e+01 1.516909999999999741e+02 2.107625000000000000e+03
1.219999999999999973e-01 1.662339999999999929e-01 2.446010000000000062e+01 1.508269999999999982e+02 2.107364999999999782e+03
1.229999999999999982e-01 1.662039999999999906e-01 2.377434999999999832e+01 1.498324999999999818e+02 2.107069999999999709e+03
1.239999999999999991e-01 1.661690000000000111e-01 2.305100000000000193e+01 1.486965000000000146e+02 2.106734999999999673e+03
1.250000000000000000e-01 1.661299999999999999e-01 2.228694999999999737e+01 1.474175000000000182e+02 2.106350000000000364e+03
1.260000000000000009e-01 1.660864999999999980e-01 2.148210000000000264e+01 1.459990000000000236e+02 2.105930000000000291e+03
1.270000000000000018e-01 1.660380000000000189e-01 2.063925000000000054e+01 1.444535000000000196e+02 2.105470000000000255e+03
1.280000000000000027e-01 1.659859999999999947e-01 1.976389999999999958e+01 1.428009999999999877e+02 2.104970000000000255e+03
1.290000000000000036e-01 1.659304999999999808e-01 1.886444999999999794e+01 1.410649999999999977e+02 2.104435000000000400e+03
1.300000000000000044e-01 1.658720000000000194e-01 1.795115000000000194e+01 1.392764999999999986e+02 2.103875000000000000e+03
1.310000000000000053e-01 1.658115000000000006e-01 1.703620000000000090e+01 1.374669999999999845e+02 2.103295000000000073e+03
1.320000000000000062e-01 1.657509999999999817e-01 1.613279999999999959e+01 1.356720000000000255e+02 2.102710000000000036e+03
1.330000000000000071e-01 1.656894999999999896e-01 1.525444999999999851e+01 1.339270000000000209e+02 2.102119999999999891e+03
1.340000000000000080e-01 1.656305000000000138e-01 1.441454999999999842e+01 1.322640000000000100e+02 2.101550000000000182e+03
1.350000000000000089e-01 1.655729999999999980e-01 1.362545000000000073e+01 1.307144999999999868e+02 2.100994999999999891e+03
1.360000000000000098e-01 1.655200000000000005e-01 1.289825000000000088e+01 1.293025000000000091e+02 2.100480000000000018e+03
1.370000000000000107e-01 1.654700000000000060e-01 1.224210000000000065e+01 1.280494999999999948e+02 2.100000000000000000e+03
1.380000000000000115e-01 1.654255000000000031e-01 1.166364499999999893e+01 1.269685000000000059e+02 2.099565000000000055e+03
1.390000000000000124e-01 1.653860000000000052e-01 1.116739499999999907e+01 1.260685000000000002e+02 2.099184999999999945e+03
1.400000000000000133e-01 1.653530000000000000e-01 1.075513499999999922e+01 1.253499999999999943e+02 2.098849999999999909e+03
1.410000000000000142e-01 1.653255000000000141e-01 1.042605499999999985e+01 1.248085000000000093e+02 2.098579999999999927e+03
1.420000000000000151e-01 1.653034999999999921e-01 1.017726000000000042e+01 1.244339999999999975e+02 2.098364999999999782e+03
1.430000000000000160e-01 1.652870000000000172e-01 1.000347499999999989e+01 1.242115000000000009e+02 2.098199999999999818e+03
1.440000000000000169e-01 1.652754999999999919e-01 9.897874999999999091e+00 1.241235000000000070e+02 2.098079999999999927e+03
1.450000000000000178e-01 1.652684999999999849e-01 9.852129999999998944e+00 1.241490000000000009e+02 2.098005000000000109e+03
1.459999999999999909e-01 1.652655000000000096e-01 9.857075000000000031e+00 1.242655000000000030e+02 2.097974999999999909e+03
1.469999999999999918e-01 1.652660000000000240e-01 9.902924999999999756e+00 1.244514999999999958e+02 2.097970000000000255e+03
1.479999999999999927e-01 1.652689999999999992e-01 9.979710000000000747e+00 1.246835000000000093e+02 2.097989999999999782e+03
1.489999999999999936e-01 1.652740000000000042e-01 1.007770999999999972e+01 1.249414999999999907e+02 2.098034999999999854e+03
1.499999999999999944e-01 1.652794999999999959e-01 1.018765499999999946e+01 1.252060000000000031e+02 2.098090000000000146e+03
1.509999999999999953e-01 1.652865000000000029e-01 1.030132000000000048e+01 1.254609999999999985e+02 2.098150000000000091e+03
1.519999999999999962e-01 1.652930000000000232e-01 1.041125500000000059e+01 1.256920000000000073e+02 2.098210000000000036e+03
1.529999999999999971e-01 1.652994999999999881e-01 1.051135000000000019e+01 1.258884999999999934e+02 2.098269999999999982e+03
1.539999999999999980e-01 1.653044999999999931e-01 1.059690000000000154e+01 1.260434999999999945e+02 2.098324999999999818e+03
1.549999999999999989e-01 1.653094999999999981e-01 1.066440000000000055e+01 1.261529999999999916e+02 2.098364999999999782e+03
1.559999999999999998e-01 1.653129999999999877e-01 1.071189999999999998e+01 1.262150000000000034e+02 2.098394999999999982e+03
1.570000000000000007e-01 1.653145000000000031e-01 1.073870000000000147e+01 1.262315000000000111e+02 2.098420000000000073e+03
1.580000000000000016e-01 1.653149999999999897e-01 1.074525000000000041e+01 1.262065000000000055e+02 2.098425000000000182e+03
1.590000000000000024e-01 1.653149999999999897e-01 1.073315000000000019e+01 1.261460000000000008e+02 2.098425000000000182e+03
