# t [s], A [cm^2], U [cm/s], P [cPa], c [cm/s]
1.000000000000000021e-03 6.200974999999999682e-01 4.668849999999995226e-03 1.079000000000000057e+02 1.662235000000000127e+03
2.000000000000000042e-03 6.200920000000000876e-01 5.769899999999999682e-03 1.078770000000000095e+02 1.662224999999999909e+03
3.000000000000000062e-03 6.201570000000000693e-01 1.277541500000000108e-01 1.080150000000000006e+02 1.662264999999999873e+03
4.000000000000000083e-03 6.201929999999999943e-01 2.073084500000000052e-01 1.081179999999999950e+02 1.662295000000000073e+03
5.000000000000000104e-03 6.201495000000000202e-01 1.446610000000000118e-01 1.079929999999999950e+02 1.662269999999999982e+03
6.000000000000000125e-03 6.200835000000000097e-01 3.363100000000002199e-02 1.077139999999999986e+02 1.662200000000000045e+03
7.000000000000000146e-03 6.200124999999999664e-01 -9.635599999999999721e-02 1.073354999999999961e+02 1.662115000000000009e+03
8.000000000000000167e-03 6.198865000000000069e-01 -3.446299999999999919e-01 1.067334999999999923e+02 1.661970000000000027e+03
9.000000000000001055e-03 6.196895000000000042e-01 -7.415349999999999442e-01 1.058255000000000052e+02 1.661755000000000109e+03
1.000000000000000194e-02 6.194119999999999626e-01 -1.293724999999999792e+00 1.045519999999999925e+02 1.661450000000000045e+03
1.099999999999999936e-02 6.190314999999999568e-01 -2.023165000000000102e+00 1.028325499999999977e+02 1.661030000000000200e+03
1.200000000000000025e-02 6.185585000000000111e-01 -2.887294999999999945e+00 1.006655000000000086e+02 1.660485000000000127e+03
1.300000000000000114e-02 6.180535000000000334e-01 -3.736750000000000238e+00 9.821555000000000746e+01 1.659855000000000018e+03
1.400000000000000203e-02 6.175950000000000051e-01 -4.380247999999999919e+00 9.575800000000000978e+01 1.659194999999999936e+03
1.499999999999999944e-02 6.172345000000000192e-01 -4.681994150000000410e+00 9.354654999999999632e+01 1.658569999999999936e+03
1.600000000000000033e-02 6.169765000000000388e-01 -4.611691500000000055e+00 9.171065000000000111e+01 1.658009999999999991e+03
1.700000000000000122e-02 6.167830000000000812e-01 -4.235025000000000261e+00 9.022880000000000678e+01 1.657519999999999982e+03
1.800000000000000211e-02 6.166035000000000821e-01 -3.670025499999999941e+00 8.896744999999999948e+01 1.657079999999999927e+03
1.900000000000000300e-02 6.163890000000000757e-01 -3.035387000000000057e+00 8.775029999999999575e+01 1.656659999999999854e+03
2.000000000000000042e-02 6.161155000000000381e-01 -2.409429999999999961e+00 8.643030000000000257e+01 1.656215000000000146e+03
2.100000000000000130e-02 6.157835000000000392e-01 -1.812539999999999818e+00 8.493750000000000000e+01 1.655730000000000018e+03
2.200000000000000219e-02 6.154155000000000042e-01 -1.217579999999999885e+00 8.328709999999999525e+01 1.655220000000000027e+03
2.299999999999999961e-02 6.150385000000000435e-01 -5.800900000000002166e-01 8.154925000000000068e+01 1.654680000000000064e+03
2.400000000000000050e-02 6.146719999999999962e-01 1.283349999999998658e-01 7.980035000000000878e+01 1.654130000000000109e+03
2.500000000000000139e-02 6.143184999999999896e-01 8.979149999999997966e-01 7.808010000000000161e+01 1.653590000000000146e+03
2.600000000000000228e-02 6.139620000000000077e-01 1.675789999999999891e+00 7.636820000000000164e+01 1.653039999999999964e+03
2.700000000000000316e-02 6.135740000000000638e-01 2.376660000000000217e+00 7.458520000000000039e+01 1.652474999999999909e+03
2.800000000000000058e-02 6.131229999999999736e-01 2.903634999999999966e+00 7.261400000000000432e+01 1.651869999999999891e+03
2.900000000000000147e-02 6.125810000000000421e-01 3.172809999999999686e+00 7.033420000000000982e+01 1.651199999999999818e+03
3.000000000000000236e-02 6.119369999999999532e-01 3.135210000000000274e+00 6.765995000000000914e+01 1.650434999999999945e+03
3.099999999999999978e-02 6.111969999999999903e-01 2.789795000000000247e+00 6.457035000000000480e+01 1.649570000000000164e+03
3.200000000000000067e-02 6.103880000000000416e-01 2.184069999999999734e+00 6.112314999999999543e+01 1.648610000000000127e+03
3.300000000000000155e-02 6.095494999999999663e-01 1.402829999999999799e+00 5.744825000000000159e+01 1.647590000000000146e+03
3.400000000000000244e-02 6.087259999999999893e-01 5.498149999999997206e-01 5.372565000000000168e+01 1.646550000000000182e+03
3.500000000000000333e-02 6.079624999999999613e-01 -2.718899999999999650e-01 5.015489999999999782e+01 1.645529999999999973e+03
3.600000000000000422e-02 6.072940000000000005e-01 -9.742849999999996236e-01 4.692564999999999742e+01 1.644590000000000146e+03
3.700000000000000511e-02 6.067469999999999253e-01 -1.493180000000000174e+00 4.419509999999999650e+01 1.643759999999999991e+03
3.799999999999999906e-02 6.063365000000000560e-01 -1.789590000000000014e+00 4.207500000000000284e+01 1.643074999999999818e+03
3.899999999999999994e-02 6.060669999999999114e-01 -1.846435000000000048e+00 4.062884999999999991e+01 1.642570000000000164e+03
4.000000000000000083e-02 6.059375000000000178e-01 -1.662162999999999835e+00 3.987669999999999959e+01 1.642255000000000109e+03
4.100000000000000172e-02 6.059414999999999107e-01 -1.243774999999999853e+00 3.980545000000000044e+01 1.642115000000000009e+03
4.200000000000000261e-02 6.060719999999999441e-01 -6.010599999999999277e-01 4.038025000000000375e+01 1.642170000000000073e+03
4.300000000000000350e-02 6.063195000000000112e-01 2.565999999999999392e-01 4.155535000000000423e+01 1.642394999999999982e+03
4.400000000000000439e-02 6.066759999999999931e-01 1.320599999999999996e+00 4.328034999999999854e+01 1.642775000000000091e+03
4.499999999999999833e-02 6.071314999999999351e-01 2.581265000000000143e+00 4.550325000000000131e+01 1.643315000000000055e+03
4.599999999999999922e-02 6.076785000000000103e-01 4.024970000000000603e+00 4.816949999999999932e+01 1.643985000000000127e+03
4.700000000000000011e-02 6.083024999999999682e-01 5.631489999999999441e+00 5.122005000000000052e+01 1.644780000000000200e+03
4.800000000000000100e-02 6.089904999999999902e-01 7.373025000000000162e+00 5.458895000000000408e+01 1.645670000000000073e+03
4.900000000000000189e-02 6.097259999999999902e-01 9.214204999999999757e+00 5.820340000000000202e+01 1.646644999999999982e+03
5.000000000000000278e-02 6.104920000000000346e-01 1.111462500000000020e+01 6.198489999999999611e+01 1.647680000000000064e+03
5.100000000000000366e-02 6.112709999999998978e-01 1.303149999999999942e+01 6.585299999999999443e+01 1.648759999999999991e+03
5.200000000000000455e-02 6.120464999999999378e-01 1.492324499999999965e+01 6.972999999999998977e+01 1.649859999999999900e+03
5.300000000000000544e-02 6.128050000000000441e-01 1.675281499999999824e+01 7.354569999999999652e+01 1.650949999999999818e+03
5.399999999999999939e-02 6.135364999999999291e-01 1.848995000000000033e+01 7.724240000000000350e+01 1.652029999999999973e+03
5.500000000000000028e-02 6.142334999999999878e-01 2.011294999999999789e+01 8.077764999999999418e+01 1.653074999999999818e+03
5.600000000000000117e-02 6.148934999999999818e-01 2.160860000000000269e+01 8.412594999999998890e+01 1.654085000000000036e+03
5.700000000000000205e-02 6.155165000000000219e-01 2.297220000000000084e+01 8.727899999999999636e+01 1.655039999999999964e+03
5.800000000000000294e-02 6.161050000000000137e-01 2.420604999999999762e+01 9.024365000000000236e+01 1.655954999999999927e+03
5.900000000000000383e-02 6.166650000000000187e-01 2.531824999999999903e+01 9.303915000000000646e+01 1.656829999999999927e+03
6.000000000000000472e-02 6.172020000000000284e-01 2.632085000000000008e+01 9.569425000000001091e+01 1.657659999999999854e+03
6.099999999999999867e-02 6.177239999999999398e-01 2.722875000000000156e+01 9.824479999999999791e+01 1.658460000000000036e+03
6.199999999999999956e-02 6.182380000000000653e-01 2.805770000000000053e+01 1.007266999999999939e+02 1.659240000000000009e+03
6.300000000000000044e-02 6.187504999999999811e-01 2.882365000000000066e+01 1.031763499999999993e+02 1.660005000000000109e+03
6.400000000000000133e-02 6.192684999999999995e-01 2.954104999999999848e+01 1.056264999999999930e+02 1.660769999999999982e+03
6.500000000000000222e-02 6.197949999999999848e-01 3.022204999999999941e+01 1.081024999999999920e+02 1.661534999999999854e+03
6.600000000000000311e-02 6.203324999999999534e-01 3.087559999999999860e+01 1.106219999999999999e+02 1.662309999999999945e+03
6.700000000000000400e-02 6.208819999999999339e-01 3.150679999999999836e+01 1.131914999999999907e+02 1.663095000000000027e+03
6.800000000000000488e-02 6.214420000000000499e-01 3.211645000000000039e+01 1.158089999999999975e+02 1.663894999999999982e+03
6.900000000000000577e-02 6.220079999999998943e-01 3.270130000000000337e+01 1.184604999999999961e+02 1.664699999999999818e+03
7.000000000000000666e-02 6.225739999999999608e-01 3.325419999999999732e+01 1.211219999999999999e+02 1.665509999999999991e+03
7.100000000000000755e-02 6.231344999999999246e-01 3.376489999999999725e+01 1.237640000000000100e+02 1.666319999999999936e+03
7.200000000000000844e-02 6.236810000000000409e-01 3.422119999999999607e+01 1.263495000000000061e+02 1.667115000000000009e+03
7.300000000000000933e-02 6.242045000000000510e-01 3.460960000000000036e+01 1.288385000000000105e+02 1.667880000000000109e+03
7.399999999999999634e-02 6.246975000000000167e-01 3.491675000000000040e+01 1.311920000000000073e+02 1.668615000000000009e+03
7.499999999999999722e-02 6.251530000000000697e-01 3.513034999999999997e+01 1.333720000000000141e+02 1.669305000000000064e+03
7.599999999999999811e-02 6.255640000000000089e-01 3.524000000000000199e+01 1.353460000000000036e+02 1.669940000000000055e+03
7.699999999999999900e-02 6.259265000000000523e-01 3.523780000000000001e+01 1.370869999999999891e+02 1.670509999999999991e+03
7.799999999999999989e-02 6.262369999999999326e-01 3.511905000000000143e+01 1.385755000000000052e+02 1.671009999999999991e+03
7.900000000000000078e-02 6.264925000000000077e-01 3.488240000000000407e+01 1.398009999999999877e+02 1.671440000000000055e+03
8.000000000000000167e-02 6.266955000000000719e-01 3.452989999999999782e+01 1.407615000000000123e+02 1.671784999999999854e+03
8.100000000000000255e-02 6.268454999999999444e-01 3.406685000000000230e+01 1.414619999999999891e+02 1.672059999999999945e+03
8.200000000000000344e-02 6.269465000000000732e-01 3.350169999999999959e+01 1.419164999999999850e+02 1.672259999999999991e+03
8.300000000000000433e-02 6.270029999999999770e-01 3.284574999999999534e+01 1.421455000000000268e+02 1.672389999999999873e+03
8.400000000000000522e-02 6.270200000000000218e-01 3.211225000000000307e+01 1.421740000000000066e+02 1.672460000000000036e+03
8.500000000000000611e-02 6.270044999999999646e-01 3.131644999999999968e+01 1.420310000000000059e+02 1.672474999999999909e+03
8.600000000000000699e-02 6.269614999999999494e-01 3.047440000000000282e+01 1.417504999999999882e+02 1.672440000000000055e+03
8.700000000000000788e-02 6.268989999999999840e-01 2.960275000000000034e+01 1.413645000000000209e+02 1.672375000000000000e+03
8.800000000000000877e-02 6.268230000000000190e-01 2.871770000000000067e+01 1.409069999999999823e+02 1.672269999999999982e+03
8.899999999999999578e-02 6.267395000000000049e-01 2.783460000000000178e+01 1.404089999999999918e+02 1.672154999999999973e+03
8.999999999999999667e-02 6.266540000000000443e-01 2.696710000000000207e+01 1.398985000000000127e+02 1.672025000000000091e+03
9.099999999999999756e-02 6.265709999999999891e-01 2.612689999999999912e+01 1.394005000000000223e+02 1.671890000000000100e+03
9.199999999999999845e-02 6.264944999999999542e-01 2.532284999999999897e+01 1.389335000000000093e+02 1.671764999999999873e+03
9.299999999999999933e-02 6.264259999999999273e-01 2.456119999999999948e+01 1.385099999999999909e+02 1.671634999999999991e+03
9.400000000000000022e-02 6.263665000000000482e-01 2.384499999999999886e+01 1.381390000000000100e+02 1.671525000000000091e+03
9.500000000000000111e-02 6.263164999999999427e-01 2.317439999999999856e+01 1.378204999999999814e+02 1.671425000000000182e+03
9.600000000000000200e-02 6.262739999999999974e-01 2.254675000000000296e+01 1.375504999999999995e+02 1.671335000000000036e+03
9.700000000000000289e-02 6.262369999999999326e-01 2.195709999999999695e+01 1.373199999999999932e+02 1.671255000000000109e+03
9.800000000000000377e-02 6.262030000000000651e-01 2.139829999999999899e+01 1.371165000000000020e+02 1.671184999999999945e+03
9.900000000000000466e-02 6.261689999999999756e-01 2.086179999999999879e+01 1.369230000000000018e+02 1.671114999999999782e+03
1.000000000000000056e-01 6.261300000000000754e-01 2.033825000000000216e+01 1.367210000000000036e+02 1.671049999999999955e+03
1.010000000000000064e-01 6.260829999999999451e-01 1.981799999999999784e+01 1.364934999999999832e+02 1.670974999999999909e+03
1.020000000000000073e-01 6.260250000000000536e-01 1.929149999999999920e+01 1.362210000000000036e+02 1.670889999999999873e+03
1.030000000000000082e-01 6.259529999999999816e-01 1.875009999999999977e+01 1.358885000000000218e+02 1.670789999999999964e+03
1.040000000000000091e-01 6.258630000000000582e-01 1.818650000000000233e+01 1.354815000000000111e+02 1.670674999999999955e+03
1.050000000000000100e-01 6.257555000000000200e-01 1.759505000000000052e+01 1.349904999999999973e+02 1.670534999999999854e+03
1.059999999999999970e-01 6.256289999999999907e-01 1.697214999999999918e+01 1.344085000000000036e+02 1.670369999999999891e+03
1.069999999999999979e-01 6.254824999999999413e-01 1.631640000000000157e+01 1.337350000000000136e+02 1.670179999999999836e+03
1.079999999999999988e-01 6.253184999999999993e-01 1.562865000000000038e+01 1.329730000000000132e+02 1.669965000000000146e+03
1.089999999999999997e-01 6.251385000000000414e-01 1.491234999999999999e+01 1.321299999999999955e+02 1.669730000000000018e+03
1.100000000000000006e-01 6.249454999999999316e-01 1.417276499999999828e+01 1.312185000000000059e+02 1.669474999999999909e+03
1.110000000000000014e-01 6.247424999999999784e-01 1.341750000000000043e+01 1.302540000000000191e+02 1.669195000000000164e+03
1.120000000000000023e-01 6.245350000000000623e-01 1.265546999999999933e+01 1.292560000000000002e+02 1.668909999999999854e+03
1.130000000000000032e-01 6.243254999999999777e-01 1.189690500000000029e+01 1.282454999999999927e+02 1.668619999999999891e+03
1.140000000000000041e-01 6.241204999999999670e-01 1.115277999999999992e+01 1.272450000000000045e+02 1.668325000000000045e+03
1.150000000000000050e-01 6.239239999999999231e-01 1.043421000000000021e+01 1.262770000000000152e+02 1.668045000000000073e+03
1.160000000000000059e-01 6.237399999999999611e-01 9.751979999999999649e+00 1.253645000000000067e+02 1.667764999999999873e+03
1.170000000000000068e-01 6.235729999999999329e-01 9.116025000000000489e+00 1.245264999999999986e+02 1.667510000000000218e+03
1.180000000000000077e-01 6.234260000000000357e-01 8.535095000000000098e+00 1.237814999999999941e+02 1.667275000000000091e+03
1.190000000000000085e-01 6.233014999999999528e-01 8.016040000000000276e+00 1.231419999999999959e+02 1.667070000000000164e+03
1.200000000000000094e-01 6.232014999999999638e-01 7.563925000000000232e+00 1.226185000000000116e+02 1.666894999999999982e+03
1.209999999999999964e-01 6.231265000000000276e-01 7.181559999999999278e+00 1.222164999999999964e+02 1.666750000000000000e+03
1.219999999999999973e-01 6.230759999999999632e-01 6.869574999999999321e+00 1.219364999999999952e+02 1.666639999999999873e+03
1.229999999999999982e-01 6.230495000000000339e-01 6.626454999999999984e+00 1.217750000000000057e+02 1.666565000000000055e+03
1.239999999999999991e-01 6.230440000000000422e-01 6.448694999999999844e+00 1.217240000000000038e+02 1.666519999999999982e+03
1.250000000000000000e-01 6.230584999999999596e-01 6.331065000000000609e+00 1.217734999999999985e+02 1.666509999999999991e+03
1.260000000000000009e-01 6.230890000000000040e-01 6.266949999999999577e+00 1.219099999999999966e+02 1.666525000000000091e+03
1.270000000000000018e-01 6.231329999999999369e-01 6.248680000000000234e+00 1.221165000000000020e+02 1.666559999999999945e+03
1.280000000000000027e-01 6.231864999999999766e-01 6.267955000000000609e+00 1.223769999999999953e+02 1.666615000000000009e+03
1.290000000000000036e-01 6.232465000000000366e-01 6.316189999999999749e+00 1.226754999999999995e+02 1.666680000000000064e+03
1.300000000000000044e-01 6.233094999999999608e-01 6.384880000000000777e+00 1.229954999999999927e+02 1.666759999999999991e+03
1.310000000000000053e-01 6.233729999999999549e-01 6.465934999999999988e+00 1.233205000000000098e+02 1.666845000000000027e+03
1.320000000000000062e-01 6.234340000000000437e-01 6.551885000000000403e+00 1.236374999999999886e+02 1.666929999999999836e+03
1.330000000000000071e-01 6.234904999999999475e-01 6.636160000000000281e+00 1.239360000000000070e+02 1.667009999999999991e+03
1.340000000000000080e-01 6.235410000000000119e-01 6.713189999999999991e+00 1.242060000000000031e+02 1.667085000000000036e+03
1.350000000000000089e-01 6.235834999999999573e-01 6.778505000000000003e+00 1.244415000000000049e+02 1.667150000000000091e+03
1.360000000000000098e-01 6.236189999999999234e-01 6.828794999999999504e+00 1.246384999999999934e+02 1.667210000000000036e+03
1.370000000000000107e-01 6.236460000000000337e-01 6.861879999999999313e+00 1.247950000000000017e+02 1.667264999999999873e+03
1.380000000000000115e-01 6.236660000000000537e-01 6.876689999999999969e+00 1.249110000000000014e+02 1.667305000000000064e+03
1.390000000000000124e-01 6.236779999999999546e-01 6.873155000000000570e+00 1.249890000000000043e+02 1.667335000000000036e+03
1.400000000000000133e-01 6.236835000000000573e-01 6.852125000000000021e+00 1.250324999999999989e+02 1.667349999999999909e+03
1.410000000000000142e-01 6.236850000000000449e-01 6.815190000000000303e+00 1.250469999999999970e+02 1.667365000000000009e+03
1.420000000000000151e-01 6.236814999999999998e-01 6.764564999999999273e+00 1.250374999999999943e+02 1.667365000000000009e+03
1.430000000000000160e-01 6.236749999999999794e-01 6.702920000000000655e+00 1.250109999999999957e+02 1.667365000000000009e+03
1.440000000000000169e-01 6.236675000000000413e-01 6.633180000000000298e+00 1.249735000000000014e+02 1.667360000000000127e+03
1.450000000000000178e-01 6.236595000000000333e-01 6.558370000000000033e+00 1.249304999999999950e+02 1.667355000000000018e+03
1.459999999999999909e-01 6.236519999999999841e-01 6.481465000000000032e+00 1.248889999999999958e+02 1.667344999999999800e+03
1.469999999999999918e-01 6.236470000000000624e-01 6.405190000000000161e+00 1.248530000000000086e+02 1.667339999999999918e+03
1.479999999999999927e-01 6.236435000000000173e-01 6.331939999999999458e+00 1.248265000000000100e+02 1.667335000000000036e+03
1.489999999999999936e-01 6.236435000000000173e-01 6.263645000000000351e+00 1.248119999999999976e+02 1.667329999999999927e+03
1.499999999999999944e-01 6.236460000000000337e-01 6.201715000000000089e+00 1.248110000000000070e+02 1.667335000000000036e+03
1.509999999999999953e-01 6.236515000000000253e-01 6.147005000000000052e+00 1.248245000000000005e+02 1.667335000000000036e+03
1.519999999999999962e-01 6.236595000000000333e-01 6.099819999999999354e+00 1.248509999999999991e+02 1.667340000000000146e+03
1.529999999999999971e-01 6.236699999999999466e-01 6.059955000000000425e+00 1.248884999999999934e+02 1.667355000000000018e+03
1.539999999999999980e-01 6.236819999999999586e-01 6.026760000000000339e+00 1.249339999999999975e+02 1.667365000000000009e+03
1.549999999999999989e-01 6.236945000000000405e-01 5.999235000000000539e+00 1.249849999999999994e+02 1.667375000000000000e+03
1.559999999999999998e-01 6.237070000000000114e-01 5.976129999999999498e+00 1.250374999999999943e+02 1.667389999999999873e+03
1.570000000000000007e-01 6.237184999999999535e-01 5.956070000000000420e+00 1.250865000000000009e+02 1.667404999999999973e+03
1.580000000000000016e-01 6.237280000000000602e-01 5.937655000000000349e+00 1.251299999999999955e+02 1.667420000000000073e+03
1.590000000000000024e-01 6.237360000000000682e-01 5.919554999999999900e+00 1.251634999999999991e+02 1.667429999999999836e+03
