# t [s], A [cm^2], U [cm/s], P [cPa], c [cm/s]
1.000000000000000021e-03 5.650739999999999652e-01 4.282850000000004709e-03 9.908629999999999427e+01 1.545164999999999964e+03
2.000000000000000042e-03 5.650654999999999983e-01 -1.397838999999999896e-03 9.906255000000000166e+01 1.545159999999999854e+03
3.000000000000000062e-03 5.651105000000000711e-01 8.430114999999999137e-02 9.914830000000000609e+01 1.545184999999999945e+03
4.000000000000000083e-03 5.651574999999999793e-01 1.792953500000000200e-01 9.926304999999999268e+01 1.545220000000000027e+03
5.000000000000000104e-03 5.651435000000000208e-01 1.678543000000000118e-01 9.923404999999999632e+01 1.545210000000000036e+03
6.000000000000000125e-03 5.650874999999999648e-01 7.639650000000003383e-02 9.904914999999999736e+01 1.545164999999999964e+03
7.000000000000000146e-03 5.650349999999999540e-01 -1.520949999999998692e-02 9.879819999999999425e+01 1.545105000000000018e+03
8.000000000000000167e-03 5.649629999999999930e-01 -1.540730000000000710e-01 9.844380000000001019e+01 1.545015000000000100e+03
9.000000000000001055e-03 5.648400000000000087e-01 -4.024950000000000472e-01 9.789849999999999852e+01 1.544875000000000000e+03
1.000000000000000194e-02 5.646625000000000671e-01 -7.651000000000001133e-01 9.712210000000000321e+01 1.544674999999999955e+03
1.099999999999999936e-02 5.644194999999999629e-01 -1.251789999999999958e+00 9.606865000000000521e+01 1.544400000000000091e+03
1.200000000000000025e-02 5.640959999999999308e-01 -1.877825000000000077e+00 9.468219999999999459e+01 1.544029999999999973e+03
1.300000000000000114e-02 5.637014999999999665e-01 -2.604995000000000172e+00 9.296840000000000259e+01 1.543565000000000055e+03
1.400000000000000203e-02 5.632810000000000317e-01 -3.320594999999999519e+00 9.104104999999999848e+01 1.543029999999999973e+03
1.499999999999999944e-02 5.628919999999999479e-01 -3.882248499999999769e+00 8.908660000000000423e+01 1.542464999999999918e+03
1.600000000000000033e-02 5.625740000000000185e-01 -4.182076999999999600e+00 8.728300000000000125e+01 1.541914999999999964e+03
1.700000000000000122e-02 5.623370000000000868e-01 -4.183157500000000084e+00 8.573470000000000368e+01 1.541409999999999854e+03
1.800000000000000211e-02 5.621590000000000753e-01 -3.918858499999999800e+00 8.445019999999999527e+01 1.540970000000000027e+03
1.900000000000000300e-02 5.620030000000000303e-01 -3.468296999999999741e+00 8.335749999999998749e+01 1.540565000000000055e+03
2.000000000000000042e-02 5.618315000000000392e-01 -2.923337500000000144e+00 8.234184999999999377e+01 1.540184999999999945e+03
2.100000000000000130e-02 5.616190000000000904e-01 -2.358541000000000221e+00 8.128919999999999391e+01 1.539795000000000073e+03
2.200000000000000219e-02 5.613559999999999661e-01 -1.812110000000000110e+00 8.012335000000000207e+01 1.539380000000000109e+03
2.299999999999999961e-02 5.610505000000000075e-01 -1.282864999999999700e+00 7.882359999999999900e+01 1.538934999999999945e+03
2.400000000000000050e-02 5.607225000000000126e-01 -7.428000000000001268e-01 7.741960000000000264e+01 1.538454999999999927e+03
2.500000000000000139e-02 5.603934999999999889e-01 -1.584799999999999542e-01 7.596824999999999761e+01 1.537970000000000027e+03
2.600000000000000228e-02 5.600754999999999484e-01 4.884450000000000180e-01 7.452394999999999925e+01 1.537480000000000018e+03
2.700000000000000316e-02 5.597710000000000186e-01 1.188509999999999955e+00 7.311410000000000764e+01 1.536994999999999891e+03
2.800000000000000058e-02 5.594669999999999366e-01 1.902099999999999902e+00 7.172634999999999650e+01 1.536510000000000218e+03
2.900000000000000147e-02 5.591444999999999332e-01 2.566269999999999829e+00 7.030929999999999325e+01 1.536019999999999982e+03
3.000000000000000236e-02 5.587794999999999845e-01 3.107714999999999783e+00 6.878415000000001100e+01 1.535505000000000109e+03
3.099999999999999978e-02 5.583494999999999431e-01 3.458605000000000373e+00 6.706480000000000530e+01 1.534944999999999936e+03
3.200000000000000067e-02 5.578429999999999778e-01 3.571605000000000363e+00 6.508050000000000068e+01 1.534320000000000164e+03
3.300000000000000155e-02 5.572584999999999900e-01 3.430514999999999759e+00 6.279625000000000057e+01 1.533615000000000009e+03
3.400000000000000244e-02 5.566090000000000204e-01 3.053915000000000379e+00 6.022560000000000002e+01 1.532840000000000146e+03
3.500000000000000333e-02 5.559195000000000109e-01 2.491289999999999782e+00 5.743189999999999884e+01 1.532000000000000000e+03
3.600000000000000422e-02 5.552200000000000468e-01 1.812515000000000320e+00 5.451950000000000074e+01 1.531119999999999891e+03
3.700000000000000511e-02 5.545450000000000657e-01 1.095299999999999940e+00 5.161740000000000350e+01 1.530235000000000127e+03
3.799999999999999906e-02 5.539235000000000131e-01 4.133449999999996294e-01 4.886090000000000089e+01 1.529380000000000109e+03
3.899999999999999994e-02 5.533810000000000118e-01 -1.722900000000002763e-01 4.637460000000000093e+01 1.528590000000000146e+03
4.000000000000000083e-02 5.529334999999999667e-01 -6.173949999999996940e-01 4.426050000000000040e+01 1.527894999999999982e+03
4.100000000000000172e-02 5.525915000000000132e-01 -8.951250000000001705e-01 4.259114999999999895e+01 1.527315000000000055e+03
4.200000000000000261e-02 5.523580000000000156e-01 -9.934800000000001408e-01 4.140859999999999985e+01 1.526869999999999891e+03
4.300000000000000350e-02 5.522314999999999863e-01 -9.111000000000001320e-01 4.072735000000000127e+01 1.526575000000000045e+03
4.400000000000000439e-02 5.522074999999999623e-01 -6.526750999999999525e-01 4.054050000000000153e+01 1.526420000000000073e+03
4.499999999999999833e-02 5.522814999999999808e-01 -2.249140000000000028e-01 4.082670000000000243e+01 1.526420000000000073e+03
4.599999999999999922e-02 5.524465000000000625e-01 3.659500000000001085e-01 4.155689999999999884e+01 1.526555000000000064e+03
4.700000000000000011e-02 5.526969999999999938e-01 1.114915000000000100e+00 4.269889999999999475e+01 1.526815000000000055e+03
4.800000000000000100e-02 5.530280000000000751e-01 2.017409999999999926e+00 4.421970000000000312e+01 1.527204999999999927e+03
4.900000000000000189e-02 5.534330000000000638e-01 3.067379999999999995e+00 4.608594999999999686e+01 1.527704999999999927e+03
5.000000000000000278e-02 5.539049999999999807e-01 4.255320000000000213e+00 4.826205000000000211e+01 1.528309999999999945e+03
5.100000000000000366e-02 5.544354999999999700e-01 5.566494999999999749e+00 5.070900000000000318e+01 1.529000000000000000e+03
5.200000000000000455e-02 5.550134999999999375e-01 6.980686500000000017e+00 5.338285000000000480e+01 1.529775000000000091e+03
5.300000000000000544e-02 5.556285000000000807e-01 8.472197999999998785e+00 5.623444999999999538e+01 1.530610000000000127e+03
5.399999999999999939e-02 5.562664999999999971e-01 1.001140999999999970e+01 5.921065000000000111e+01 1.531494999999999891e+03
5.500000000000000028e-02 5.569159999999999666e-01 1.156700499999999998e+01 6.225610000000000355e+01 1.532420000000000073e+03
5.600000000000000117e-02 5.575645000000000184e-01 1.310787000000000013e+01 6.531634999999999991e+01 1.533355000000000018e+03
5.700000000000000205e-02 5.582009999999999472e-01 1.460535499999999942e+01 6.834064999999999657e+01 1.534295000000000073e+03
5.800000000000000294e-02 5.588174999999999670e-01 1.603521999999999892e+01 7.128520000000000323e+01 1.535224999999999909e+03
5.900000000000000383e-02 5.594075000000000575e-01 1.737835000000000107e+01 7.411494999999999322e+01 1.536125000000000000e+03
6.000000000000000472e-02 5.599669999999999925e-01 1.862185000000000201e+01 7.680530000000000257e+01 1.537005000000000109e+03
6.099999999999999867e-02 5.604940000000000477e-01 1.975819999999999865e+01 7.934244999999999948e+01 1.537835000000000036e+03
6.199999999999999956e-02 5.609899999999999887e-01 2.078544999999999732e+01 8.172280000000000655e+01 1.538630000000000109e+03
6.300000000000000044e-02 5.614565000000000250e-01 2.170609999999999928e+01 8.395185000000000741e+01 1.539380000000000109e+03
6.400000000000000133e-02 5.618980000000000086e-01 2.252600000000000335e+01 8.604264999999999475e+01 1.540090000000000146e+03
6.500000000000000222e-02 5.623179999999999845e-01 2.325365000000000038e+01 8.801359999999999673e+01 1.540764999999999873e+03
6.600000000000000311e-02 5.627214999999999856e-01 2.389920000000000044e+01 8.988679999999999382e+01 1.541409999999999854e+03
6.700000000000000400e-02 5.631135000000000446e-01 2.447355000000000302e+01 9.168559999999999377e+01 1.542029999999999973e+03
6.800000000000000488e-02 5.634995000000000420e-01 2.498760000000000048e+01 9.343325000000000102e+01 1.542634999999999991e+03
6.900000000000000577e-02 5.638815000000000355e-01 2.545154999999999745e+01 9.515090000000000714e+01 1.543224999999999909e+03
7.000000000000000666e-02 5.642644999999999467e-01 2.587440000000000140e+01 9.685620000000000118e+01 1.543805000000000064e+03
7.100000000000000755e-02 5.646489999999999565e-01 2.626319999999999766e+01 9.856199999999999761e+01 1.544384999999999991e+03
7.200000000000000844e-02 5.650374999999999703e-01 2.662290000000000134e+01 1.002758000000000038e+02 1.544965000000000146e+03
7.300000000000000933e-02 5.654285000000000005e-01 2.695570000000000022e+01 1.019993000000000052e+02 1.545539999999999964e+03
7.399999999999999634e-02 5.658199999999999896e-01 2.726135000000000019e+01 1.037270000000000039e+02 1.546119999999999891e+03
7.499999999999999722e-02 5.662099999999999911e-01 2.753719999999999857e+01 1.054484999999999957e+02 1.546700000000000045e+03
7.599999999999999811e-02 5.665934999999999722e-01 2.777835000000000321e+01 1.071479999999999961e+02 1.547269999999999982e+03
7.699999999999999900e-02 5.669665000000000399e-01 2.797829999999999728e+01 1.088054999999999950e+02 1.547825000000000045e+03
7.799999999999999989e-02 5.673240000000000505e-01 2.812955000000000183e+01 1.103984999999999985e+02 1.548365000000000009e+03
7.900000000000000078e-02 5.676594999999999835e-01 2.822415000000000163e+01 1.119039999999999964e+02 1.548880000000000109e+03
8.000000000000000167e-02 5.679695000000000160e-01 2.825435000000000230e+01 1.132974999999999994e+02 1.549365000000000009e+03
8.100000000000000255e-02 5.682485000000000452e-01 2.821320000000000050e+01 1.145575000000000045e+02 1.549805000000000064e+03
8.200000000000000344e-02 5.684934999999999850e-01 2.809505000000000052e+01 1.156649999999999920e+02 1.550204999999999927e+03
8.300000000000000433e-02 5.687014999999999709e-01 2.789580000000000126e+01 1.166045000000000016e+02 1.550545000000000073e+03
8.400000000000000522e-02 5.688699999999999868e-01 2.761325000000000074e+01 1.173644999999999925e+02 1.550840000000000146e+03
8.500000000000000611e-02 5.689975000000000449e-01 2.724735000000000085e+01 1.179399999999999977e+02 1.551074999999999818e+03
8.600000000000000699e-02 5.690859999999999808e-01 2.679984999999999928e+01 1.183285000000000053e+02 1.551250000000000000e+03
8.700000000000000788e-02 5.691349999999999465e-01 2.627489999999999881e+01 1.185339999999999918e+02 1.551364999999999782e+03
8.800000000000000877e-02 5.691470000000000695e-01 2.567824999999999847e+01 1.185645000000000095e+02 1.551430000000000064e+03
8.899999999999999578e-02 5.691254999999999509e-01 2.501745000000000019e+01 1.184325000000000045e+02 1.551434999999999945e+03
8.999999999999999667e-02 5.690724999999999811e-01 2.430154999999999887e+01 1.181539999999999964e+02 1.551394999999999982e+03
9.099999999999999756e-02 5.689934999999999299e-01 2.354050000000000153e+01 1.177464999999999975e+02 1.551304999999999836e+03
9.199999999999999845e-02 5.688925000000000232e-01 2.274540000000000006e+01 1.172314999999999969e+02 1.551184999999999945e+03
9.299999999999999933e-02 5.687729999999999730e-01 2.192759999999999820e+01 1.166305000000000121e+02 1.551025000000000091e+03
9.400000000000000022e-02 5.686419999999999808e-01 2.109850000000000136e+01 1.159650000000000034e+02 1.550839999999999918e+03
9.500000000000000111e-02 5.685014999999999930e-01 2.026920000000000144e+01 1.152570000000000050e+02 1.550634999999999991e+03
9.600000000000000200e-02 5.683574999999999600e-01 1.945015000000000072e+01 1.145280000000000058e+02 1.550420000000000073e+03
9.700000000000000289e-02 5.682129999999999681e-01 1.865064999999999884e+01 1.137964999999999947e+02 1.550199999999999818e+03
9.800000000000000377e-02 5.680715000000000625e-01 1.787869999999999848e+01 1.130780000000000030e+02 1.549980000000000018e+03
9.900000000000000466e-02 5.679355000000000375e-01 1.714055000000000106e+01 1.123870000000000005e+02 1.549759999999999991e+03
1.000000000000000056e-01 5.678075000000000205e-01 1.644069999999999965e+01 1.117340000000000089e+02 1.549545000000000073e+03
1.010000000000000064e-01 5.676875000000000115e-01 1.578154999999999930e+01 1.111250000000000000e+02 1.549345000000000027e+03
1.020000000000000073e-01 5.675769999999999982e-01 1.516380000000000017e+01 1.105635000000000048e+02 1.549154999999999973e+03
1.030000000000000082e-01 5.674744999999999928e-01 1.458605000000000018e+01 1.100480000000000018e+02 1.548974999999999909e+03
1.040000000000000091e-01 5.673799999999999955e-01 1.404540000000000077e+01 1.095764999999999958e+02 1.548809999999999945e+03
1.050000000000000100e-01 5.672914999999999486e-01 1.353734999999999999e+01 1.091419999999999959e+02 1.548654999999999973e+03
1.059999999999999970e-01 5.672070000000000167e-01 1.305627499999999941e+01 1.087349999999999994e+02 1.548509999999999991e+03
1.069999999999999979e-01 5.671239999999999615e-01 1.259572000000000003e+01 1.083460000000000036e+02 1.548369999999999891e+03
1.079999999999999988e-01 5.670404999999999474e-01 1.214862000000000108e+01 1.079635000000000105e+02 1.548234999999999900e+03
1.089999999999999997e-01 5.669534999999999991e-01 1.170789500000000061e+01 1.075750000000000028e+02 1.548099999999999909e+03
1.100000000000000006e-01 5.668615000000000181e-01 1.126648000000000138e+01 1.071700000000000017e+02 1.547965000000000146e+03
1.110000000000000014e-01 5.667614999999999181e-01 1.081798999999999999e+01 1.067369999999999948e+02 1.547820000000000164e+03
1.120000000000000023e-01 5.666525000000000034e-01 1.035672999999999888e+01 1.062669999999999959e+02 1.547664999999999964e+03
1.130000000000000032e-01 5.665324999999999944e-01 9.878059999999999619e+00 1.057524999999999977e+02 1.547494999999999891e+03
1.140000000000000041e-01 5.664015000000000022e-01 9.378679999999999239e+00 1.051879999999999882e+02 1.547315000000000055e+03
1.150000000000000050e-01 5.662584999999999980e-01 8.856614999999999682e+00 1.045715000000000003e+02 1.547125000000000000e+03
1.160000000000000059e-01 5.661045000000000105e-01 8.311510000000000176e+00 1.039025000000000034e+02 1.546914999999999964e+03
1.170000000000000068e-01 5.659399999999999986e-01 7.744570000000000398e+00 1.031839999999999975e+02 1.546690000000000055e+03
1.180000000000000077e-01 5.657670000000000199e-01 7.158424999999999372e+00 1.024225500000000011e+02 1.546450000000000045e+03
1.190000000000000085e-01 5.655864999999999920e-01 6.557294999999999874e+00 1.016252999999999957e+02 1.546204999999999927e+03
1.200000000000000094e-01 5.654025000000000301e-01 5.946555000000000035e+00 1.008028999999999940e+02 1.545949999999999818e+03
1.209999999999999964e-01 5.652165000000000106e-01 5.332654999999999923e+00 9.996805000000000518e+01 1.545684999999999945e+03
1.219999999999999973e-01 5.650330000000000075e-01 4.722855000000000025e+00 9.913394999999999868e+01 1.545420000000000073e+03
1.229999999999999982e-01 5.648539999999999672e-01 4.124924000000000035e+00 9.831520000000000437e+01 1.545154999999999973e+03
1.239999999999999991e-01 5.646824999999999761e-01 3.546794999999999920e+00 9.752664999999998940e+01 1.544904999999999973e+03
1.250000000000000000e-01 5.645225000000000382e-01 2.996258500000000158e+00 9.678159999999999741e+01 1.544659999999999854e+03
1.260000000000000009e-01 5.643765000000000587e-01 2.480630350000000206e+00 9.609440000000000737e+01 1.544430000000000064e+03
1.270000000000000018e-01 5.642460000000000253e-01 2.006443500000000046e+00 9.547675000000000978e+01 1.544224999999999909e+03
1.280000000000000027e-01 5.641340000000000243e-01 1.579205500000000040e+00 9.493789999999999907e+01 1.544034999999999854e+03
1.290000000000000036e-01 5.640410000000000146e-01 1.203168499999999863e+00 9.448539999999999850e+01 1.543875000000000000e+03
1.300000000000000044e-01 5.639689999999999426e-01 8.811940000000000328e-01 9.412405000000001110e+01 1.543740000000000009e+03
1.310000000000000053e-01 5.639170000000000016e-01 6.146519999999999762e-01 9.385569999999999879e+01 1.543630000000000109e+03
1.320000000000000062e-01 5.638840000000000519e-01 4.034294999999999964e-01 9.367945000000000277e+01 1.543550000000000182e+03
1.330000000000000071e-01 5.638705000000000522e-01 2.459812100000000057e-01 9.359170000000000300e+01 1.543500000000000000e+03
1.340000000000000080e-01 5.638735000000000275e-01 1.394444999999999990e-01 9.358635000000001014e+01 1.543474999999999909e+03
1.350000000000000089e-01 5.638919999999999488e-01 7.981550000000001144e-02 9.365524999999999523e+01 1.543470000000000027e+03
1.360000000000000098e-01 5.639235000000000220e-01 6.215500000000001579e-02 9.378855000000000075e+01 1.543490000000000009e+03
1.370000000000000107e-01 5.639659999999999673e-01 8.081950000000004408e-02 9.397514999999999930e+01 1.543529999999999973e+03
1.380000000000000115e-01 5.640160000000000728e-01 1.297049999999999592e-01 9.420329999999999870e+01 1.543585000000000036e+03
1.390000000000000124e-01 5.640709999999999891e-01 2.024834999999999274e-01 9.446094999999999686e+01 1.543650000000000091e+03
1.400000000000000133e-01 5.641294999999999504e-01 2.928380000000000427e-01 9.473634999999998740e+01 1.543720000000000027e+03
1.410000000000000142e-01 5.641880000000000228e-01 3.946500000000000563e-01 9.501834999999999809e+01 1.543800000000000182e+03
1.420000000000000151e-01 5.642454999999999554e-01 5.021865000000000911e-01 9.529675000000000296e+01 1.543875000000000000e+03
1.430000000000000160e-01 5.642989999999999950e-01 6.102410000000000334e-01 9.556260000000000332e+01 1.543954999999999927e+03
1.440000000000000169e-01 5.643485000000000307e-01 7.142403499999999683e-01 9.580840000000000600e+01 1.544030000000000200e+03
1.450000000000000178e-01 5.643920000000000048e-01 8.103280000000000483e-01 9.602824999999999989e+01 1.544099999999999909e+03
1.459999999999999909e-01 5.644290000000000695e-01 8.954000000000000847e-01 9.621760000000000446e+01 1.544160000000000082e+03
1.469999999999999918e-01 5.644584999999999742e-01 9.671240000000000947e-01 9.637375000000000114e+01 1.544215000000000146e+03
1.479999999999999927e-01 5.644810000000000105e-01 1.023932999999999982e+00 9.649524999999999864e+01 1.544255000000000109e+03
1.489999999999999936e-01 5.644964999999999566e-01 1.064994500000000066e+00 9.658204999999999529e+01 1.544289999999999964e+03
1.499999999999999944e-01 5.645050000000000345e-01 1.090149999999999952e+00 9.663530000000000086e+01 1.544315000000000055e+03
1.509999999999999953e-01 5.645069999999999810e-01 1.099855999999999945e+00 9.665715000000000146e+01 1.544329999999999927e+03
1.519999999999999962e-01 5.645040000000000058e-01 1.095092500000000024e+00 9.665055000000000973e+01 1.544329999999999927e+03
1.529999999999999971e-01 5.644959999999999978e-01 1.077264500000000069e+00 9.661910000000000309e+01 1.544329999999999927e+03
1.539999999999999980e-01 5.644839999999999858e-01 1.048135000000000039e+00 9.656655000000000655e+01 1.544320000000000164e+03
1.549999999999999989e-01 5.644689999999999985e-01 1.009673999999999960e+00 9.649715000000000487e+01 1.544305000000000064e+03
1.559999999999999998e-01 5.644514999999999949e-01 9.639835000000001042e-01 9.641495000000000459e+01 1.544284999999999854e+03
1.570000000000000007e-01 5.644329999999999625e-01 9.131939999999999502e-01 9.632374999999998977e+01 1.544259999999999991e+03
1.580000000000000016e-01 5.644135000000000124e-01 8.593420000000000503e-01 9.622704999999999131e+01 1.544240000000000009e+03
1.590000000000000024e-01 5.643940000000000623e-01 8.043350000000000222e-01 9.612794999999999845e+01 1.544204999999999927e+03
