# t [s], A [cm^2], U [cm/s], P [cPa], c [cm/s]
1.000000000000000021e-03 1.501009999999999844e-01 3.137849999999999806e-01 9.445850000000000080e+01 1.945380000000000109e+03
2.000000000000000042e-03 1.500664999999999916e-01 1.819863499999999856e+00 9.138660000000000139e+01 1.945000000000000000e+03
3.000000000000000062e-03 1.499619999999999842e-01 3.662885500000000238e+00 8.723965000000001169e+01 1.943884999999999991e+03
4.000000000000000083e-03 1.498134999999999883e-01 5.716119500000000464e+00 8.269790000000000418e+01 1.942329999999999927e+03
5.000000000000000104e-03 1.496480000000000032e-01 7.919500000000000206e+00 7.856444999999999368e+01 1.940625000000000000e+03
6.000000000000000125e-03 1.494860000000000078e-01 1.013021999999999956e+01 7.516315000000000168e+01 1.938964999999999918e+03
7.000000000000000146e-03 1.493329999999999935e-01 1.215460500000000010e+01 7.232814999999999372e+01 1.937424999999999955e+03
8.000000000000000167e-03 1.491915000000000047e-01 1.388611000000000040e+01 6.980464999999999520e+01 1.936014999999999873e+03
9.000000000000001055e-03 1.490640000000000021e-01 1.534134999999999849e+01 6.757280000000000086e+01 1.934765000000000100e+03
1.000000000000000194e-02 1.489534999999999887e-01 1.656010000000000204e+01 6.571144999999999925e+01 1.933699999999999818e+03
1.099999999999999936e-02 1.488609999999999933e-01 1.755999999999999872e+01 6.422419999999999618e+01 1.932820000000000164e+03
1.200000000000000025e-02 1.487860000000000016e-01 1.835470000000000113e+01 6.306510000000000105e+01 1.932114999999999782e+03
1.300000000000000114e-02 1.487259999999999971e-01 1.895474999999999710e+01 6.217130000000000223e+01 1.931555000000000064e+03
1.400000000000000203e-02 1.486779999999999768e-01 1.936375000000000313e+01 6.144975000000000165e+01 1.931115000000000009e+03
1.499999999999999944e-02 1.486385000000000067e-01 1.960379999999999967e+01 6.082690000000000197e+01 1.930764999999999873e+03
1.600000000000000033e-02 1.486069999999999891e-01 1.974950000000000117e+01 6.035500000000000398e+01 1.930490000000000009e+03
1.700000000000000122e-02 1.485885000000000122e-01 1.992289999999999850e+01 6.025145000000000550e+01 1.930339999999999918e+03
1.800000000000000211e-02 1.485889999999999989e-01 2.024409999999999954e+01 6.080075000000000074e+01 1.930360000000000127e+03
1.900000000000000300e-02 1.486144999999999827e-01 2.077064999999999984e+01 6.218025000000000091e+01 1.930610000000000127e+03
2.000000000000000042e-02 1.486649999999999916e-01 2.146705000000000041e+01 6.432784999999999798e+01 1.931105000000000018e+03
2.100000000000000130e-02 1.487364999999999937e-01 2.221634999999999849e+01 6.692650000000000432e+01 1.931789999999999964e+03
2.200000000000000219e-02 1.488164999999999905e-01 2.286500000000000199e+01 6.950319999999999254e+01 1.932574999999999818e+03
2.299999999999999961e-02 1.488929999999999976e-01 2.327665000000000006e+01 7.158570000000000277e+01 1.933329999999999927e+03
2.400000000000000050e-02 1.489534999999999887e-01 2.337355000000000160e+01 7.284784999999999400e+01 1.933944999999999936e+03
2.500000000000000139e-02 1.489924999999999999e-01 2.315379999999999683e+01 7.319304999999999950e+01 1.934345000000000027e+03
2.600000000000000228e-02 1.490075000000000149e-01 2.268155000000000143e+01 7.275400000000000489e+01 1.934519999999999982e+03
2.700000000000000316e-02 1.490035000000000109e-01 2.205729999999999791e+01 7.181950000000000500e+01 1.934500000000000000e+03
2.800000000000000058e-02 1.489864999999999939e-01 2.138199999999999790e+01 7.072280000000000655e+01 1.934360000000000127e+03
2.900000000000000147e-02 1.489650000000000141e-01 2.072719999999999985e+01 6.973489999999999611e+01 1.934159999999999854e+03
3.000000000000000236e-02 1.489445000000000074e-01 2.012044999999999817e+01 6.899609999999999843e+01 1.933960000000000036e+03
3.099999999999999978e-02 1.489274999999999904e-01 1.954759999999999920e+01 6.850184999999999036e+01 1.933789999999999964e+03
3.200000000000000067e-02 1.489130000000000176e-01 1.896770000000000067e+01 6.813630000000000564e+01 1.933655000000000200e+03
3.300000000000000155e-02 1.488990000000000036e-01 1.833494999999999919e+01 6.773525000000000773e+01 1.933514999999999873e+03
3.400000000000000244e-02 1.488815000000000000e-01 1.761899999999999977e+01 6.715610000000000923e+01 1.933355000000000018e+03
3.500000000000000333e-02 1.488579999999999903e-01 1.681974999999999909e+01 6.633404999999999063e+01 1.933134999999999991e+03
3.600000000000000422e-02 1.488284999999999747e-01 1.597240000000000038e+01 6.531080000000000041e+01 1.932855000000000018e+03
3.700000000000000511e-02 1.487950000000000106e-01 1.514095000000000013e+01 6.422894999999999754e+01 1.932529999999999973e+03
3.799999999999999906e-02 1.487620000000000053e-01 1.440409999999999968e+01 6.329590000000000316e+01 1.932215000000000146e+03
3.899999999999999994e-02 1.487359999999999793e-01 1.383575000000000088e+01 6.272865000000000180e+01 1.931960000000000036e+03
4.000000000000000083e-02 1.487224999999999797e-01 1.348724999999999952e+01 6.269549999999999557e+01 1.931815000000000055e+03
4.100000000000000172e-02 1.487249999999999961e-01 1.337505000000000166e+01 6.327174999999999727e+01 1.931825000000000045e+03
4.200000000000000261e-02 1.487450000000000161e-01 1.347684999999999889e+01 6.441870000000000118e+01 1.932000000000000000e+03
4.300000000000000350e-02 1.487815000000000110e-01 1.373610000000000042e+01 6.599049999999999727e+01 1.932335000000000036e+03
4.400000000000000439e-02 1.488285000000000025e-01 1.407235000000000014e+01 6.776224999999999454e+01 1.932784999999999854e+03
4.499999999999999833e-02 1.488810000000000133e-01 1.439549999999999841e+01 6.947220000000000084e+01 1.933284999999999854e+03
4.599999999999999922e-02 1.489314999999999944e-01 1.461960000000000015e+01 7.086619999999999209e+01 1.933764999999999873e+03
4.700000000000000011e-02 1.489715000000000067e-01 1.467370000000000019e+01 7.173539999999999850e+01 1.934159999999999854e+03
4.800000000000000100e-02 1.489960000000000173e-01 1.450919999999999987e+01 7.194165000000000987e+01 1.934405000000000200e+03
4.900000000000000189e-02 1.490009999999999946e-01 1.410239999999999938e+01 7.142699999999999250e+01 1.934464999999999918e+03
5.000000000000000278e-02 1.489840000000000053e-01 1.345285000000000153e+01 7.020969999999999800e+01 1.934315000000000055e+03
5.100000000000000366e-02 1.489455000000000084e-01 1.257914999999999850e+01 6.836854999999999905e+01 1.933954999999999927e+03
5.200000000000000455e-02 1.488875000000000060e-01 1.151300999999999952e+01 6.602234999999998877e+01 1.933405000000000200e+03
5.300000000000000544e-02 1.488134999999999875e-01 1.029373499999999986e+01 6.330829999999999558e+01 1.932695000000000164e+03
5.399999999999999939e-02 1.487260000000000248e-01 8.963635000000000019e+00 6.036415000000000219e+01 1.931849999999999909e+03
5.500000000000000028e-02 1.486299999999999844e-01 7.564949999999999619e+00 5.731659999999999400e+01 1.930924999999999955e+03
5.600000000000000117e-02 1.485279999999999934e-01 6.138385000000000424e+00 5.427564999999999884e+01 1.929945000000000164e+03
5.700000000000000205e-02 1.484254999999999880e-01 4.723069999999999879e+00 5.133480000000000132e+01 1.928950000000000045e+03
5.800000000000000294e-02 1.483240000000000114e-01 3.356896150000000301e+00 4.857459999999999667e+01 1.927964999999999918e+03
5.900000000000000383e-02 1.482275000000000120e-01 2.077190000000000314e+00 4.606719999999999970e+01 1.927030000000000200e+03
6.000000000000000472e-02 1.481389999999999929e-01 9.209350000000000591e-01 4.388040000000000163e+01 1.926159999999999854e+03
6.099999999999999867e-02 1.480595000000000105e-01 -7.560999999999995502e-02 4.207994999999999663e+01 1.925389999999999873e+03
6.199999999999999956e-02 1.479929999999999857e-01 -8.778950000000000919e-01 4.072920000000000584e+01 1.924735000000000127e+03
6.300000000000000044e-02 1.479415000000000036e-01 -1.454713799999999946e+00 3.988625000000000398e+01 1.924224999999999909e+03
6.400000000000000133e-02 1.479074999999999973e-01 -1.780040000000000067e+00 3.960035000000000593e+01 1.923875000000000000e+03
6.500000000000000222e-02 1.478915000000000091e-01 -1.834894999999999943e+00 3.990664999999999907e+01 1.923704999999999927e+03
6.600000000000000311e-02 1.478959999999999997e-01 -1.608890000000000153e+00 4.082214999999999350e+01 1.923724999999999909e+03
6.700000000000000400e-02 1.479214999999999836e-01 -1.101154250000000001e+00 4.234269999999999357e+01 1.923949999999999818e+03
6.800000000000000488e-02 1.479675000000000018e-01 -3.206499999999998796e-01 4.444164999999999566e+01 1.924369999999999891e+03
6.900000000000000577e-02 1.480329999999999979e-01 7.143549999999999622e-01 4.707115000000000293e+01 1.924985000000000127e+03
7.000000000000000666e-02 1.481175000000000130e-01 1.977314999999999934e+00 5.016460000000000008e+01 1.925780000000000200e+03
7.100000000000000755e-02 1.482185000000000030e-01 3.435020500000000254e+00 5.364104999999999990e+01 1.926740000000000009e+03
7.200000000000000844e-02 1.483329999999999926e-01 5.049434999999999896e+00 5.740995000000000203e+01 1.927835000000000036e+03
7.300000000000000933e-02 1.484590000000000076e-01 6.779700000000000060e+00 6.137680000000000291e+01 1.929039999999999964e+03
7.399999999999999634e-02 1.485929999999999751e-01 8.584039999999999893e+00 6.544819999999999993e+01 1.930329999999999927e+03
7.499999999999999722e-02 1.487319999999999753e-01 1.042181500000000050e+01 6.953650000000000375e+01 1.931679999999999836e+03
7.599999999999999811e-02 1.488729999999999776e-01 1.225501500000000021e+01 7.356364999999999554e+01 1.933049999999999955e+03
7.699999999999999900e-02 1.490140000000000076e-01 1.404969999999999963e+01 7.746450000000000102e+01 1.934420000000000073e+03
7.799999999999999989e-02 1.491514999999999924e-01 1.577744999999999820e+01 8.118895000000000550e+01 1.935769999999999982e+03
7.900000000000000078e-02 1.492850000000000010e-01 1.741584999999999894e+01 8.470314999999999372e+01 1.937079999999999927e+03
8.000000000000000167e-02 1.494125000000000036e-01 1.894910000000000139e+01 8.798985000000000412e+01 1.938335000000000036e+03
8.100000000000000255e-02 1.495329999999999993e-01 2.036820000000000164e+01 9.104775000000000773e+01 1.939534999999999854e+03
8.200000000000000344e-02 1.496474999999999889e-01 2.167034999999999911e+01 9.388965000000000316e+01 1.940664999999999964e+03
8.300000000000000433e-02 1.497549999999999992e-01 2.285845000000000127e+01 9.654019999999999868e+01 1.941740000000000009e+03
8.400000000000000522e-02 1.498570000000000180e-01 2.393999999999999773e+01 9.903199999999999648e+01 1.942750000000000000e+03
8.500000000000000611e-02 1.499530000000000030e-01 2.492600000000000193e+01 1.014034000000000049e+02 1.943715000000000146e+03
8.600000000000000699e-02 1.500454999999999983e-01 2.582929999999999993e+01 1.036934499999999986e+02 1.944644999999999982e+03
8.700000000000000788e-02 1.501349999999999907e-01 2.666365000000000052e+01 1.059389999999999930e+02 1.945534999999999854e+03
8.800000000000000877e-02 1.502229999999999954e-01 2.744219999999999970e+01 1.081719999999999970e+02 1.946414999999999964e+03
8.899999999999999578e-02 1.503095000000000125e-01 2.817640000000000100e+01 1.104184999999999945e+02 1.947289999999999964e+03
8.999999999999999667e-02 1.503964999999999885e-01 2.887539999999999907e+01 1.126920000000000073e+02 1.948159999999999854e+03
9.099999999999999756e-02 1.504840000000000066e-01 2.954540000000000077e+01 1.149995000000000118e+02 1.949034999999999854e+03
9.199999999999999845e-02 1.505719999999999836e-01 3.018900000000000006e+01 1.173365000000000009e+02 1.949920000000000073e+03
9.299999999999999933e-02 1.506605000000000028e-01 3.080570000000000164e+01 1.196899999999999977e+02 1.950804999999999836e+03
9.400000000000000022e-02 1.507489999999999941e-01 3.139189999999999969e+01 1.220395000000000039e+02 1.951690000000000055e+03
9.500000000000000111e-02 1.508375000000000132e-01 3.194119999999999848e+01 1.243569999999999993e+02 1.952579999999999927e+03
9.600000000000000200e-02 1.509240000000000026e-01 3.244489999999999696e+01 1.266109999999999900e+02 1.953444999999999936e+03
9.700000000000000289e-02 1.510084999999999900e-01 3.289305000000000234e+01 1.287680000000000007e+02 1.954295000000000073e+03
9.800000000000000377e-02 1.510894999999999877e-01 3.327469999999999573e+01 1.307934999999999945e+02 1.955110000000000127e+03
9.900000000000000466e-02 1.511659999999999948e-01 3.357860000000000156e+01 1.326545000000000130e+02 1.955880000000000109e+03
1.000000000000000056e-01 1.512370000000000103e-01 3.379425000000000523e+01 1.343205000000000098e+02 1.956594999999999800e+03
1.010000000000000064e-01 1.513010000000000188e-01 3.391194999999999737e+01 1.357654999999999745e+02 1.957244999999999891e+03
1.020000000000000073e-01 1.513575000000000059e-01 3.392385000000000161e+01 1.369694999999999823e+02 1.957815000000000055e+03
1.030000000000000082e-01 1.514059999999999850e-01 3.382394999999999641e+01 1.379170000000000016e+02 1.958309999999999945e+03
1.040000000000000091e-01 1.514455000000000107e-01 3.360869999999999891e+01 1.385995000000000061e+02 1.958715000000000146e+03
1.050000000000000100e-01 1.514754999999999852e-01 3.327720000000000056e+01 1.390154999999999745e+02 1.959029999999999973e+03
1.059999999999999970e-01 1.514964999999999784e-01 3.283109999999999928e+01 1.391700000000000159e+02 1.959250000000000000e+03
1.069999999999999979e-01 1.515084999999999904e-01 3.227505000000000024e+01 1.390745000000000005e+02 1.959380000000000109e+03
1.079999999999999988e-01 1.515115000000000212e-01 3.161619999999999919e+01 1.387454999999999927e+02 1.959420000000000073e+03
1.089999999999999997e-01 1.515059999999999740e-01 3.086394999999999911e+01 1.382059999999999889e+02 1.959380000000000109e+03
1.100000000000000006e-01 1.514929999999999888e-01 3.002994999999999948e+01 1.374814999999999827e+02 1.959255000000000109e+03
1.110000000000000014e-01 1.514735000000000109e-01 2.912745000000000317e+01 1.366019999999999754e+02 1.959065000000000055e+03
1.120000000000000023e-01 1.514475000000000127e-01 2.817079999999999984e+01 1.355989999999999895e+02 1.958819999999999936e+03
1.130000000000000032e-01 1.514170000000000238e-01 2.717490000000000094e+01 1.345049999999999955e+02 1.958525000000000091e+03
1.140000000000000041e-01 1.513829999999999898e-01 2.615489999999999782e+01 1.333505000000000109e+02 1.958179999999999836e+03
1.150000000000000050e-01 1.513455000000000217e-01 2.512559999999999860e+01 1.321665000000000134e+02 1.957819999999999936e+03
1.160000000000000059e-01 1.513069999999999971e-01 2.410054999999999836e+01 1.309799999999999898e+02 1.957434999999999945e+03
1.170000000000000068e-01 1.512674999999999992e-01 2.309244999999999948e+01 1.298145000000000095e+02 1.957039999999999964e+03
1.180000000000000077e-01 1.512280000000000013e-01 2.211200000000000188e+01 1.286899999999999977e+02 1.956644999999999982e+03
1.190000000000000085e-01 1.511890000000000178e-01 2.116795000000000115e+01 1.276214999999999975e+02 1.956255000000000109e+03
1.200000000000000094e-01 1.511520000000000086e-01 2.026699999999999946e+01 1.266189999999999998e+02 1.955880000000000109e+03
1.209999999999999964e-01 1.511160000000000003e-01 1.941349999999999909e+01 1.256875000000000000e+02 1.955519999999999982e+03
1.219999999999999973e-01 1.510819999999999941e-01 1.860940000000000083e+01 1.248269999999999982e+02 1.955179999999999836e+03
1.229999999999999982e-01 1.510505000000000042e-01 1.785459999999999781e+01 1.240330000000000013e+02 1.954860000000000127e+03
1.239999999999999991e-01 1.510205000000000020e-01 1.714669999999999916e+01 1.232969999999999970e+02 1.954559999999999945e+03
1.250000000000000000e-01 1.509925000000000017e-01 1.648150000000000048e+01 1.226059999999999945e+02 1.954275000000000091e+03
1.260000000000000009e-01 1.509659999999999891e-01 1.585314999999999941e+01 1.219455000000000098e+02 1.954005000000000109e+03
1.270000000000000018e-01 1.509404999999999775e-01 1.525459999999999994e+01 1.212964999999999947e+02 1.953740000000000009e+03
1.280000000000000027e-01 1.509145000000000070e-01 1.467784999999999940e+01 1.206425000000000125e+02 1.953480000000000018e+03
1.290000000000000036e-01 1.508895000000000097e-01 1.411449999999999960e+01 1.199625000000000057e+02 1.953224999999999909e+03
1.300000000000000044e-01 1.508630000000000249e-01 1.355620000000000047e+01 1.192400000000000091e+02 1.952954999999999927e+03
1.310000000000000053e-01 1.508355000000000112e-01 1.299479999999999968e+01 1.184579999999999984e+02 1.952674999999999955e+03
1.320000000000000062e-01 1.508050000000000224e-01 1.242309999999999981e+01 1.176020000000000039e+02 1.952375000000000000e+03
1.330000000000000071e-01 1.507729999999999904e-01 1.183494999999999919e+01 1.166614999999999895e+02 1.952055000000000064e+03
1.340000000000000080e-01 1.507379999999999831e-01 1.122586000000000084e+01 1.156289999999999907e+02 1.951704999999999927e+03
1.350000000000000089e-01 1.507005000000000150e-01 1.059286499999999975e+01 1.145014999999999930e+02 1.951329999999999927e+03
1.360000000000000098e-01 1.506595000000000018e-01 9.935055000000000192e+00 1.132814999999999941e+02 1.950920000000000073e+03
1.370000000000000107e-01 1.506149999999999989e-01 9.253440000000001220e+00 1.119749999999999943e+02 1.950480000000000018e+03
1.380000000000000115e-01 1.505680000000000074e-01 8.550900000000000389e+00 1.105925000000000011e+02 1.950015000000000100e+03
1.390000000000000124e-01 1.505184999999999995e-01 7.832379999999999676e+00 1.091490000000000009e+02 1.949525000000000091e+03
1.400000000000000133e-01 1.504670000000000174e-01 7.104269999999999641e+00 1.076624999999999943e+02 1.949009999999999991e+03
1.410000000000000142e-01 1.504135000000000055e-01 6.374410000000000132e+00 1.061539999999999964e+02 1.948485000000000127e+03
1.420000000000000151e-01 1.503594999999999793e-01 5.651665000000000383e+00 1.046460000000000008e+02 1.947949999999999818e+03
1.430000000000000160e-01 1.503049999999999942e-01 4.945484999999999687e+00 1.031615000000000038e+02 1.947404999999999973e+03
1.440000000000000169e-01 1.502514999999999823e-01 4.265545000000000364e+00 1.017244500000000045e+02 1.946875000000000000e+03
1.450000000000000178e-01 1.501989999999999992e-01 3.621299999999999741e+00 1.003563500000000062e+02 1.946355000000000018e+03
1.459999999999999909e-01 1.501490000000000047e-01 3.021569999999999645e+00 9.907710000000000150e+01 1.945860000000000127e+03
1.469999999999999918e-01 1.501014999999999988e-01 2.474232499999999835e+00 9.790404999999999802e+01 1.945384999999999991e+03
1.479999999999999927e-01 1.500575000000000103e-01 1.985856500000000135e+00 9.685094999999999743e+01 1.944945000000000164e+03
1.489999999999999936e-01 1.500180000000000125e-01 1.561520000000000019e+00 9.592744999999999322e+01 1.944550000000000182e+03
1.499999999999999944e-01 1.499820000000000042e-01 1.204625499999999905e+00 9.513935000000000741e+01 1.944190000000000055e+03
1.509999999999999953e-01 1.499515000000000153e-01 9.168479999999999963e-01 9.448839999999999861e+01 1.943875000000000000e+03
1.519999999999999962e-01 1.499249999999999750e-01 6.981114999999999959e-01 9.397249999999999659e+01 1.943605000000000018e+03
1.529999999999999971e-01 1.499030000000000085e-01 5.466940000000000133e-01 9.358575000000000443e+01 1.943380000000000109e+03
1.539999999999999980e-01 1.498855000000000048e-01 4.593303499999999984e-01 9.331929999999999836e+01 1.943204999999999927e+03
1.549999999999999989e-01 1.498720000000000052e-01 4.314196499999999879e-01 9.316159999999999286e+01 1.943065000000000055e+03
1.559999999999999998e-01 1.498629999999999962e-01 4.572410000000000085e-01 9.309919999999999618e+01 1.942970000000000027e+03
1.570000000000000007e-01 1.498574999999999768e-01 5.302035000000000498e-01 9.311709999999999354e+01 1.942905000000000200e+03
1.580000000000000016e-01 1.498550000000000160e-01 6.431050000000000377e-01 9.319974999999999454e+01 1.942869999999999891e+03
1.590000000000000024e-01 1.498539999999999872e-01 7.883930000000000105e-01 9.333119999999999550e+01 1.942865000000000009e+03
