# t [s], A [cm^2], U [cm/s], P [cPa], c [cm/s]
1.000000000000000021e-03 1.488984999999999892e-01 4.205409999999999981e-01 1.027343999999999937e+02 1.753994999999999891e+03
2.000000000000000042e-03 1.488705000000000167e-01 2.146776500000000087e+00 9.942000000000000171e+01 1.753704999999999927e+03
3.000000000000000062e-03 1.487645000000000217e-01 4.207221500000000169e+00 9.524139999999999873e+01 1.752670000000000073e+03
4.000000000000000083e-03 1.486040000000000139e-01 6.461617999999999640e+00 9.074334999999999241e+01 1.751134999999999991e+03
5.000000000000000104e-03 1.484185000000000088e-01 8.852230000000000487e+00 8.663075000000000614e+01 1.749369999999999891e+03
6.000000000000000125e-03 1.482284999999999853e-01 1.126138500000000064e+01 8.320714999999999861e+01 1.747579999999999927e+03
7.000000000000000146e-03 1.480440000000000089e-01 1.353266999999999953e+01 8.037975000000000136e+01 1.745860000000000127e+03
8.000000000000000167e-03 1.478690000000000004e-01 1.555920499999999862e+01 7.792924999999999613e+01 1.744255000000000109e+03
9.000000000000001055e-03 1.477070000000000050e-01 1.732560000000000144e+01 7.575955000000000439e+01 1.742785000000000082e+03
1.000000000000000194e-02 1.475609999999999977e-01 1.885865000000000080e+01 7.389244999999999663e+01 1.741480000000000018e+03
1.099999999999999936e-02 1.474330000000000085e-01 2.017614999999999981e+01 7.233555000000001201e+01 1.740339999999999918e+03
1.200000000000000025e-02 1.473224999999999951e-01 2.128600000000000136e+01 7.104970000000000141e+01 1.739375000000000000e+03
1.300000000000000114e-02 1.472284999999999844e-01 2.219780000000000086e+01 6.998489999999999611e+01 1.738549999999999955e+03
1.400000000000000203e-02 1.471490000000000020e-01 2.292204999999999870e+01 6.909225000000000705e+01 1.737869999999999891e+03
1.499999999999999944e-02 1.470814999999999761e-01 2.347139999999999915e+01 6.832354999999999734e+01 1.737299999999999955e+03
1.600000000000000033e-02 1.470245000000000024e-01 2.387480000000000047e+01 6.766034999999999400e+01 1.736820000000000164e+03
1.700000000000000122e-02 1.469779999999999975e-01 2.419035000000000224e+01 6.715699999999999648e+01 1.736440000000000055e+03
1.800000000000000211e-02 1.469435000000000047e-01 2.449900000000000233e+01 6.694740000000000180e+01 1.736164999999999964e+03
1.900000000000000300e-02 1.469260000000000010e-01 2.487904999999999944e+01 6.719384999999999764e+01 1.736025000000000091e+03
2.000000000000000042e-02 1.469290000000000040e-01 2.537610000000000099e+01 6.800540000000000873e+01 1.736069999999999936e+03
2.100000000000000130e-02 1.469544999999999879e-01 2.598474999999999824e+01 6.937135000000000673e+01 1.736309999999999945e+03
2.200000000000000219e-02 1.469999999999999918e-01 2.665039999999999765e+01 7.114369999999999550e+01 1.736724999999999909e+03
2.299999999999999961e-02 1.470604999999999829e-01 2.728730000000000189e+01 7.307200000000000273e+01 1.737269999999999982e+03
2.400000000000000050e-02 1.471280000000000088e-01 2.780480000000000018e+01 7.487149999999999750e+01 1.737875000000000000e+03
2.500000000000000139e-02 1.471925000000000039e-01 2.813185000000000002e+01 7.629689999999999372e+01 1.738460000000000036e+03
2.600000000000000228e-02 1.472479999999999900e-01 2.823280000000000101e+01 7.719859999999999900e+01 1.738964999999999918e+03
2.700000000000000316e-02 1.472884999999999889e-01 2.811159999999999926e+01 7.754590000000000316e+01 1.739349999999999909e+03
2.800000000000000058e-02 1.473129999999999995e-01 2.780465000000000231e+01 7.741669999999999163e+01 1.739590000000000146e+03
2.900000000000000147e-02 1.473230000000000095e-01 2.736655000000000015e+01 7.696004999999999541e+01 1.739699999999999818e+03
3.000000000000000236e-02 1.473220000000000085e-01 2.685389999999999944e+01 7.634675000000000011e+01 1.739710000000000036e+03
3.099999999999999978e-02 1.473144999999999871e-01 2.631174999999999997e+01 7.572390000000000043e+01 1.739654999999999973e+03
3.200000000000000067e-02 1.473034999999999761e-01 2.576615000000000322e+01 7.518434999999999491e+01 1.739570000000000164e+03
3.300000000000000155e-02 1.472924999999999929e-01 2.522350000000000136e+01 7.475710000000000832e+01 1.739474999999999909e+03
3.400000000000000244e-02 1.472819999999999963e-01 2.467535000000000167e+01 7.441694999999999993e+01 1.739384999999999991e+03
3.500000000000000333e-02 1.472714999999999996e-01 2.410670000000000002e+01 7.410665000000000191e+01 1.739300000000000182e+03
3.600000000000000422e-02 1.472600000000000020e-01 2.350489999999999924e+01 7.376455000000001405e+01 1.739200000000000045e+03
3.700000000000000511e-02 1.472470000000000168e-01 2.286679999999999779e+01 7.334924999999999784e+01 1.739089999999999918e+03
3.799999999999999906e-02 1.472304999999999864e-01 2.220255000000000223e+01 7.285580000000000211e+01 1.738949999999999818e+03
3.899999999999999994e-02 1.472120000000000095e-01 2.153630000000000067e+01 7.232085000000000719e+01 1.738789999999999964e+03
4.000000000000000083e-02 1.471925000000000039e-01 2.090200000000000102e+01 7.181629999999999825e+01 1.738625000000000000e+03
4.100000000000000172e-02 1.471750000000000003e-01 2.033774999999999977e+01 7.143359999999999843e+01 1.738470000000000027e+03
4.200000000000000261e-02 1.471615000000000006e-01 1.987800000000000011e+01 7.126290000000000191e+01 1.738349999999999909e+03
4.300000000000000350e-02 1.471554999999999946e-01 1.954674999999999940e+01 7.137235000000001151e+01 1.738289999999999964e+03
4.400000000000000439e-02 1.471589999999999843e-01 1.935249999999999915e+01 7.179220000000000823e+01 1.738315000000000055e+03
4.499999999999999833e-02 1.471729999999999983e-01 1.928620000000000090e+01 7.250589999999999691e+01 1.738434999999999945e+03
4.599999999999999922e-02 1.471974999999999811e-01 1.932204999999999728e+01 7.345105000000000928e+01 1.738639999999999873e+03
4.700000000000000011e-02 1.472295000000000131e-01 1.942110000000000269e+01 7.452809999999999491e+01 1.738920000000000073e+03
4.800000000000000100e-02 1.472670000000000090e-01 1.953630000000000067e+01 7.561424999999999841e+01 1.739244999999999891e+03
4.900000000000000189e-02 1.473059999999999925e-01 1.961880000000000024e+01 7.658089999999999975e+01 1.739579999999999927e+03
5.000000000000000278e-02 1.473415000000000141e-01 1.962280000000000157e+01 7.730965000000000487e+01 1.739894999999999982e+03
5.100000000000000366e-02 1.473700000000000010e-01 1.951079999999999970e+01 7.770550000000000068e+01 1.740150000000000091e+03
5.200000000000000455e-02 1.473879999999999912e-01 1.925560000000000116e+01 7.770539999999999736e+01 1.740304999999999836e+03
5.300000000000000544e-02 1.473924999999999819e-01 1.884230000000000160e+01 7.728104999999999336e+01 1.740349999999999909e+03
5.399999999999999939e-02 1.473820000000000130e-01 1.826740000000000208e+01 7.643784999999999741e+01 1.740265000000000100e+03
5.500000000000000028e-02 1.473559999999999870e-01 1.753774999999999906e+01 7.520945000000000391e+01 1.740039999999999964e+03
5.600000000000000117e-02 1.473150000000000015e-01 1.666864999999999952e+01 7.365064999999999884e+01 1.739684999999999945e+03
5.700000000000000205e-02 1.472609999999999753e-01 1.568159999999999954e+01 7.182989999999999498e+01 1.739215000000000146e+03
5.800000000000000294e-02 1.471959999999999935e-01 1.460229999999999961e+01 6.982240000000000180e+01 1.738639999999999873e+03
5.900000000000000383e-02 1.471210000000000018e-01 1.345909999999999940e+01 6.770445000000000846e+01 1.737974999999999909e+03
6.000000000000000472e-02 1.470394999999999897e-01 1.228189499999999867e+01 6.555044999999999789e+01 1.737265000000000100e+03
6.099999999999999867e-02 1.469544999999999879e-01 1.110135000000000005e+01 6.343049999999999500e+01 1.736514999999999873e+03
6.199999999999999956e-02 1.468685000000000129e-01 9.948294999999999888e+00 6.141049999999999898e+01 1.735755000000000109e+03
6.300000000000000044e-02 1.467839999999999978e-01 8.853650000000000020e+00 5.955214999999999748e+01 1.735009999999999991e+03
6.400000000000000133e-02 1.467040000000000011e-01 7.847825000000000273e+00 5.791320000000000334e+01 1.734300000000000182e+03
6.500000000000000222e-02 1.466314999999999980e-01 6.960580000000000211e+00 5.654820000000000135e+01 1.733659999999999854e+03
6.600000000000000311e-02 1.465680000000000038e-01 6.220060000000000144e+00 5.550789999999999935e+01 1.733090000000000146e+03
6.700000000000000400e-02 1.465154999999999930e-01 5.652289999999999814e+00 5.483809999999999718e+01 1.732625000000000000e+03
6.800000000000000488e-02 1.464775000000000105e-01 5.280165000000000219e+00 5.457880000000000109e+01 1.732269999999999982e+03
6.900000000000000577e-02 1.464544999999999875e-01 5.122560000000000002e+00 5.476184999999999548e+01 1.732059999999999945e+03
7.000000000000000666e-02 1.464489999999999958e-01 5.193389999999999951e+00 5.540944999999999965e+01 1.732000000000000000e+03
7.100000000000000755e-02 1.464619999999999811e-01 5.500925000000000509e+00 5.653249999999999886e+01 1.732099999999999909e+03
7.200000000000000844e-02 1.464944999999999997e-01 6.047279999999999767e+00 5.812915000000000276e+01 1.732375000000000000e+03
7.300000000000000933e-02 1.465460000000000096e-01 6.828244999999999898e+00 6.018489999999999895e+01 1.732809999999999945e+03
7.399999999999999634e-02 1.466169999999999973e-01 7.833404999999999063e+00 6.267234999999999445e+01 1.733420000000000073e+03
7.499999999999999722e-02 1.467065000000000174e-01 9.046655000000001223e+00 6.555285000000000650e+01 1.734195000000000164e+03
7.599999999999999811e-02 1.468129999999999991e-01 1.044683500000000009e+01 6.877819999999999823e+01 1.735119999999999891e+03
7.699999999999999900e-02 1.469354999999999967e-01 1.200885500000000050e+01 7.229285000000000139e+01 1.736195000000000164e+03
7.799999999999999989e-02 1.470715000000000217e-01 1.370477500000000148e+01 7.603669999999999618e+01 1.737385000000000218e+03
7.900000000000000078e-02 1.472189999999999888e-01 1.550479999999999947e+01 7.994804999999999495e+01 1.738690000000000055e+03
8.000000000000000167e-02 1.473764999999999936e-01 1.737875000000000014e+01 8.396614999999999895e+01 1.740075000000000045e+03
8.100000000000000255e-02 1.475405000000000189e-01 1.929695000000000249e+01 8.803374999999999773e+01 1.741529999999999973e+03
8.200000000000000344e-02 1.477090000000000070e-01 2.123140000000000072e+01 9.209919999999999618e+01 1.743034999999999854e+03
8.300000000000000433e-02 1.478804999999999981e-01 2.315644999999999953e+01 9.611804999999999666e+01 1.744555000000000064e+03
8.400000000000000522e-02 1.480525000000000035e-01 2.504970000000000141e+01 1.000542000000000087e+02 1.746095000000000027e+03
8.500000000000000611e-02 1.482224999999999793e-01 2.689235000000000042e+01 1.038807500000000061e+02 1.747625000000000000e+03
8.600000000000000699e-02 1.483909999999999951e-01 2.866944999999999766e+01 1.075805000000000007e+02 1.749140000000000100e+03
8.700000000000000788e-02 1.485555000000000070e-01 3.037030000000000030e+01 1.111435000000000031e+02 1.750630000000000109e+03
8.800000000000000877e-02 1.487165000000000015e-01 3.198789999999999623e+01 1.145690000000000026e+02 1.752085000000000036e+03
8.899999999999999578e-02 1.488724999999999909e-01 3.351905000000000001e+01 1.178640000000000043e+02 1.753505000000000109e+03
8.999999999999999667e-02 1.490245000000000042e-01 3.496359999999999957e+01 1.210395000000000039e+02 1.754884999999999991e+03
9.099999999999999756e-02 1.491715000000000124e-01 3.632410000000000139e+01 1.241119999999999948e+02 1.756230000000000018e+03
9.199999999999999845e-02 1.493150000000000033e-01 3.760510000000000019e+01 1.270980000000000132e+02 1.757545000000000073e+03
9.299999999999999933e-02 1.494555000000000189e-01 3.881230000000000047e+01 1.300165000000000077e+02 1.758819999999999936e+03
9.400000000000000022e-02 1.495920000000000027e-01 3.995220000000000482e+01 1.328849999999999909e+02 1.760079999999999927e+03
9.500000000000000111e-02 1.497269999999999990e-01 4.103105000000000047e+01 1.357175000000000011e+02 1.761315000000000055e+03
9.600000000000000200e-02 1.498599999999999932e-01 4.205445000000000277e+01 1.385260000000000105e+02 1.762539999999999964e+03
9.700000000000000289e-02 1.499909999999999854e-01 4.302710000000000434e+01 1.413164999999999907e+02 1.763750000000000000e+03
9.800000000000000377e-02 1.501210000000000044e-01 4.395184999999999320e+01 1.440919999999999845e+02 1.764949999999999818e+03
9.900000000000000466e-02 1.502505000000000090e-01 4.483015000000000327e+01 1.468485000000000014e+02 1.766139999999999873e+03
1.000000000000000056e-01 1.503784999999999983e-01 4.566159999999999997e+01 1.495780000000000030e+02 1.767325000000000045e+03
1.010000000000000064e-01 1.505055000000000143e-01 4.644400000000000261e+01 1.522690000000000055e+02 1.768494999999999891e+03
1.020000000000000073e-01 1.506305000000000005e-01 4.717355000000000587e+01 1.549055000000000177e+02 1.769650000000000091e+03
1.030000000000000082e-01 1.507525000000000115e-01 4.784520000000000550e+01 1.574695000000000107e+02 1.770789999999999964e+03
1.040000000000000091e-01 1.508725000000000205e-01 4.845275000000000176e+01 1.599389999999999930e+02 1.771894999999999982e+03
1.050000000000000100e-01 1.509880000000000111e-01 4.898935000000000173e+01 1.622934999999999945e+02 1.772974999999999909e+03
1.059999999999999970e-01 1.510990000000000111e-01 4.944790000000000418e+01 1.645120000000000005e+02 1.774005000000000109e+03
1.069999999999999979e-01 1.512050000000000061e-01 4.982134999999999536e+01 1.665735000000000241e+02 1.774990000000000009e+03
1.079999999999999988e-01 1.513045000000000084e-01 5.010299999999999443e+01 1.684604999999999961e+02 1.775920000000000073e+03
1.089999999999999997e-01 1.513970000000000038e-01 5.028705000000000069e+01 1.701574999999999989e+02 1.776789999999999964e+03
1.100000000000000006e-01 1.514820000000000055e-01 5.036860000000000070e+01 1.716505000000000223e+02 1.777585000000000036e+03
1.110000000000000014e-01 1.515584999999999849e-01 5.034414999999999907e+01 1.729304999999999950e+02 1.778299999999999955e+03
1.120000000000000023e-01 1.516259999999999830e-01 5.021155000000000257e+01 1.739915000000000020e+02 1.778944999999999936e+03
1.130000000000000032e-01 1.516850000000000143e-01 4.997020000000000550e+01 1.748310000000000173e+02 1.779494999999999891e+03
1.140000000000000041e-01 1.517344999999999944e-01 4.962130000000000507e+01 1.754515000000000100e+02 1.779969999999999800e+03
1.150000000000000050e-01 1.517745000000000066e-01 4.916749999999999687e+01 1.758559999999999945e+02 1.780349999999999909e+03
1.160000000000000059e-01 1.518054999999999821e-01 4.861339999999999861e+01 1.760550000000000068e+02 1.780650000000000091e+03
1.170000000000000068e-01 1.518269999999999897e-01 4.796484999999999843e+01 1.760595000000000141e+02 1.780859999999999900e+03
1.180000000000000077e-01 1.518404999999999894e-01 4.722934999999999661e+01 1.758840000000000146e+02 1.780994999999999891e+03
1.190000000000000085e-01 1.518455000000000221e-01 4.641554999999999609e+01 1.755450000000000159e+02 1.781049999999999955e+03
1.200000000000000094e-01 1.518424999999999914e-01 4.553324999999999534e+01 1.750620000000000118e+02 1.781035000000000082e+03
1.209999999999999964e-01 1.518335000000000101e-01 4.459290000000000020e+01 1.744549999999999841e+02 1.780954999999999927e+03
1.219999999999999973e-01 1.518174999999999941e-01 4.360555000000000092e+01 1.737439999999999998e+02 1.780815000000000055e+03
1.229999999999999982e-01 1.517965000000000009e-01 4.258235000000000525e+01 1.729509999999999934e+02 1.780630000000000109e+03
1.239999999999999991e-01 1.517709999999999892e-01 4.153450000000000131e+01 1.720949999999999989e+02 1.780400000000000091e+03
1.250000000000000000e-01 1.517415000000000014e-01 4.047265000000000157e+01 1.711974999999999909e+02 1.780130000000000109e+03
1.260000000000000009e-01 1.517094999999999971e-01 3.940694999999999482e+01 1.702750000000000057e+02 1.779840000000000146e+03
1.270000000000000018e-01 1.516750000000000043e-01 3.834649999999999892e+01 1.693425000000000011e+02 1.779525000000000091e+03
1.280000000000000027e-01 1.516399999999999970e-01 3.729940000000000566e+01 1.684150000000000205e+02 1.779190000000000055e+03
1.290000000000000036e-01 1.516029999999999878e-01 3.627224999999999966e+01 1.675014999999999930e+02 1.778855000000000018e+03
1.300000000000000044e-01 1.515659999999999785e-01 3.527055000000000007e+01 1.666115000000000066e+02 1.778514999999999873e+03
1.310000000000000053e-01 1.515294999999999837e-01 3.429809999999999803e+01 1.657475000000000023e+02 1.778170000000000073e+03
1.320000000000000062e-01 1.514929999999999888e-01 3.335730000000000217e+01 1.649130000000000109e+02 1.777829999999999927e+03
1.330000000000000071e-01 1.514570000000000083e-01 3.244899999999999807e+01 1.641069999999999993e+02 1.777494999999999891e+03
1.340000000000000080e-01 1.514220000000000010e-01 3.157290000000000063e+01 1.633249999999999886e+02 1.777159999999999854e+03
1.350000000000000089e-01 1.513869999999999938e-01 3.072724999999999795e+01 1.625635000000000048e+02 1.776835000000000036e+03
1.360000000000000098e-01 1.513530000000000153e-01 2.990934999999999988e+01 1.618135000000000048e+02 1.776519999999999982e+03
1.370000000000000107e-01 1.513184999999999947e-01 2.911549999999999727e+01 1.610670000000000073e+02 1.776200000000000045e+03
1.380000000000000115e-01 1.512850000000000028e-01 2.834149999999999991e+01 1.603139999999999930e+02 1.775880000000000109e+03
1.390000000000000124e-01 1.512505000000000099e-01 2.758249999999999957e+01 1.595450000000000159e+02 1.775559999999999945e+03
1.400000000000000133e-01 1.512155000000000027e-01 2.683344999999999914e+01 1.587500000000000000e+02 1.775235000000000127e+03
1.410000000000000142e-01 1.511800000000000088e-01 2.608934999999999960e+01 1.579190000000000111e+02 1.774905000000000200e+03
1.420000000000000151e-01 1.511429999999999996e-01 2.534534999999999982e+01 1.570430000000000064e+02 1.774554999999999836e+03
1.430000000000000160e-01 1.511044999999999749e-01 2.459694999999999965e+01 1.561150000000000091e+02 1.774194999999999936e+03
1.440000000000000169e-01 1.510635000000000172e-01 2.384035000000000082e+01 1.551285000000000025e+02 1.773815000000000055e+03
1.450000000000000178e-01 1.510199999999999876e-01 2.307225000000000037e+01 1.540794999999999959e+02 1.773409999999999854e+03
1.459999999999999909e-01 1.509745000000000115e-01 2.229044999999999987e+01 1.529649999999999750e+02 1.772990000000000009e+03
1.469999999999999918e-01 1.509260000000000046e-01 2.149365000000000236e+01 1.517849999999999966e+02 1.772545000000000073e+03
1.479999999999999927e-01 1.508760000000000101e-01 2.068149999999999977e+01 1.505414999999999850e+02 1.772079999999999927e+03
1.489999999999999936e-01 1.508220000000000116e-01 1.985474999999999923e+01 1.492384999999999877e+02 1.771585000000000036e+03
1.499999999999999944e-01 1.507660000000000111e-01 1.901525000000000176e+01 1.478824999999999932e+02 1.771070000000000164e+03
1.509999999999999953e-01 1.507080000000000086e-01 1.816584999999999894e+01 1.464814999999999827e+02 1.770529999999999973e+03
1.519999999999999962e-01 1.506474999999999898e-01 1.731034999999999968e+01 1.450444999999999993e+02 1.769974999999999909e+03
1.529999999999999971e-01 1.505854999999999833e-01 1.645339999999999847e+01 1.435849999999999795e+02 1.769404999999999973e+03
1.539999999999999980e-01 1.505219999999999891e-01 1.560024999999999906e+01 1.421139999999999759e+02 1.768820000000000164e+03
1.549999999999999989e-01 1.504579999999999806e-01 1.475680000000000014e+01 1.406454999999999984e+02 1.768235000000000127e+03
1.559999999999999998e-01 1.503939999999999999e-01 1.392919999999999980e+01 1.391930000000000121e+02 1.767644999999999982e+03
1.570000000000000007e-01 1.503295000000000048e-01 1.312379999999999924e+01 1.377710000000000150e+02 1.767049999999999955e+03
1.580000000000000016e-01 1.502664999999999973e-01 1.234669500000000042e+01 1.363915000000000077e+02 1.766470000000000027e+03
1.590000000000000024e-01 1.502045000000000186e-01 1.160393000000000008e+01 1.350674999999999955e+02 1.765900000000000091e+03
