# t [s], A [cm^2], U [cm/s], P [cPa], c [cm/s]
1.000000000000000021e-03 5.605025000000000146e-01 2.617250000000001520e-03 1.085540000000000020e+02 1.393034999999999854e+03
2.000000000000000042e-03 5.604955000000000354e-01 2.004251000000000296e-03 1.085405000000000086e+02 1.393029999999999973e+03
3.000000000000000062e-03 5.605350000000000055e-01 6.709180000000000699e-02 1.085979999999999990e+02 1.393049999999999955e+03
4.000000000000000083e-03 5.605854999999999588e-01 1.487452499999999955e-01 1.086935000000000002e+02 1.393085000000000036e+03
5.000000000000000104e-03 5.605890000000000040e-01 1.533130000000000048e-01 1.087034999999999911e+02 1.393095000000000027e+03
6.000000000000000125e-03 5.605539999999999967e-01 9.192949999999999733e-02 1.086020000000000039e+02 1.393074999999999818e+03
7.000000000000000146e-03 5.605124999999999691e-01 1.704450000000001797e-02 1.084304999999999950e+02 1.393034999999999854e+03
8.000000000000000167e-03 5.604620000000000157e-01 -7.786450000000000315e-02 1.081889999999999930e+02 1.392974999999999909e+03
9.000000000000001055e-03 5.603730000000000100e-01 -2.423460000000000059e-01 1.078199999999999932e+02 1.392880000000000109e+03
1.000000000000000194e-02 5.602340000000000098e-01 -4.976100000000001078e-01 1.072779999999999916e+02 1.392730000000000018e+03
1.099999999999999936e-02 5.600384999999999946e-01 -8.449950000000000516e-01 1.065319999999999965e+02 1.392529999999999973e+03
1.200000000000000025e-02 5.597779999999999978e-01 -1.290569999999999995e+00 1.055480000000000018e+02 1.392255000000000109e+03
1.300000000000000114e-02 5.594440000000000524e-01 -1.830260000000000220e+00 1.043025000000000091e+02 1.391894999999999982e+03
1.400000000000000203e-02 5.590505000000000058e-01 -2.423770000000000202e+00 1.028133499999999998e+02 1.391460000000000036e+03
1.499999999999999944e-02 5.586290000000000422e-01 -2.992715000000000014e+00 1.011551499999999919e+02 1.390954999999999927e+03
1.600000000000000033e-02 5.582190000000000207e-01 -3.445409999999999862e+00 9.943909999999999627e+01 1.390420000000000073e+03
1.700000000000000122e-02 5.578509999999999858e-01 -3.708130000000000148e+00 9.777660000000000196e+01 1.389875000000000000e+03
1.800000000000000211e-02 5.575369999999999493e-01 -3.744863000000000053e+00 9.624819999999999709e+01 1.389345000000000027e+03
1.900000000000000300e-02 5.572714999999999197e-01 -3.560718000000000050e+00 9.488749999999998863e+01 1.388855000000000018e+03
2.000000000000000042e-02 5.570374999999999632e-01 -3.192902499999999755e+00 9.368134999999999479e+01 1.388384999999999991e+03
2.100000000000000130e-02 5.568110000000000559e-01 -2.695434999999999803e+00 9.258254999999999768e+01 1.387945000000000164e+03
2.200000000000000219e-02 5.565705000000000791e-01 -2.123020000000000351e+00 9.152844999999999231e+01 1.387515000000000100e+03
2.299999999999999961e-02 5.563020000000000742e-01 -1.518020000000000147e+00 9.046030000000000371e+01 1.387079999999999927e+03
2.400000000000000050e-02 5.560005000000000086e-01 -9.036099999999998023e-01 8.933774999999999977e+01 1.386634999999999991e+03
2.500000000000000139e-02 5.556699999999999973e-01 -2.841450000000000919e-01 8.814509999999999934e+01 1.386170000000000073e+03
2.600000000000000228e-02 5.553194999999999659e-01 3.482499999999997264e-01 8.688890000000000668e+01 1.385684999999999945e+03
2.700000000000000316e-02 5.549589999999999801e-01 1.004074999999999829e+00 8.558865000000000123e+01 1.385194999999999936e+03
2.800000000000000058e-02 5.545955000000000190e-01 1.687335000000000029e+00 8.426519999999999300e+01 1.384690000000000055e+03
2.900000000000000147e-02 5.542295000000000416e-01 2.389640000000000430e+00 8.293025000000000091e+01 1.384179999999999836e+03
3.000000000000000236e-02 5.538570000000000437e-01 3.088665000000000216e+00 8.158044999999999902e+01 1.383660000000000082e+03
3.099999999999999978e-02 5.534679999999999600e-01 3.750524999999999665e+00 8.019624999999999204e+01 1.383130000000000109e+03
3.200000000000000067e-02 5.530490000000000128e-01 4.335320000000000285e+00 7.874514999999999532e+01 1.382579999999999927e+03
3.300000000000000155e-02 5.525895000000000667e-01 4.803719999999999324e+00 7.718930000000000291e+01 1.382009999999999991e+03
3.400000000000000244e-02 5.520800000000000152e-01 5.124354999999999549e+00 7.549385000000000900e+01 1.381400000000000091e+03
3.500000000000000333e-02 5.515174999999999939e-01 5.279250000000000220e+00 7.363625000000000398e+01 1.380740000000000009e+03
3.600000000000000422e-02 5.509060000000000068e-01 5.267319999999999780e+00 7.161305000000000121e+01 1.380035000000000082e+03
3.700000000000000511e-02 5.502560000000000784e-01 5.104734999999999800e+00 6.944360000000000355e+01 1.379289999999999964e+03
3.799999999999999906e-02 5.495839999999999614e-01 4.822795000000000165e+00 6.717034999999999911e+01 1.378514999999999873e+03
3.899999999999999994e-02 5.489114999999999966e-01 4.463490000000000180e+00 6.485484999999999900e+01 1.377724999999999909e+03
4.000000000000000083e-02 5.482595000000000107e-01 4.073920000000000208e+00 6.257170000000000698e+01 1.376940000000000055e+03
4.100000000000000172e-02 5.476509999999999989e-01 3.701270000000000504e+00 6.040094999999999459e+01 1.376180000000000064e+03
4.200000000000000261e-02 5.471044999999999936e-01 3.388240000000000141e+00 5.842079999999999984e+01 1.375470000000000027e+03
4.300000000000000350e-02 5.466379999999999573e-01 3.170405000000000140e+00 5.670139999999999958e+01 1.374840000000000146e+03
4.400000000000000439e-02 5.462620000000000253e-01 3.074760000000000382e+00 5.530065000000000452e+01 1.374300000000000182e+03
4.499999999999999833e-02 5.459849999999999426e-01 3.119915000000000216e+00 5.426169999999999760e+01 1.373865000000000009e+03
4.599999999999999922e-02 5.458129999999999926e-01 3.317009500000000166e+00 5.361229999999999762e+01 1.373555000000000064e+03
4.700000000000000011e-02 5.457454999999999945e-01 3.671349999999999891e+00 5.336645000000000039e+01 1.373375000000000000e+03
4.800000000000000100e-02 5.457824999999999482e-01 4.184074999999999989e+00 5.352595000000000169e+01 1.373325000000000045e+03
4.900000000000000189e-02 5.459224999999999772e-01 4.853545000000000442e+00 5.408299999999999841e+01 1.373404999999999973e+03
5.000000000000000278e-02 5.461599999999999788e-01 5.676270000000000593e+00 5.502270000000000039e+01 1.373619999999999891e+03
5.100000000000000366e-02 5.464910000000000601e-01 6.647214999999999208e+00 5.632509999999999906e+01 1.373965000000000146e+03
5.200000000000000455e-02 5.469100000000000072e-01 7.759690000000000865e+00 5.796599999999999397e+01 1.374425000000000182e+03
5.300000000000000544e-02 5.474094999999999933e-01 9.004915000000000447e+00 5.991814999999999714e+01 1.375000000000000000e+03
5.399999999999999939e-02 5.479829999999999979e-01 1.037153999999999954e+01 6.215124999999999744e+01 1.375674999999999955e+03
5.500000000000000028e-02 5.486210000000000253e-01 1.184531500000000115e+01 6.463214999999999577e+01 1.376445000000000164e+03
5.600000000000000117e-02 5.493140000000000800e-01 1.340892999999999979e+01 6.732484999999999786e+01 1.377295000000000073e+03
5.700000000000000205e-02 5.500515000000000265e-01 1.504255999999999993e+01 7.019104999999998995e+01 1.378220000000000027e+03
5.800000000000000294e-02 5.508239999999999803e-01 1.672430999999999912e+01 7.319084999999999752e+01 1.379199999999999818e+03
5.900000000000000383e-02 5.516185000000000116e-01 1.843128000000000100e+01 7.628374999999999773e+01 1.380224999999999909e+03
6.000000000000000472e-02 5.524265000000000425e-01 2.014049999999999940e+01 7.942990000000000350e+01 1.381279999999999973e+03
6.099999999999999867e-02 5.532369999999999788e-01 2.183004999999999995e+01 8.259145000000000891e+01 1.382355000000000018e+03
6.199999999999999956e-02 5.540419999999999234e-01 2.348000000000000043e+01 8.573429999999999040e+01 1.383440000000000055e+03
6.300000000000000044e-02 5.548345000000000082e-01 2.507310000000000016e+01 8.882890000000000441e+01 1.384519999999999982e+03
6.400000000000000133e-02 5.556090000000000195e-01 2.659550000000000125e+01 9.185134999999999650e+01 1.385589999999999918e+03
6.500000000000000222e-02 5.563609999999999944e-01 2.803665000000000163e+01 9.478305000000000291e+01 1.386640000000000100e+03
6.600000000000000311e-02 5.570895000000000152e-01 2.938974999999999937e+01 9.761369999999999436e+01 1.387664999999999964e+03
6.700000000000000400e-02 5.577925000000000244e-01 3.065125000000000099e+01 1.003370500000000050e+02 1.388664999999999964e+03
6.800000000000000488e-02 5.584715000000000096e-01 3.182055000000000078e+01 1.029537499999999994e+02 1.389630000000000109e+03
6.900000000000000577e-02 5.591274999999999995e-01 3.289965000000000117e+01 1.054687500000000000e+02 1.390565000000000055e+03
7.000000000000000666e-02 5.597635000000000804e-01 3.389240000000000208e+01 1.078905000000000030e+02 1.391474999999999909e+03
7.100000000000000755e-02 5.603825000000000056e-01 3.480414999999999992e+01 1.102295000000000016e+02 1.392359999999999900e+03
7.200000000000000844e-02 5.609874999999999723e-01 3.564114999999999611e+01 1.125004999999999882e+02 1.393220000000000027e+03
7.300000000000000933e-02 5.615820000000000256e-01 3.641004999999999825e+01 1.147154999999999916e+02 1.394065000000000055e+03
7.399999999999999634e-02 5.621680000000000010e-01 3.711740000000000350e+01 1.168880000000000052e+02 1.394889999999999873e+03
7.499999999999999722e-02 5.627490000000000547e-01 3.776924999999999955e+01 1.190289999999999964e+02 1.395700000000000045e+03
7.599999999999999811e-02 5.633270000000000222e-01 3.837100000000000222e+01 1.211485000000000127e+02 1.396505000000000109e+03
7.699999999999999900e-02 5.639015000000000555e-01 3.892665000000000219e+01 1.232514999999999930e+02 1.397300000000000182e+03
7.799999999999999989e-02 5.644750000000000600e-01 3.943904999999999461e+01 1.253419999999999987e+02 1.398095000000000027e+03
7.900000000000000078e-02 5.650450000000000195e-01 3.990954999999999586e+01 1.274194999999999993e+02 1.398884999999999991e+03
8.000000000000000167e-02 5.656114999999999338e-01 4.033799999999999386e+01 1.294800000000000182e+02 1.399659999999999854e+03
8.100000000000000255e-02 5.661709999999999798e-01 4.072289999999999566e+01 1.315155000000000030e+02 1.400429999999999836e+03
8.200000000000000344e-02 5.667210000000000303e-01 4.106144999999999357e+01 1.335165000000000077e+02 1.401190000000000055e+03
8.300000000000000433e-02 5.672580000000000400e-01 4.134975000000000023e+01 1.354699999999999989e+02 1.401934999999999945e+03
8.400000000000000522e-02 5.677775000000000460e-01 4.158310000000000173e+01 1.373615000000000066e+02 1.402660000000000082e+03
8.500000000000000611e-02 5.682754999999999335e-01 4.175645000000000095e+01 1.391744999999999948e+02 1.403355000000000018e+03
8.600000000000000699e-02 5.687480000000000313e-01 4.186469999999999914e+01 1.408940000000000055e+02 1.404025000000000091e+03
8.700000000000000788e-02 5.691915000000000724e-01 4.190285000000000082e+01 1.425035000000000025e+02 1.404655000000000200e+03
8.800000000000000877e-02 5.696010000000000240e-01 4.186659999999999826e+01 1.439884999999999877e+02 1.405244999999999891e+03
8.899999999999999578e-02 5.699739999999999807e-01 4.175234999999999985e+01 1.453369999999999891e+02 1.405789999999999964e+03
8.999999999999999667e-02 5.703080000000000371e-01 4.155764999999999532e+01 1.465370000000000061e+02 1.406285000000000082e+03
9.099999999999999756e-02 5.706010000000000248e-01 4.128125000000000000e+01 1.475815000000000055e+02 1.406724999999999909e+03
9.199999999999999845e-02 5.708520000000000261e-01 4.092329999999999757e+01 1.484664999999999964e+02 1.407115000000000009e+03
9.299999999999999933e-02 5.710604999999999709e-01 4.048525000000000063e+01 1.491890000000000214e+02 1.407444999999999936e+03
9.400000000000000022e-02 5.712264999999999704e-01 3.996999999999999886e+01 1.497500000000000000e+02 1.407714999999999918e+03
9.500000000000000111e-02 5.713524999999999299e-01 3.938179999999999836e+01 1.501544999999999845e+02 1.407929999999999836e+03
9.600000000000000200e-02 5.714394999999999891e-01 3.872599999999999909e+01 1.504099999999999966e+02 1.408090000000000146e+03
9.700000000000000289e-02 5.714900000000000535e-01 3.800925000000000153e+01 1.505249999999999773e+02 1.408204999999999927e+03
9.800000000000000377e-02 5.715075000000000571e-01 3.723890000000000100e+01 1.505110000000000241e+02 1.408259999999999991e+03
9.900000000000000466e-02 5.714949999999999752e-01 3.642309999999999803e+01 1.503824999999999932e+02 1.408275000000000091e+03
1.000000000000000056e-01 5.714565000000000339e-01 3.557054999999999723e+01 1.501530000000000200e+02 1.408250000000000000e+03
1.010000000000000064e-01 5.713954999999999451e-01 3.469030000000000058e+01 1.498385000000000105e+02 1.408190000000000055e+03
1.020000000000000073e-01 5.713155000000000872e-01 3.379124999999999801e+01 1.494540000000000077e+02 1.408095000000000027e+03
1.030000000000000082e-01 5.712215000000000487e-01 3.288219999999999743e+01 1.490149999999999864e+02 1.407980000000000018e+03
1.040000000000000091e-01 5.711169999999999858e-01 3.197175000000000011e+01 1.485370000000000061e+02 1.407839999999999918e+03
1.050000000000000100e-01 5.710049999999999848e-01 3.106755000000000067e+01 1.480344999999999800e+02 1.407690000000000055e+03
1.059999999999999970e-01 5.708889999999999798e-01 3.017664999999999864e+01 1.475190000000000055e+02 1.407529999999999973e+03
1.069999999999999979e-01 5.707725000000000160e-01 2.930505000000000138e+01 1.470035000000000025e+02 1.407360000000000127e+03
1.079999999999999988e-01 5.706560000000000521e-01 2.845749999999999957e+01 1.464950000000000045e+02 1.407184999999999945e+03
1.089999999999999997e-01 5.705430000000000224e-01 2.763765000000000072e+01 1.460020000000000095e+02 1.407014999999999873e+03
1.100000000000000006e-01 5.704335000000000377e-01 2.684774999999999778e+01 1.455300000000000011e+02 1.406849999999999909e+03
1.110000000000000014e-01 5.703285000000000160e-01 2.608879999999999910e+01 1.450810000000000173e+02 1.406684999999999945e+03
1.120000000000000023e-01 5.702279999999999571e-01 2.536025000000000063e+01 1.446555000000000177e+02 1.406525000000000091e+03
1.130000000000000032e-01 5.701315000000000133e-01 2.466075000000000017e+01 1.442520000000000095e+02 1.406375000000000000e+03
1.140000000000000041e-01 5.700385000000000035e-01 2.398760000000000048e+01 1.438675000000000068e+02 1.406230000000000018e+03
1.150000000000000050e-01 5.699465000000000225e-01 2.333719999999999928e+01 1.434975000000000023e+02 1.406079999999999927e+03
1.160000000000000059e-01 5.698555000000000703e-01 2.270540000000000092e+01 1.431355000000000075e+02 1.405940000000000055e+03
1.170000000000000068e-01 5.697619999999999907e-01 2.208745000000000047e+01 1.427744999999999891e+02 1.405805000000000064e+03
1.180000000000000077e-01 5.696654999999999358e-01 2.147830000000000084e+01 1.424070000000000107e+02 1.405659999999999854e+03
1.190000000000000085e-01 5.695639999999999592e-01 2.087294999999999945e+01 1.420244999999999891e+02 1.405519999999999982e+03
1.200000000000000094e-01 5.694550000000000445e-01 2.026650000000000063e+01 1.416209999999999809e+02 1.405365000000000009e+03
1.209999999999999964e-01 5.693374999999999408e-01 1.965445000000000064e+01 1.411889999999999930e+02 1.405210000000000036e+03
1.219999999999999973e-01 5.692095000000000349e-01 1.903275000000000006e+01 1.407224999999999966e+02 1.405034999999999854e+03
1.229999999999999982e-01 5.690709999999999935e-01 1.839825000000000088e+01 1.402169999999999845e+02 1.404860000000000127e+03
1.239999999999999991e-01 5.689205000000000512e-01 1.774840000000000018e+01 1.396689999999999827e+02 1.404659999999999854e+03
1.250000000000000000e-01 5.687579999999999858e-01 1.708164999999999978e+01 1.390760000000000218e+02 1.404454999999999927e+03
1.260000000000000009e-01 5.685835000000000194e-01 1.639754999999999896e+01 1.384390000000000214e+02 1.404235000000000127e+03
1.270000000000000018e-01 5.683985000000000287e-01 1.569640000000000057e+01 1.377590000000000146e+02 1.403994999999999891e+03
1.280000000000000027e-01 5.682024999999999437e-01 1.497957500000000053e+01 1.370389999999999873e+02 1.403744999999999891e+03
1.290000000000000036e-01 5.679980000000000029e-01 1.424945999999999913e+01 1.362835000000000036e+02 1.403480000000000018e+03
1.300000000000000044e-01 5.677860000000000129e-01 1.350918000000000063e+01 1.354979999999999905e+02 1.403210000000000036e+03
1.310000000000000053e-01 5.675689999999999902e-01 1.276275499999999852e+01 1.346899999999999977e+02 1.402925000000000182e+03
1.320000000000000062e-01 5.673489999999999922e-01 1.201473000000000013e+01 1.338679999999999950e+02 1.402634999999999991e+03
1.330000000000000071e-01 5.671285000000000354e-01 1.127032999999999952e+01 1.330409999999999968e+02 1.402345000000000027e+03
1.340000000000000080e-01 5.669095000000000661e-01 1.053496499999999969e+01 1.322175000000000011e+02 1.402049999999999955e+03
1.350000000000000089e-01 5.666955000000000187e-01 9.814384999999999692e+00 1.314079999999999870e+02 1.401759999999999991e+03
1.360000000000000098e-01 5.664884999999999504e-01 9.114190000000000680e+00 1.306214999999999975e+02 1.401474999999999909e+03
1.370000000000000107e-01 5.662899999999999601e-01 8.440010000000000900e+00 1.298670000000000186e+02 1.401200000000000045e+03
1.380000000000000115e-01 5.661034999999999817e-01 7.796974999999999767e+00 1.291529999999999916e+02 1.400934999999999945e+03
1.390000000000000124e-01 5.659300000000000441e-01 7.189830000000000609e+00 1.284875000000000114e+02 1.400684999999999945e+03
1.400000000000000133e-01 5.657714999999999828e-01 6.622639999999999638e+00 1.278764999999999930e+02 1.400449999999999818e+03
1.410000000000000142e-01 5.656284999999999785e-01 6.098720000000000141e+00 1.273250000000000028e+02 1.400240000000000009e+03
1.420000000000000151e-01 5.655025000000000190e-01 5.620554999999999524e+00 1.268365000000000009e+02 1.400045000000000073e+03
1.430000000000000160e-01 5.653939999999999522e-01 5.189709999999999823e+00 1.264140000000000157e+02 1.399869999999999891e+03
1.440000000000000169e-01 5.653019999999999712e-01 4.806815000000000282e+00 1.260564999999999998e+02 1.399719999999999800e+03
1.450000000000000178e-01 5.652274999999999938e-01 4.471550000000000580e+00 1.257640000000000100e+02 1.399589999999999918e+03
1.459999999999999909e-01 5.651684999999999626e-01 4.182729999999999393e+00 1.255339999999999918e+02 1.399480000000000018e+03
1.469999999999999918e-01 5.651239999999999597e-01 3.938310000000000421e+00 1.253619999999999948e+02 1.399394999999999982e+03
1.479999999999999927e-01 5.650935000000000263e-01 3.735545000000000115e+00 1.252429999999999950e+02 1.399324999999999818e+03
1.489999999999999936e-01 5.650739999999999652e-01 3.571044999999999803e+00 1.251709999999999923e+02 1.399275000000000091e+03
1.499999999999999944e-01 5.650649999999999284e-01 3.440949999999999953e+00 1.251394999999999982e+02 1.399240000000000009e+03
1.509999999999999953e-01 5.650640000000000107e-01 3.341050000000000075e+00 1.251409999999999911e+02 1.399215000000000146e+03
1.519999999999999962e-01 5.650690000000000435e-01 3.266925000000000079e+00 1.251675000000000040e+02 1.399199999999999818e+03
1.529999999999999971e-01 5.650779999999999692e-01 3.214075000000000237e+00 1.252129999999999939e+02 1.399200000000000045e+03
1.539999999999999980e-01 5.650895000000000223e-01 3.178090000000000082e+00 1.252694999999999936e+02 1.399200000000000045e+03
1.549999999999999989e-01 5.651015000000000343e-01 3.154710000000000125e+00 1.253294999999999959e+02 1.399210000000000036e+03
1.559999999999999998e-01 5.651129999999999765e-01 3.139965000000000117e+00 1.253880000000000052e+02 1.399219999999999800e+03
1.570000000000000007e-01 5.651224999999999721e-01 3.130255000000000010e+00 1.254399999999999977e+02 1.399224999999999909e+03
1.580000000000000016e-01 5.651285000000000336e-01 3.122410000000000352e+00 1.254799999999999898e+02 1.399235000000000127e+03
1.590000000000000024e-01 5.651304999999999801e-01 3.113715000000000011e+00 1.255049999999999955e+02 1.399240000000000009e+03
