# t [s], A [cm^2], U [cm/s], P [cPa], c [cm/s]
1.000000000000000021e-03 5.510310000000000485e-01 4.497950000000000559e-03 1.090815000000000055e+02 1.574059999999999945e+03
2.000000000000000042e-03 5.510234999999999994e-01 -3.780335000000000119e-04 1.090614999999999952e+02 1.574054999999999836e+03
3.000000000000000062e-03 5.510595000000000354e-01 6.663630000000000941e-02 1.091324999999999932e+02 1.574075000000000045e+03
4.000000000000000083e-03 5.511044999999999972e-01 1.535075499999999926e-01 1.092460000000000093e+02 1.574105000000000018e+03
5.000000000000000104e-03 5.511019999999999808e-01 1.576779999999999848e-01 1.092495000000000118e+02 1.574110000000000127e+03
6.000000000000000125e-03 5.510625000000000107e-01 8.961550000000000071e-02 1.091165000000000020e+02 1.574079999999999927e+03
7.000000000000000146e-03 5.510234999999999994e-01 1.856849999999998779e-02 1.089209999999999923e+02 1.574039999999999964e+03
8.000000000000000167e-03 5.509764999999999802e-01 -7.480799999999998562e-02 1.086544999999999987e+02 1.573974999999999909e+03
9.000000000000001055e-03 5.508935000000000359e-01 -2.483479999999999577e-01 1.082429999999999950e+02 1.573875000000000000e+03
1.000000000000000194e-02 5.507644999999999902e-01 -5.215449999999999253e-01 1.076355000000000075e+02 1.573735000000000127e+03
1.099999999999999936e-02 5.505809999999999871e-01 -9.064800000000000635e-01 1.067860000000000014e+02 1.573525000000000091e+03
1.200000000000000025e-02 5.503305000000000557e-01 -1.415764999999999940e+00 1.056430000000000007e+02 1.573235000000000127e+03
1.300000000000000114e-02 5.500175000000000480e-01 -2.024074999999999847e+00 1.041995000000000005e+02 1.572869999999999891e+03
1.400000000000000203e-02 5.496719999999999384e-01 -2.650164999999999882e+00 1.025288500000000056e+02 1.572434999999999945e+03
1.499999999999999944e-02 5.493345000000000589e-01 -3.185385000000000133e+00 1.007655000000000030e+02 1.571954999999999927e+03
1.600000000000000033e-02 5.490375000000000671e-01 -3.539276000000000089e+00 9.904734999999999445e+01 1.571474999999999909e+03
1.700000000000000122e-02 5.487910000000000288e-01 -3.668632500000000185e+00 9.746835000000000093e+01 1.571005000000000109e+03
1.800000000000000211e-02 5.485860000000000181e-01 -3.580750000000000099e+00 9.605885000000000673e+01 1.570559999999999945e+03
1.900000000000000300e-02 5.484014999999999862e-01 -3.318641100000000232e+00 9.478974999999999795e+01 1.570144999999999982e+03
2.000000000000000042e-02 5.482145000000000490e-01 -2.939623999999999793e+00 9.359790000000000987e+01 1.569744999999999891e+03
2.100000000000000130e-02 5.480055000000000343e-01 -2.495389000000000301e+00 9.241240000000000521e+01 1.569335000000000036e+03
2.200000000000000219e-02 5.477665000000000450e-01 -2.018569999999999975e+00 9.117884999999999707e+01 1.568920000000000073e+03
2.299999999999999961e-02 5.474999999999999867e-01 -1.518519999999999870e+00 8.987350000000000705e+01 1.568485000000000127e+03
2.400000000000000050e-02 5.472150000000000070e-01 -9.863299999999999290e-01 8.850399999999999068e+01 1.568035000000000082e+03
2.500000000000000139e-02 5.469235000000000069e-01 -4.062250000000000583e-01 8.709874999999999545e+01 1.567575000000000045e+03
2.600000000000000228e-02 5.466345000000000232e-01 2.316400000000000681e-01 8.568970000000000198e+01 1.567109999999999900e+03
2.700000000000000316e-02 5.463504999999999612e-01 9.217500000000002913e-01 8.429664999999999964e+01 1.566644999999999982e+03
2.800000000000000058e-02 5.460665000000000102e-01 1.639624999999999888e+00 8.291649999999999920e+01 1.566175000000000182e+03
2.900000000000000147e-02 5.457720000000000349e-01 2.344339999999999868e+00 8.152134999999999820e+01 1.565710000000000036e+03
3.000000000000000236e-02 5.454505000000000603e-01 2.985654999999999504e+00 8.006385000000000218e+01 1.565230000000000018e+03
3.099999999999999978e-02 5.450900000000000745e-01 3.513695000000000235e+00 7.848855000000000359e+01 1.564720000000000027e+03
3.200000000000000067e-02 5.446800000000000530e-01 3.888790000000000191e+00 7.674555000000000859e+01 1.564175000000000182e+03
3.300000000000000155e-02 5.442185000000000494e-01 4.089164999999999495e+00 7.480434999999999945e+01 1.563579999999999927e+03
3.400000000000000244e-02 5.437110000000000554e-01 4.115085000000000548e+00 7.266325000000000500e+01 1.562940000000000055e+03
3.500000000000000333e-02 5.431694999999999718e-01 3.987935000000000230e+00 7.035284999999998945e+01 1.562255000000000109e+03
3.600000000000000422e-02 5.426130000000000120e-01 3.745249999999999968e+00 6.793304999999999438e+01 1.561535000000000082e+03
3.700000000000000511e-02 5.420629999999999615e-01 3.433695000000000608e+00 6.548435000000000628e+01 1.560809999999999945e+03
3.799999999999999906e-02 5.415395000000000625e-01 3.101030000000000175e+00 6.309675000000000011e+01 1.560095000000000027e+03
3.899999999999999994e-02 5.410599999999999854e-01 2.790135000000000254e+00 6.085859999999999559e+01 1.559410000000000082e+03
4.000000000000000083e-02 5.406379999999999519e-01 2.535270000000000579e+00 5.884799999999999898e+01 1.558789999999999964e+03
4.100000000000000172e-02 5.402835000000000276e-01 2.360614999999999686e+00 5.712715000000000032e+01 1.558235000000000127e+03
4.200000000000000261e-02 5.400019999999999820e-01 2.281460000000000043e+00 5.574020000000000152e+01 1.557775000000000091e+03
4.300000000000000350e-02 5.397950000000000248e-01 2.306309999999999860e+00 5.471439999999999770e+01 1.557405000000000200e+03
4.400000000000000439e-02 5.396639999999999215e-01 2.439621499999999887e+00 5.406264999999999787e+01 1.557144999999999982e+03
4.499999999999999833e-02 5.396079999999999766e-01 2.684269999999999712e+00 5.378750000000000142e+01 1.556994999999999891e+03
4.599999999999999922e-02 5.396265000000000089e-01 3.043199999999999683e+00 5.388500000000000512e+01 1.556954999999999927e+03
4.700000000000000011e-02 5.397180000000000311e-01 3.520025000000000404e+00 5.434714999999999918e+01 1.557019999999999982e+03
4.800000000000000100e-02 5.398815000000000142e-01 4.118524999999999991e+00 5.516369999999999862e+01 1.557190000000000055e+03
4.900000000000000189e-02 5.401154999999999706e-01 4.841490000000000293e+00 5.632220000000000226e+01 1.557464999999999918e+03
5.000000000000000278e-02 5.404169999999999252e-01 5.689239999999999853e+00 5.780704999999999671e+01 1.557839999999999918e+03
5.100000000000000366e-02 5.407819999999999849e-01 6.658284999999999343e+00 5.959855000000000302e+01 1.558305000000000064e+03
5.200000000000000455e-02 5.412044999999999773e-01 7.740395000000000358e+00 6.167164999999999964e+01 1.558865000000000009e+03
5.300000000000000544e-02 5.416775000000000340e-01 8.922644999999999271e+00 6.399535000000000196e+01 1.559500000000000000e+03
5.399999999999999939e-02 5.421930000000000360e-01 1.018778500000000165e+01 6.653294999999999959e+01 1.560215000000000146e+03
5.500000000000000028e-02 5.427410000000000290e-01 1.151530500000000146e+01 6.924365000000000236e+01 1.560980000000000018e+03
5.600000000000000117e-02 5.433129999999999349e-01 1.288302499999999995e+01 7.208360000000000412e+01 1.561795000000000073e+03
5.700000000000000205e-02 5.438984999999999514e-01 1.426840499999999956e+01 7.500874999999999204e+01 1.562644999999999982e+03
5.800000000000000294e-02 5.444904999999999884e-01 1.565026999999999902e+01 7.797690000000000055e+01 1.563514999999999873e+03
5.900000000000000383e-02 5.450809999999999267e-01 1.700976500000000158e+01 8.094980000000001041e+01 1.564400000000000091e+03
6.000000000000000472e-02 5.456644999999999968e-01 1.833115000000000094e+01 8.389525000000000432e+01 1.565289999999999964e+03
6.099999999999999867e-02 5.462365000000000137e-01 1.960255000000000081e+01 8.678770000000000095e+01 1.566170000000000073e+03
6.199999999999999956e-02 5.467944999999999611e-01 2.081544999999999845e+01 8.960904999999999632e+01 1.567039999999999964e+03
6.300000000000000044e-02 5.473379999999999912e-01 2.196495000000000175e+01 9.234874999999999545e+01 1.567894999999999982e+03
6.400000000000000133e-02 5.478659999999999641e-01 2.304874999999999829e+01 9.500270000000000437e+01 1.568724999999999909e+03
6.500000000000000222e-02 5.483795000000000197e-01 2.406705000000000183e+01 9.757144999999999868e+01 1.569534999999999854e+03
6.600000000000000311e-02 5.488804999999999934e-01 2.502149999999999963e+01 1.000615500000000111e+02 1.570329999999999927e+03
6.700000000000000400e-02 5.493704999999999838e-01 2.591485000000000127e+01 1.024798499999999990e+02 1.571105000000000018e+03
6.800000000000000488e-02 5.498509999999999787e-01 2.674990000000000023e+01 1.048369000000000000e+02 1.571855000000000018e+03
6.900000000000000577e-02 5.503234999999999655e-01 2.752965000000000018e+01 1.071415000000000077e+02 1.572599999999999909e+03
7.000000000000000666e-02 5.507889999999999731e-01 2.825645000000000095e+01 1.094004999999999939e+02 1.573324999999999818e+03
7.100000000000000755e-02 5.512489999999999890e-01 2.893164999999999765e+01 1.116214999999999975e+02 1.574039999999999964e+03
7.200000000000000844e-02 5.517030000000000545e-01 2.955559999999999832e+01 1.138054999999999950e+02 1.574750000000000000e+03
7.300000000000000933e-02 5.521504999999999885e-01 3.012770000000000081e+01 1.159524999999999864e+02 1.575440000000000055e+03
7.399999999999999634e-02 5.525895000000000667e-01 3.064614999999999867e+01 1.180589999999999975e+02 1.576125000000000000e+03
7.499999999999999722e-02 5.530189999999999273e-01 3.110835000000000150e+01 1.201165000000000020e+02 1.576789999999999964e+03
7.599999999999999811e-02 5.534360000000000390e-01 3.151104999999999734e+01 1.221165000000000020e+02 1.577445000000000164e+03
7.699999999999999900e-02 5.538385000000000113e-01 3.185069999999999624e+01 1.240455000000000041e+02 1.578075000000000045e+03
7.799999999999999989e-02 5.542230000000000212e-01 3.212354999999999450e+01 1.258924999999999983e+02 1.578684999999999945e+03
7.900000000000000078e-02 5.545875000000000110e-01 3.232625000000000171e+01 1.276430000000000007e+02 1.579264999999999873e+03
8.000000000000000167e-02 5.549294999999999645e-01 3.245595000000000141e+01 1.292839999999999918e+02 1.579815000000000055e+03
8.100000000000000255e-02 5.552464999999999762e-01 3.251030000000000086e+01 1.308034999999999854e+02 1.580329999999999927e+03
8.200000000000000344e-02 5.555360000000000298e-01 3.248810000000000286e+01 1.321920000000000073e+02 1.580805000000000064e+03
8.300000000000000433e-02 5.557974999999999444e-01 3.238875000000000171e+01 1.334399999999999977e+02 1.581240000000000009e+03
8.400000000000000522e-02 5.560289999999999955e-01 3.221269999999999811e+01 1.345430000000000064e+02 1.581630000000000109e+03
8.500000000000000611e-02 5.562310000000000310e-01 3.196150000000000091e+01 1.354954999999999927e+02 1.581974999999999909e+03
8.600000000000000699e-02 5.564020000000000632e-01 3.163759999999999906e+01 1.362975000000000136e+02 1.582275000000000091e+03
8.700000000000000788e-02 5.565434999999999688e-01 3.124435000000000073e+01 1.369495000000000005e+02 1.582529999999999973e+03
8.800000000000000877e-02 5.566564999999999985e-01 3.078600000000000136e+01 1.374565000000000055e+02 1.582735000000000127e+03
8.899999999999999578e-02 5.567410000000000414e-01 3.026789999999999736e+01 1.378224999999999909e+02 1.582900000000000091e+03
8.999999999999999667e-02 5.567995000000000028e-01 2.969589999999999819e+01 1.380564999999999998e+02 1.583019999999999982e+03
9.099999999999999756e-02 5.568340000000000511e-01 2.907679999999999865e+01 1.381680000000000064e+02 1.583099999999999909e+03
9.199999999999999845e-02 5.568459999999999521e-01 2.841794999999999760e+01 1.381680000000000064e+02 1.583144999999999982e+03
9.299999999999999933e-02 5.568385000000000140e-01 2.772704999999999842e+01 1.380695000000000050e+02 1.583154999999999973e+03
9.400000000000000022e-02 5.568150000000000599e-01 2.701229999999999976e+01 1.378860000000000241e+02 1.583134999999999991e+03
9.500000000000000111e-02 5.567769999999999664e-01 2.628184999999999860e+01 1.376305000000000121e+02 1.583089999999999918e+03
9.600000000000000200e-02 5.567275000000000418e-01 2.554350000000000165e+01 1.373185000000000002e+02 1.583025000000000091e+03
9.700000000000000289e-02 5.566699999999999982e-01 2.480485000000000184e+01 1.369625000000000057e+02 1.582940000000000055e+03
9.800000000000000377e-02 5.566060000000000452e-01 2.407264999999999944e+01 1.365755000000000052e+02 1.582840000000000146e+03
9.900000000000000466e-02 5.565379999999999772e-01 2.335280000000000200e+01 1.361705000000000041e+02 1.582730000000000018e+03
1.000000000000000056e-01 5.564675000000000038e-01 2.264999999999999858e+01 1.357549999999999955e+02 1.582610000000000127e+03
1.010000000000000064e-01 5.563964999999999606e-01 2.196770000000000067e+01 1.353385000000000105e+02 1.582489999999999782e+03
1.020000000000000073e-01 5.563255000000000283e-01 2.130819999999999936e+01 1.349265000000000043e+02 1.582365000000000009e+03
1.030000000000000082e-01 5.562549999999999439e-01 2.067224999999999824e+01 1.345215000000000032e+02 1.582240000000000009e+03
1.040000000000000091e-01 5.561844999999999706e-01 2.005940000000000012e+01 1.341254999999999882e+02 1.582119999999999891e+03
1.050000000000000100e-01 5.561145000000000671e-01 1.946815000000000140e+01 1.337369999999999948e+02 1.581994999999999891e+03
1.059999999999999970e-01 5.560435000000000239e-01 1.889594999999999914e+01 1.333534999999999968e+02 1.581869999999999891e+03
1.069999999999999979e-01 5.559709999999999930e-01 1.833950000000000102e+01 1.329710000000000036e+02 1.581750000000000000e+03
1.079999999999999988e-01 5.558965000000000156e-01 1.779500000000000171e+01 1.325840000000000032e+02 1.581625000000000000e+03
1.089999999999999997e-01 5.558175000000000754e-01 1.725849999999999795e+01 1.321870000000000118e+02 1.581494999999999891e+03
1.100000000000000006e-01 5.557334999999999914e-01 1.672579999999999956e+01 1.317735000000000127e+02 1.581369999999999891e+03
1.110000000000000014e-01 5.556444999999999856e-01 1.619294999999999973e+01 1.313385000000000105e+02 1.581230000000000018e+03
1.120000000000000023e-01 5.555474999999999719e-01 1.565644999999999953e+01 1.308764999999999930e+02 1.581085000000000036e+03
1.130000000000000032e-01 5.554440000000000488e-01 1.511310000000000109e+01 1.303845000000000027e+02 1.580929999999999836e+03
1.140000000000000041e-01 5.553325000000000067e-01 1.456064999999999898e+01 1.298580000000000041e+02 1.580764999999999873e+03
1.150000000000000050e-01 5.552129999999999566e-01 1.399746000000000024e+01 1.292959999999999923e+02 1.580594999999999800e+03
1.160000000000000059e-01 5.550865000000000382e-01 1.342285000000000039e+01 1.286999999999999886e+02 1.580410000000000082e+03
1.170000000000000068e-01 5.549524999999999597e-01 1.283683999999999870e+01 1.280709999999999980e+02 1.580220000000000027e+03
1.180000000000000077e-01 5.548130000000000006e-01 1.224067499999999953e+01 1.274120000000000061e+02 1.580019999999999982e+03
1.190000000000000085e-01 5.546685000000000088e-01 1.163619500000000073e+01 1.267289999999999992e+02 1.579809999999999945e+03
1.200000000000000094e-01 5.545210000000000417e-01 1.102619999999999933e+01 1.260279999999999916e+02 1.579599999999999909e+03
1.209999999999999964e-01 5.543719999999999759e-01 1.041424499999999931e+01 1.253164999999999907e+02 1.579380000000000109e+03
1.219999999999999973e-01 5.542234999999999800e-01 9.804425000000000168e+00 1.246034999999999968e+02 1.579164999999999964e+03
1.229999999999999982e-01 5.540769999999999307e-01 9.201364999999999128e+00 1.238990000000000009e+02 1.578945000000000164e+03
1.239999999999999991e-01 5.539349999999999552e-01 8.609909999999999286e+00 1.232120000000000033e+02 1.578730000000000018e+03
1.250000000000000000e-01 5.538000000000000700e-01 8.035050000000000026e+00 1.225519999999999925e+02 1.578525000000000091e+03
1.260000000000000009e-01 5.536734999999999296e-01 7.481849999999999667e+00 1.219294999999999902e+02 1.578325000000000045e+03
1.270000000000000018e-01 5.535569999999999657e-01 6.954939999999999678e+00 1.213529999999999944e+02 1.578139999999999873e+03
1.280000000000000027e-01 5.534520000000000550e-01 6.458624999999999616e+00 1.208305000000000007e+02 1.577970000000000027e+03
1.290000000000000036e-01 5.533600000000000740e-01 5.996614999999999363e+00 1.203695000000000022e+02 1.577815000000000055e+03
1.300000000000000044e-01 5.532825000000000104e-01 5.571920000000000428e+00 1.199735000000000014e+02 1.577675000000000182e+03
1.310000000000000053e-01 5.532190000000000163e-01 5.186709999999999710e+00 1.196479999999999961e+02 1.577559999999999945e+03
1.320000000000000062e-01 5.531705000000000094e-01 4.842310000000000336e+00 1.193934999999999889e+02 1.577465000000000146e+03
1.330000000000000071e-01 5.531365000000000309e-01 4.539119999999999600e+00 1.192104999999999961e+02 1.577394999999999982e+03
1.340000000000000080e-01 5.531165000000000109e-01 4.276669999999999305e+00 1.190980000000000132e+02 1.577340000000000146e+03
1.350000000000000089e-01 5.531099999999999905e-01 4.053655000000000008e+00 1.190509999999999877e+02 1.577304999999999836e+03
1.360000000000000098e-01 5.531160000000000521e-01 3.868025000000000269e+00 1.190664999999999907e+02 1.577289999999999964e+03
1.370000000000000107e-01 5.531325000000000269e-01 3.717125000000000234e+00 1.191370000000000005e+02 1.577289999999999964e+03
1.380000000000000115e-01 5.531580000000000386e-01 3.597795000000000076e+00 1.192570000000000050e+02 1.577309999999999945e+03
1.390000000000000124e-01 5.531915000000000582e-01 3.506549999999999834e+00 1.194180000000000064e+02 1.577345000000000027e+03
1.400000000000000133e-01 5.532314999999999872e-01 3.439680000000000071e+00 1.196119999999999948e+02 1.577389999999999873e+03
1.410000000000000142e-01 5.532759999999999900e-01 3.393435000000000201e+00 1.198324999999999960e+02 1.577444999999999936e+03
1.420000000000000151e-01 5.533239999999999270e-01 3.364135000000000097e+00 1.200704999999999956e+02 1.577505000000000109e+03
1.430000000000000160e-01 5.533734999999999626e-01 3.348250000000000171e+00 1.203195000000000050e+02 1.577570000000000164e+03
1.440000000000000169e-01 5.534240000000000270e-01 3.342530000000000001e+00 1.205740000000000123e+02 1.577639999999999873e+03
1.450000000000000178e-01 5.534740000000000215e-01 3.344014999999999738e+00 1.208269999999999982e+02 1.577715000000000146e+03
1.459999999999999909e-01 5.535229999999999873e-01 3.350125000000000242e+00 1.210750000000000028e+02 1.577784999999999854e+03
1.469999999999999918e-01 5.535700000000000065e-01 3.358649999999999913e+00 1.213135000000000048e+02 1.577855000000000018e+03
1.479999999999999927e-01 5.536145000000000094e-01 3.367754999999999832e+00 1.215405000000000086e+02 1.577925000000000182e+03
1.489999999999999936e-01 5.536570000000000658e-01 3.375995000000000079e+00 1.217535000000000025e+02 1.577985000000000127e+03
1.499999999999999944e-01 5.536965000000000359e-01 3.382249999999999979e+00 1.219509999999999934e+02 1.578049999999999955e+03
1.509999999999999953e-01 5.537324999999999608e-01 3.385745000000000005e+00 1.221334999999999980e+02 1.578105000000000018e+03
1.519999999999999962e-01 5.537659999999999805e-01 3.385990000000000055e+00 1.222994999999999948e+02 1.578159999999999854e+03
1.529999999999999971e-01 5.537969999999999837e-01 3.382719999999999949e+00 1.224515000000000100e+02 1.578210000000000036e+03
1.539999999999999980e-01 5.538250000000000117e-01 3.375904999999999934e+00 1.225889999999999986e+02 1.578260000000000218e+03
1.549999999999999989e-01 5.538509999999999822e-01 3.365654999999999841e+00 1.227129999999999939e+02 1.578295000000000073e+03
1.559999999999999998e-01 5.538739999999999775e-01 3.352224999999999788e+00 1.228250000000000028e+02 1.578335000000000036e+03
1.570000000000000007e-01 5.538960000000000550e-01 3.335925000000000029e+00 1.229259999999999877e+02 1.578375000000000000e+03
1.580000000000000016e-01 5.539159999999999640e-01 3.317120000000000068e+00 1.230160000000000053e+02 1.578404999999999973e+03
1.590000000000000024e-01 5.539339999999999264e-01 3.296165000000000234e+00 1.230979999999999990e+02 1.578434999999999945e+03
