# t [s], A [cm^2], U [cm/s], P [cPa], c [cm/s]
1.000000000000000021e-03 5.645120000000000138e-01 3.361250000000003124e-03 9.794625000000000625e+01 1.416950000000000045e+03
2.000000000000000042e-03 5.645044999999999646e-01 6.484099999999998719e-04 9.793369999999998754e+01 1.416944999999999936e+03
3.000000000000000062e-03 5.645219999999999683e-01 2.773885000000000239e-02 9.795625000000001137e+01 1.416950000000000045e+03
4.000000000000000083e-03 5.645694999999999464e-01 1.035217999999999972e-01 9.804355000000001041e+01 1.416980000000000018e+03
5.000000000000000104e-03 5.645930000000000115e-01 1.463195000000000190e-01 9.809820000000000562e+01 1.417000000000000000e+03
6.000000000000000125e-03 5.645740000000000203e-01 1.216326500000000088e-01 9.805959999999998900e+01 1.416990000000000009e+03
7.000000000000000146e-03 5.645350000000000090e-01 6.252050000000000662e-02 9.794599999999999795e+01 1.416965000000000146e+03
8.000000000000000167e-03 5.645004999999999606e-01 9.178499999999978343e-03 9.780199999999999250e+01 1.416930000000000064e+03
9.000000000000001055e-03 5.644584999999999742e-01 -6.219550000000001466e-02 9.761195000000000732e+01 1.416875000000000000e+03
1.000000000000000194e-02 5.643875000000000419e-01 -1.899159999999999737e-01 9.733154999999999291e+01 1.416805000000000064e+03
1.099999999999999936e-02 5.642810000000000326e-01 -3.867300000000000182e-01 9.693170000000000641e+01 1.416700000000000045e+03
1.200000000000000025e-02 5.641329999999999956e-01 -6.591500000000000137e-01 9.638660000000000139e+01 1.416554999999999836e+03
1.300000000000000114e-02 5.639330000000000176e-01 -1.018085000000000129e+00 9.566370000000000573e+01 1.416365000000000009e+03
1.400000000000000203e-02 5.636780000000000124e-01 -1.460430000000000117e+00 9.474250000000000682e+01 1.416115000000000009e+03
1.499999999999999944e-02 5.633799999999999919e-01 -1.950635000000000119e+00 9.364019999999999300e+01 1.415809999999999945e+03
1.600000000000000033e-02 5.630675000000000541e-01 -2.424725000000000019e+00 9.241550000000000864e+01 1.415454999999999927e+03
1.700000000000000122e-02 5.627679999999999350e-01 -2.812434999999999796e+00 9.114850000000001273e+01 1.415085000000000036e+03
1.800000000000000211e-02 5.625020000000000575e-01 -3.060376500000000277e+00 8.991339999999999577e+01 1.414704999999999927e+03
1.900000000000000300e-02 5.622755000000000392e-01 -3.144227499999999953e+00 8.875829999999999131e+01 1.414335000000000036e+03
2.000000000000000042e-02 5.620804999999999829e-01 -3.068810000000000038e+00 8.769759999999999422e+01 1.413974999999999909e+03
2.100000000000000130e-02 5.619009999999999838e-01 -2.860001999999999711e+00 8.671600000000000819e+01 1.413634999999999991e+03
2.200000000000000219e-02 5.617195000000000382e-01 -2.553570000000000118e+00 8.577899999999999636e+01 1.413295000000000073e+03
2.299999999999999961e-02 5.615209999999999368e-01 -2.184379999999999988e+00 8.484590000000000032e+01 1.412960000000000036e+03
2.400000000000000050e-02 5.612964999999999760e-01 -1.778340000000000032e+00 8.388159999999999172e+01 1.412610000000000127e+03
2.500000000000000139e-02 5.610435000000000283e-01 -1.348189999999999777e+00 8.286519999999998731e+01 1.412240000000000009e+03
2.600000000000000228e-02 5.607674999999999743e-01 -8.938150000000002482e-01 8.179340000000000543e+01 1.411860000000000127e+03
2.700000000000000316e-02 5.604774999999999618e-01 -4.064550000000000107e-01 8.067824999999999136e+01 1.411465000000000146e+03
2.800000000000000058e-02 5.601829999999999865e-01 1.248300000000002186e-01 7.954085000000000605e+01 1.411065000000000055e+03
2.900000000000000147e-02 5.598909999999999165e-01 7.065749999999999531e-01 7.840285000000000082e+01 1.410655000000000200e+03
3.000000000000000236e-02 5.596045000000000602e-01 1.336004999999999887e+00 7.727930000000000632e+01 1.410255000000000109e+03
3.099999999999999978e-02 5.593204999999999982e-01 1.999074999999999935e+00 7.617289999999999850e+01 1.409849999999999909e+03
3.200000000000000067e-02 5.590325000000000433e-01 2.671280000000000321e+00 7.507319999999999993e+01 1.409449999999999818e+03
3.300000000000000155e-02 5.587305000000000188e-01 3.320929999999999715e+00 7.395754999999999768e+01 1.409045000000000073e+03
3.400000000000000244e-02 5.584040000000000115e-01 3.913899999999999935e+00 7.279619999999999891e+01 1.408634999999999991e+03
3.500000000000000333e-02 5.580439999999999845e-01 4.419019999999999726e+00 7.155819999999999936e+01 1.408194999999999936e+03
3.600000000000000422e-02 5.576444999999999874e-01 4.813055000000000305e+00 7.021799999999998931e+01 1.407740000000000009e+03
3.700000000000000511e-02 5.572059999999999791e-01 5.084270000000000067e+00 6.876220000000000709e+01 1.407255000000000109e+03
3.799999999999999906e-02 5.567329999999999224e-01 5.233900000000000219e+00 6.719259999999999877e+01 1.406735000000000127e+03
3.899999999999999994e-02 5.562359999999999527e-01 5.275814999999999699e+00 6.552824999999999989e+01 1.406194999999999936e+03
4.000000000000000083e-02 5.557290000000000285e-01 5.233450000000000379e+00 6.380320000000000391e+01 1.405634999999999991e+03
4.100000000000000172e-02 5.552269999999999150e-01 5.136000000000000121e+00 6.206284999999999741e+01 1.405075000000000045e+03
4.200000000000000261e-02 5.547459999999999614e-01 5.014244999999999841e+00 6.035864999999999725e+01 1.404515000000000100e+03
4.300000000000000350e-02 5.543000000000000149e-01 4.897114999999999441e+00 5.874249999999999972e+01 1.403985000000000127e+03
4.400000000000000439e-02 5.538990000000000302e-01 4.808825000000000571e+00 5.726224999999999454e+01 1.403485000000000127e+03
4.499999999999999833e-02 5.535529999999999617e-01 4.768105000000000260e+00 5.595864999999999867e+01 1.403039999999999964e+03
4.599999999999999922e-02 5.532660000000000355e-01 4.787908999999999970e+00 5.486334999999999695e+01 1.402650000000000091e+03
4.700000000000000011e-02 5.530420000000000336e-01 4.876406999999999492e+00 5.399869999999999948e+01 1.402325000000000045e+03
4.800000000000000100e-02 5.528830000000000133e-01 5.038319999999999688e+00 5.337870000000000203e+01 1.402075000000000045e+03
4.900000000000000189e-02 5.527885000000000160e-01 5.276485000000000092e+00 5.301045000000000584e+01 1.401904999999999973e+03
5.000000000000000278e-02 5.527579999999999716e-01 5.593164999999999942e+00 5.289624999999999488e+01 1.401815000000000055e+03
5.100000000000000366e-02 5.527919999999999501e-01 5.990985000000000227e+00 5.303504999999999825e+01 1.401805000000000064e+03
5.200000000000000455e-02 5.528899999999999926e-01 6.473340000000000316e+00 5.342445000000000022e+01 1.401875000000000000e+03
5.300000000000000544e-02 5.530515000000000292e-01 7.044195000000000206e+00 5.406095000000000539e+01 1.402029999999999973e+03
5.399999999999999939e-02 5.532764999999999489e-01 7.707510000000000083e+00 5.494039999999999679e+01 1.402255000000000109e+03
5.500000000000000028e-02 5.535639999999999450e-01 8.466374999999999318e+00 5.605759999999999366e+01 1.402565000000000055e+03
5.600000000000000117e-02 5.539125000000000298e-01 9.322050000000000836e+00 5.740559999999999263e+01 1.402950000000000045e+03
5.700000000000000205e-02 5.543190000000000062e-01 1.027333499999999944e+01 5.897475000000000023e+01 1.403409999999999854e+03
5.800000000000000294e-02 5.547800000000000509e-01 1.131602499999999978e+01 6.075249999999999773e+01 1.403934999999999945e+03
5.900000000000000383e-02 5.552909999999999791e-01 1.244268499999999911e+01 6.272249999999999659e+01 1.404529999999999973e+03
6.000000000000000472e-02 5.558454999999999924e-01 1.364310499999999848e+01 6.486514999999999986e+01 1.405179999999999836e+03
6.099999999999999867e-02 5.564375000000000293e-01 1.490475499999999975e+01 6.715770000000000550e+01 1.405884999999999991e+03
6.199999999999999956e-02 5.570585000000000120e-01 1.621345999999999776e+01 6.957514999999999361e+01 1.406639999999999873e+03
6.300000000000000044e-02 5.577024999999999899e-01 1.755432000000000059e+01 7.209144999999999470e+01 1.407429999999999836e+03
6.400000000000000133e-02 5.583624999999999838e-01 1.891254999999999953e+01 7.468030000000000257e+01 1.408255000000000109e+03
6.500000000000000222e-02 5.590319999999999734e-01 2.027410000000000068e+01 7.731665000000000987e+01 1.409099999999999909e+03
6.600000000000000311e-02 5.597054999999999669e-01 2.162644999999999840e+01 7.997740000000000293e+01 1.409960000000000036e+03
6.700000000000000400e-02 5.603789999999999605e-01 2.295880000000000010e+01 8.264254999999999995e+01 1.410835000000000036e+03
6.800000000000000488e-02 5.610479999999999912e-01 2.426225000000000165e+01 8.529524999999999579e+01 1.411704999999999927e+03
6.900000000000000577e-02 5.617105000000000015e-01 2.553014999999999901e+01 8.792255000000000109e+01 1.412579999999999927e+03
7.000000000000000666e-02 5.623655000000000737e-01 2.675740000000000052e+01 9.051500000000000057e+01 1.413449999999999818e+03
7.100000000000000755e-02 5.630104999999999693e-01 2.794079999999999586e+01 9.306655000000000655e+01 1.414305000000000064e+03
7.200000000000000844e-02 5.636470000000000091e-01 2.907825000000000060e+01 9.557429999999999382e+01 1.415160000000000082e+03
7.300000000000000933e-02 5.642739999999999423e-01 3.016875000000000284e+01 9.803725000000000023e+01 1.415994999999999891e+03
7.399999999999999634e-02 5.648925000000000196e-01 3.121204999999999785e+01 1.004564000000000021e+02 1.416825000000000045e+03
7.499999999999999722e-02 5.655025000000000190e-01 3.220814999999999628e+01 1.028337999999999965e+02 1.417639999999999873e+03
7.599999999999999811e-02 5.661049999999999693e-01 3.315709999999999980e+01 1.051722499999999911e+02 1.418449999999999818e+03
7.699999999999999900e-02 5.667010000000000103e-01 3.405904999999999916e+01 1.074741500000000087e+02 1.419244999999999891e+03
7.799999999999999989e-02 5.672890000000000432e-01 3.491369999999999862e+01 1.097409999999999997e+02 1.420029999999999973e+03
7.900000000000000078e-02 5.678704999999999448e-01 3.572050000000000125e+01 1.119735000000000014e+02 1.420805000000000064e+03
8.000000000000000167e-02 5.684434999999999905e-01 3.647840000000000060e+01 1.141715000000000089e+02 1.421569999999999936e+03
8.100000000000000255e-02 5.690085000000000282e-01 3.718569999999999709e+01 1.163329999999999984e+02 1.422325000000000045e+03
8.200000000000000344e-02 5.695635000000000003e-01 3.784055000000000035e+01 1.184549999999999983e+02 1.423065000000000055e+03
8.300000000000000433e-02 5.701065000000000715e-01 3.844050000000000011e+01 1.205314999999999941e+02 1.423799999999999955e+03
8.400000000000000522e-02 5.706364999999999910e-01 3.898304999999999865e+01 1.225575000000000045e+02 1.424509999999999991e+03
8.500000000000000611e-02 5.711519999999999930e-01 3.946545000000000414e+01 1.245254999999999939e+02 1.425204999999999927e+03
8.600000000000000699e-02 5.716499999999999915e-01 3.988504999999999967e+01 1.264279999999999973e+02 1.425884999999999991e+03
8.700000000000000788e-02 5.721285000000000398e-01 4.023960000000000292e+01 1.282570000000000050e+02 1.426534999999999854e+03
8.800000000000000877e-02 5.725854999999999695e-01 4.052679999999999438e+01 1.300045000000000073e+02 1.427159999999999854e+03
8.899999999999999578e-02 5.730199999999999738e-01 4.074530000000000030e+01 1.316645000000000039e+02 1.427764999999999873e+03
8.999999999999999667e-02 5.734299999999999953e-01 4.089385000000000048e+01 1.332295000000000016e+02 1.428329999999999927e+03
9.099999999999999756e-02 5.738140000000000462e-01 4.097209999999999752e+01 1.346940000000000168e+02 1.428875000000000000e+03
9.199999999999999845e-02 5.741709999999999869e-01 4.098009999999999309e+01 1.360529999999999973e+02 1.429375000000000000e+03
9.299999999999999933e-02 5.745004999999999695e-01 4.091870000000000118e+01 1.373040000000000020e+02 1.429845000000000027e+03
9.400000000000000022e-02 5.748020000000000351e-01 4.078914999999999935e+01 1.384445000000000050e+02 1.430275000000000091e+03
9.500000000000000111e-02 5.750754999999999617e-01 4.059335000000000093e+01 1.394739999999999895e+02 1.430675000000000182e+03
9.600000000000000200e-02 5.753215000000000412e-01 4.033389999999999986e+01 1.403919999999999959e+02 1.431029999999999973e+03
9.700000000000000289e-02 5.755394999999999817e-01 4.001355000000000217e+01 1.412015000000000100e+02 1.431355000000000018e+03
9.800000000000000377e-02 5.757304999999999229e-01 3.963595000000000113e+01 1.419030000000000200e+02 1.431639999999999873e+03
9.900000000000000466e-02 5.758955000000000046e-01 3.920490000000000208e+01 1.425024999999999977e+02 1.431889999999999873e+03
1.000000000000000056e-01 5.760365000000000624e-01 3.872485000000000355e+01 1.430024999999999977e+02 1.432105000000000018e+03
1.010000000000000064e-01 5.761540000000000550e-01 3.820060000000000144e+01 1.434100000000000250e+02 1.432285000000000082e+03
1.020000000000000073e-01 5.762494999999999701e-01 3.763729999999999620e+01 1.437309999999999945e+02 1.432434999999999945e+03
1.030000000000000082e-01 5.763249999999999762e-01 3.704030000000000200e+01 1.439714999999999918e+02 1.432555000000000064e+03
1.040000000000000091e-01 5.763829999999999787e-01 3.641530000000000200e+01 1.441405000000000030e+02 1.432650000000000091e+03
1.050000000000000100e-01 5.764245000000000063e-01 3.576809999999999690e+01 1.442454999999999927e+02 1.432720000000000027e+03
1.059999999999999970e-01 5.764525000000000343e-01 3.510439999999999827e+01 1.442939999999999827e+02 1.432769999999999982e+03
1.069999999999999979e-01 5.764685000000000503e-01 3.442980000000000018e+01 1.442950000000000159e+02 1.432795000000000073e+03
1.079999999999999988e-01 5.764749999999999597e-01 3.374974999999999881e+01 1.442565000000000168e+02 1.432804999999999836e+03
1.089999999999999997e-01 5.764730000000000132e-01 3.306909999999999883e+01 1.441854999999999905e+02 1.432804999999999836e+03
1.100000000000000006e-01 5.764644999999999353e-01 3.239220000000000255e+01 1.440894999999999868e+02 1.432795000000000073e+03
1.110000000000000014e-01 5.764515000000000056e-01 3.172279999999999944e+01 1.439749999999999943e+02 1.432764999999999873e+03
1.120000000000000023e-01 5.764340000000000019e-01 3.106390000000000029e+01 1.438460000000000036e+02 1.432740000000000009e+03
1.130000000000000032e-01 5.764135000000000231e-01 3.041769999999999641e+01 1.437074999999999818e+02 1.432700000000000045e+03
1.140000000000000041e-01 5.763909999999999867e-01 2.978540000000000276e+01 1.435620000000000118e+02 1.432660000000000082e+03
1.150000000000000050e-01 5.763659999999999339e-01 2.916769999999999641e+01 1.434120000000000061e+02 1.432615000000000009e+03
1.160000000000000059e-01 5.763384999999999758e-01 2.856435000000000102e+01 1.432570000000000050e+02 1.432570000000000164e+03
1.170000000000000068e-01 5.763085000000000013e-01 2.797435000000000116e+01 1.430964999999999918e+02 1.432514999999999873e+03
1.180000000000000077e-01 5.762749999999999817e-01 2.739630000000000010e+01 1.429295000000000186e+02 1.432460000000000036e+03
1.190000000000000085e-01 5.762380000000000280e-01 2.682829999999999870e+01 1.427540000000000191e+02 1.432400000000000091e+03
1.200000000000000094e-01 5.761965000000000003e-01 2.626800000000000068e+01 1.425654999999999859e+02 1.432340000000000146e+03
1.209999999999999964e-01 5.761494999999999811e-01 2.571284999999999954e+01 1.423629999999999995e+02 1.432269999999999982e+03
1.219999999999999973e-01 5.760960000000000525e-01 2.516024999999999778e+01 1.421415000000000077e+02 1.432194999999999936e+03
1.229999999999999982e-01 5.760354999999999226e-01 2.460775000000000290e+01 1.418985000000000127e+02 1.432115000000000009e+03
1.239999999999999991e-01 5.759674999999999656e-01 2.405284999999999940e+01 1.416310000000000002e+02 1.432019999999999982e+03
1.250000000000000000e-01 5.758915000000000006e-01 2.349340000000000117e+01 1.413355000000000246e+02 1.431924999999999955e+03
1.260000000000000009e-01 5.758064999999999989e-01 2.292750000000000199e+01 1.410105000000000075e+02 1.431820000000000164e+03
1.270000000000000018e-01 5.757129999999999193e-01 2.235379999999999967e+01 1.406554999999999893e+02 1.431704999999999927e+03
1.280000000000000027e-01 5.756110000000000948e-01 2.177130000000000010e+01 1.402685000000000173e+02 1.431575000000000045e+03
1.290000000000000036e-01 5.755000000000000115e-01 2.117949999999999733e+01 1.398499999999999943e+02 1.431440000000000055e+03
1.300000000000000044e-01 5.753810000000000313e-01 2.057849999999999824e+01 1.394010000000000105e+02 1.431295000000000073e+03
1.310000000000000053e-01 5.752550000000000718e-01 1.996884999999999977e+01 1.389250000000000114e+02 1.431139999999999873e+03
1.320000000000000062e-01 5.751220000000000221e-01 1.935174999999999912e+01 1.384230000000000018e+02 1.430974999999999909e+03
1.330000000000000071e-01 5.749845000000000095e-01 1.872875000000000156e+01 1.378999999999999773e+02 1.430804999999999836e+03
1.340000000000000080e-01 5.748419999999999641e-01 1.810204999999999842e+01 1.373589999999999804e+02 1.430625000000000000e+03
1.350000000000000089e-01 5.746970000000000134e-01 1.747419999999999973e+01 1.368064999999999998e+02 1.430440000000000055e+03
1.360000000000000098e-01 5.745514999999999928e-01 1.684815000000000040e+01 1.362475000000000023e+02 1.430259999999999991e+03
1.370000000000000107e-01 5.744065000000000420e-01 1.622695000000000221e+01 1.356875000000000000e+02 1.430070000000000164e+03
1.380000000000000115e-01 5.742629999999999679e-01 1.561414999999999864e+01 1.351334999999999980e+02 1.429880000000000109e+03
1.390000000000000124e-01 5.741235000000000088e-01 1.501314999999999955e+01 1.345910000000000082e+02 1.429700000000000045e+03
1.400000000000000133e-01 5.739895000000000413e-01 1.442745000000000033e+01 1.340659999999999741e+02 1.429519999999999982e+03
1.410000000000000142e-01 5.738619999999999832e-01 1.386036999999999964e+01 1.335649999999999977e+02 1.429349999999999909e+03
1.420000000000000151e-01 5.737430000000000030e-01 1.331517499999999998e+01 1.330925000000000011e+02 1.429179999999999836e+03
1.430000000000000160e-01 5.736330000000000595e-01 1.279468500000000120e+01 1.326539999999999964e+02 1.429025000000000091e+03
1.440000000000000169e-01 5.735335000000000294e-01 1.230147999999999975e+01 1.322540000000000191e+02 1.428884999999999991e+03
1.450000000000000178e-01 5.734455000000000524e-01 1.183750999999999998e+01 1.318949999999999818e+02 1.428755000000000109e+03
1.459999999999999909e-01 5.733685000000000587e-01 1.140442000000000000e+01 1.315790000000000077e+02 1.428634999999999991e+03
1.469999999999999918e-01 5.733034999999999659e-01 1.100321500000000086e+01 1.313089999999999975e+02 1.428529999999999973e+03
1.479999999999999927e-01 5.732494999999999674e-01 1.063436499999999896e+01 1.310844999999999914e+02 1.428440000000000055e+03
1.489999999999999936e-01 5.732079999999999398e-01 1.029786000000000001e+01 1.309044999999999845e+02 1.428369999999999891e+03
1.499999999999999944e-01 5.731770000000000476e-01 9.993100000000000094e+00 1.307690000000000055e+02 1.428305000000000064e+03
1.509999999999999953e-01 5.731565000000000687e-01 9.719034999999999869e+00 1.306740000000000066e+02 1.428259999999999991e+03
1.519999999999999962e-01 5.731455000000000854e-01 9.474160000000001247e+00 1.306175000000000068e+02 1.428224999999999909e+03
1.529999999999999971e-01 5.731424999999999992e-01 9.256685000000000940e+00 1.305960000000000036e+02 1.428199999999999818e+03
1.539999999999999980e-01 5.731474999999999209e-01 9.064479999999999649e+00 1.306049999999999898e+02 1.428195000000000164e+03
1.549999999999999989e-01 5.731585000000000152e-01 8.895324999999999704e+00 1.306405000000000030e+02 1.428195000000000164e+03
1.559999999999999998e-01 5.731740000000000723e-01 8.746755000000000280e+00 1.306980000000000075e+02 1.428194999999999936e+03
1.570000000000000007e-01 5.731945000000000512e-01 8.616389999999999105e+00 1.307729999999999961e+02 1.428215000000000146e+03
1.580000000000000016e-01 5.732169999999999765e-01 8.501839999999999620e+00 1.308614999999999782e+02 1.428230000000000018e+03
1.590000000000000024e-01 5.732424999999999882e-01 8.400835000000000719e+00 1.309594999999999914e+02 1.428255000000000109e+03
