# t [s], A [cm^2], U [cm/s], P [cPa], c [cm/s]
1.000000000000000021e-03 1.720355000000000079e-01 3.440537499999999915e-01 8.871809999999999263e+01 2.203699999999999818e+03
2.000000000000000042e-03 1.719860000000000000e-01 1.793497500000000189e+00 8.527160000000000650e+01 2.203195000000000164e+03
3.000000000000000062e-03 1.718649999999999900e-01 3.572099000000000135e+00 8.053159999999999741e+01 2.201984999999999673e+03
4.000000000000000083e-03 1.717069999999999985e-01 5.586373500000000547e+00 7.561584999999999468e+01 2.200444999999999709e+03
5.000000000000000104e-03 1.715450000000000030e-01 7.743185000000000429e+00 7.146999999999999886e+01 2.198875000000000000e+03
6.000000000000000125e-03 1.713939999999999908e-01 9.800229999999999109e+00 6.816800000000000637e+01 2.197430000000000291e+03
7.000000000000000146e-03 1.712535000000000029e-01 1.153866499999999995e+01 6.526064999999999827e+01 2.196114999999999782e+03
8.000000000000000167e-03 1.711274999999999880e-01 1.295446000000000097e+01 6.263609999999999900e+01 2.194960000000000036e+03
9.000000000000001055e-03 1.710194999999999910e-01 1.411144999999999960e+01 6.045395000000000607e+01 2.193985000000000127e+03
1.000000000000000194e-02 1.709320000000000006e-01 1.503204999999999991e+01 5.873740000000000805e+01 2.193199999999999818e+03
1.099999999999999936e-02 1.708629999999999871e-01 1.573270000000000124e+01 5.742069999999999652e+01 2.192585000000000036e+03
1.200000000000000025e-02 1.708085000000000020e-01 1.621890000000000143e+01 5.639475000000000193e+01 2.192114999999999782e+03
1.300000000000000114e-02 1.707635000000000125e-01 1.648894999999999911e+01 5.549115000000000464e+01 2.191730000000000018e+03
1.400000000000000203e-02 1.707259999999999889e-01 1.660719999999999885e+01 5.467139999999999844e+01 2.191414999999999964e+03
1.499999999999999944e-02 1.707000000000000184e-01 1.674624999999999986e+01 5.424179999999999779e+01 2.191204999999999927e+03
1.600000000000000033e-02 1.706984999999999753e-01 1.711270000000000024e+01 5.474784999999999968e+01 2.191199999999999818e+03
1.700000000000000122e-02 1.707315000000000083e-01 1.781434999999999746e+01 5.657949999999999591e+01 2.191500000000000000e+03
1.800000000000000211e-02 1.708004999999999940e-01 1.878065000000000140e+01 5.962349999999999994e+01 2.192119999999999891e+03
1.900000000000000300e-02 1.708935000000000037e-01 1.978914999999999935e+01 6.322249999999999659e+01 2.192960000000000036e+03
2.000000000000000042e-02 1.709890000000000021e-01 2.056844999999999857e+01 6.644164999999999566e+01 2.193845000000000255e+03
2.100000000000000130e-02 1.710669999999999968e-01 2.091510000000000247e+01 6.846155000000000257e+01 2.194579999999999927e+03
2.200000000000000219e-02 1.711094999999999977e-01 2.076679999999999993e+01 6.889209999999999923e+01 2.195005000000000109e+03
2.299999999999999961e-02 1.711150000000000171e-01 2.020835000000000292e+01 6.787465000000000259e+01 2.195085000000000036e+03
2.400000000000000050e-02 1.710885000000000045e-01 1.941624999999999801e+01 6.595539999999999736e+01 2.194875000000000000e+03
2.500000000000000139e-02 1.710459999999999758e-01 1.857620000000000005e+01 6.381399999999999295e+01 2.194500000000000000e+03
2.600000000000000228e-02 1.709994999999999987e-01 1.781180000000000163e+01 6.198545000000000016e+01 2.194074999999999818e+03
2.700000000000000316e-02 1.709589999999999999e-01 1.715279999999999916e+01 6.069050000000000011e+01 2.193704999999999927e+03
2.800000000000000058e-02 1.709269999999999956e-01 1.654639999999999844e+01 5.982175000000000153e+01 2.193404999999999745e+03
2.900000000000000147e-02 1.708985000000000087e-01 1.589974999999999916e+01 5.906045000000000300e+01 2.193140000000000327e+03
3.000000000000000236e-02 1.708669999999999911e-01 1.513215000000000110e+01 5.805740000000000123e+01 2.192855000000000018e+03
3.099999999999999978e-02 1.708264999999999922e-01 1.421875000000000000e+01 5.660529999999999973e+01 2.192489999999999782e+03
3.200000000000000067e-02 1.707750000000000101e-01 1.321000000000000085e+01 5.474285000000000423e+01 2.192029999999999745e+03
3.300000000000000155e-02 1.707170000000000076e-01 1.222252500000000097e+01 5.275870000000000459e+01 2.191510000000000218e+03
3.400000000000000244e-02 1.706619999999999804e-01 1.140371500000000005e+01 5.109805000000000064e+01 2.191000000000000000e+03
3.500000000000000333e-02 1.706225000000000103e-01 1.088513999999999982e+01 5.020955000000000013e+01 2.190625000000000000e+03
3.600000000000000422e-02 1.706070000000000086e-01 1.074075000000000024e+01 5.039239999999999498e+01 2.190465000000000146e+03
3.700000000000000511e-02 1.706214999999999815e-01 1.096454999999999913e+01 5.169495000000000573e+01 2.190570000000000164e+03
3.799999999999999906e-02 1.706634999999999958e-01 1.147175000000000011e+01 5.389544999999999675e+01 2.190930000000000291e+03
3.899999999999999994e-02 1.707259999999999889e-01 1.212075000000000102e+01 5.655974999999999397e+01 2.191484999999999673e+03
4.000000000000000083e-02 1.707965000000000177e-01 1.274544999999999995e+01 5.914804999999999779e+01 2.192119999999999891e+03
4.100000000000000172e-02 1.708614999999999995e-01 1.318890000000000029e+01 6.113615000000000066e+01 2.192710000000000036e+03
4.200000000000000261e-02 1.709074999999999900e-01 1.333019999999999960e+01 6.211615000000000464e+01 2.193140000000000327e+03
4.300000000000000350e-02 1.709245000000000070e-01 1.309854999999999947e+01 6.185750000000000171e+01 2.193309999999999945e+03
4.400000000000000439e-02 1.709074999999999900e-01 1.247589999999999932e+01 6.032110000000000127e+01 2.193170000000000073e+03
4.499999999999999833e-02 1.708554999999999935e-01 1.148881000000000085e+01 5.763185000000000002e+01 2.192720000000000255e+03
4.599999999999999922e-02 1.707730000000000081e-01 1.019497499999999945e+01 5.402540000000000475e+01 2.191980000000000018e+03
4.700000000000000011e-02 1.706644999999999968e-01 8.667925000000000324e+00 4.978754999999999598e+01 2.191005000000000109e+03
4.800000000000000100e-02 1.705380000000000229e-01 6.985329999999999373e+00 4.520230000000000103e+01 2.189859999999999673e+03
4.900000000000000189e-02 1.704010000000000247e-01 5.221014000000000266e+00 4.051870000000000260e+01 2.188614999999999782e+03
5.000000000000000278e-02 1.702589999999999937e-01 3.442741499999999899e+00 3.593890000000000384e+01 2.187324999999999818e+03
5.100000000000000366e-02 1.701185000000000058e-01 1.712600000000000122e+00 3.162219999999999942e+01 2.186039999999999964e+03
5.200000000000000455e-02 1.699855000000000116e-01 8.943999999999996398e-02 2.769879999999999853e+01 2.184819999999999709e+03
5.300000000000000544e-02 1.698624999999999996e-01 -1.369159999999999933e+00 2.428484999999999872e+01 2.183690000000000055e+03
5.399999999999999939e-02 1.697555000000000036e-01 -2.606327150000000259e+00 2.149249999999999972e+01 2.182704999999999927e+03
5.500000000000000028e-02 1.696670000000000122e-01 -3.567419999999999813e+00 1.943249999999999744e+01 2.181885000000000218e+03
5.600000000000000117e-02 1.696015000000000161e-01 -4.203149999999999942e+00 1.820904999999999774e+01 2.181269999999999982e+03
5.700000000000000205e-02 1.695619999999999905e-01 -4.473810000000000286e+00 1.790889999999999915e+01 2.180885000000000218e+03
5.800000000000000294e-02 1.695514999999999939e-01 -4.353350000000000719e+00 1.858915000000000006e+01 2.180760000000000218e+03
5.900000000000000383e-02 1.695709999999999995e-01 -3.832514999999999894e+00 2.026590000000000202e+01 2.180904999999999745e+03
6.000000000000000472e-02 1.696210000000000218e-01 -2.920310000000000183e+00 2.290834999999999866e+01 2.181335000000000036e+03
6.099999999999999867e-02 1.697005000000000041e-01 -1.643555000000000099e+00 2.643860000000000099e+01 2.182034999999999854e+03
6.199999999999999956e-02 1.698075000000000001e-01 -4.481500000000004924e-02 3.073689999999999856e+01 2.182980000000000018e+03
6.300000000000000044e-02 1.699380000000000057e-01 1.820935000000000192e+00 3.565160000000000196e+01 2.184149999999999636e+03
6.400000000000000133e-02 1.700880000000000170e-01 3.890321999999999836e+00 4.101149999999999807e+01 2.185494999999999891e+03
6.500000000000000222e-02 1.702515000000000001e-01 6.095780000000000420e+00 4.663845000000000596e+01 2.186980000000000018e+03
6.600000000000000311e-02 1.704245000000000065e-01 8.369645000000000223e+00 5.235954999999999870e+01 2.188554999999999836e+03
6.700000000000000400e-02 1.706014999999999893e-01 1.064785000000000004e+01 5.801769999999999783e+01 2.190175000000000182e+03
6.800000000000000488e-02 1.707774999999999987e-01 1.287357500000000066e+01 6.348035000000000139e+01 2.191795000000000073e+03
6.900000000000000577e-02 1.709494999999999765e-01 1.499980000000000047e+01 6.864615000000000578e+01 2.193375000000000000e+03
7.000000000000000666e-02 1.711139999999999883e-01 1.699149999999999849e+01 7.344944999999999879e+01 2.194900000000000091e+03
7.100000000000000755e-02 1.712684999999999902e-01 1.882704999999999984e+01 7.786230000000000473e+01 2.196335000000000036e+03
7.200000000000000844e-02 1.714125000000000232e-01 2.049824999999999875e+01 8.189324999999999477e+01 2.197680000000000291e+03
7.300000000000000933e-02 1.715464999999999907e-01 2.200974999999999682e+01 8.558350000000000080e+01 2.198929999999999836e+03
7.399999999999999634e-02 1.716705000000000036e-01 2.337680000000000291e+01 8.899994999999999834e+01 2.200105000000000018e+03
7.499999999999999722e-02 1.717879999999999963e-01 2.462279999999999802e+01 9.222650000000000148e+01 2.201204999999999927e+03
7.599999999999999811e-02 1.718999999999999972e-01 2.577595000000000169e+01 9.535439999999999827e+01 2.202260000000000218e+03
7.699999999999999900e-02 1.720099999999999962e-01 2.686619999999999919e+01 9.847169999999999845e+01 2.203289999999999964e+03
7.799999999999999989e-02 1.721185000000000076e-01 2.792184999999999917e+01 1.016559499999999900e+02 2.204314999999999600e+03
7.900000000000000078e-02 1.722295000000000076e-01 2.896685000000000088e+01 1.049655000000000058e+02 2.205360000000000127e+03
8.000000000000000167e-02 1.723439999999999972e-01 3.001914999999999978e+01 1.084364999999999952e+02 2.206425000000000182e+03
8.100000000000000255e-02 1.724624999999999908e-01 3.108924999999999983e+01 1.120810000000000031e+02 2.207539999999999964e+03
8.200000000000000344e-02 1.725860000000000172e-01 3.217945000000000277e+01 1.158849999999999909e+02 2.208690000000000055e+03
8.300000000000000433e-02 1.727130000000000054e-01 3.328470000000000084e+01 1.198145000000000095e+02 2.209885000000000218e+03
8.400000000000000522e-02 1.728434999999999833e-01 3.439274999999999949e+01 1.238149999999999977e+02 2.211105000000000018e+03
8.500000000000000611e-02 1.729755000000000043e-01 3.548579999999999757e+01 1.278214999999999861e+02 2.212344999999999800e+03
8.600000000000000699e-02 1.731070000000000109e-01 3.654205000000000325e+01 1.317580000000000098e+02 2.213574999999999818e+03
8.700000000000000788e-02 1.732360000000000011e-01 3.753709999999999525e+01 1.355480000000000018e+02 2.214789999999999964e+03
8.800000000000000877e-02 1.733594999999999997e-01 3.844615000000000293e+01 1.391159999999999854e+02 2.215960000000000036e+03
8.899999999999999578e-02 1.734765000000000057e-01 3.924499999999999744e+01 1.423935000000000173e+02 2.217059999999999945e+03
8.999999999999999667e-02 1.735840000000000161e-01 3.991230000000000189e+01 1.453215000000000146e+02 2.218079999999999927e+03
9.099999999999999756e-02 1.736805000000000154e-01 4.043035000000000423e+01 1.478550000000000182e+02 2.219000000000000000e+03
9.199999999999999845e-02 1.737654999999999894e-01 4.078629999999999711e+01 1.499619999999999891e+02 2.219810000000000400e+03
9.299999999999999933e-02 1.738369999999999915e-01 4.097285000000000110e+01 1.516299999999999955e+02 2.220489999999999782e+03
9.400000000000000022e-02 1.738945000000000074e-01 4.098884999999999934e+01 1.528600000000000136e+02 2.221055000000000291e+03
9.500000000000000111e-02 1.739390000000000103e-01 4.083899999999999864e+01 1.536694999999999993e+02 2.221484999999999673e+03
9.600000000000000200e-02 1.739700000000000135e-01 4.053374999999999773e+01 1.540905000000000200e+02 2.221795000000000073e+03
9.700000000000000289e-02 1.739895000000000191e-01 4.008859999999999957e+01 1.541680000000000064e+02 2.221984999999999673e+03
9.800000000000000377e-02 1.739979999999999860e-01 3.952325000000000443e+01 1.539544999999999959e+02 2.222079999999999927e+03
9.900000000000000466e-02 1.739974999999999994e-01 3.886025000000000063e+01 1.535095000000000027e+02 2.222090000000000146e+03
1.000000000000000056e-01 1.739890000000000048e-01 3.812404999999999688e+01 1.528949999999999818e+02 2.222019999999999982e+03
1.010000000000000064e-01 1.739749999999999908e-01 3.733960000000000434e+01 1.521725000000000136e+02 2.221894999999999982e+03
1.020000000000000073e-01 1.739574999999999871e-01 3.653114999999999668e+01 1.513994999999999891e+02 2.221734999999999673e+03
1.030000000000000082e-01 1.739370000000000083e-01 3.572124999999999773e+01 1.506279999999999859e+02 2.221550000000000182e+03
1.040000000000000091e-01 1.739169999999999883e-01 3.492964999999999520e+01 1.499014999999999986e+02 2.221359999999999673e+03
1.050000000000000100e-01 1.738969999999999960e-01 3.417269999999999897e+01 1.492535000000000025e+02 2.221175000000000182e+03
1.059999999999999970e-01 1.738790000000000058e-01 3.346245000000000402e+01 1.487069999999999936e+02 2.221005000000000109e+03
1.069999999999999979e-01 1.738629999999999898e-01 3.280675000000000097e+01 1.482740000000000009e+02 2.220855000000000018e+03
1.079999999999999988e-01 1.738505000000000189e-01 3.220870000000000033e+01 1.479540000000000077e+02 2.220729999999999563e+03
1.089999999999999997e-01 1.738405000000000089e-01 3.166680000000000206e+01 1.477359999999999900e+02 2.220635000000000218e+03
1.100000000000000006e-01 1.738335000000000019e-01 3.117549999999999955e+01 1.476009999999999991e+02 2.220559999999999945e+03
1.110000000000000014e-01 1.738284999999999969e-01 3.072534999999999883e+01 1.475180000000000007e+02 2.220505000000000109e+03
1.120000000000000023e-01 1.738244999999999929e-01 3.030424999999999969e+01 1.474529999999999745e+02 2.220465000000000146e+03
1.130000000000000032e-01 1.738204999999999889e-01 2.989780000000000015e+01 1.473665000000000020e+02 2.220429999999999836e+03
1.140000000000000041e-01 1.738159999999999983e-01 2.949070000000000036e+01 1.472180000000000177e+02 2.220380000000000109e+03
1.150000000000000050e-01 1.738095000000000057e-01 2.906755000000000067e+01 1.469694999999999823e+02 2.220319999999999709e+03
1.160000000000000059e-01 1.738000000000000100e-01 2.861390000000000100e+01 1.465849999999999795e+02 2.220220000000000255e+03
1.170000000000000068e-01 1.737854999999999817e-01 2.811759999999999948e+01 1.460364999999999895e+02 2.220090000000000146e+03
1.180000000000000077e-01 1.737664999999999904e-01 2.756889999999999930e+01 1.453029999999999973e+02 2.219909999999999854e+03
1.190000000000000085e-01 1.737420000000000075e-01 2.696180000000000021e+01 1.443750000000000000e+02 2.219680000000000291e+03
1.200000000000000094e-01 1.737110000000000043e-01 2.629420000000000002e+01 1.432529999999999859e+02 2.219399999999999636e+03
1.209999999999999964e-01 1.736749999999999960e-01 2.556804999999999950e+01 1.419470000000000027e+02 2.219059999999999945e+03
1.219999999999999973e-01 1.736330000000000096e-01 2.478934999999999889e+01 1.404795000000000016e+02 2.218670000000000073e+03
1.229999999999999982e-01 1.735865000000000047e-01 2.396780000000000044e+01 1.388820000000000050e+02 2.218235000000000127e+03
1.239999999999999991e-01 1.735359999999999958e-01 2.311625000000000085e+01 1.371920000000000073e+02 2.217764999999999873e+03
1.250000000000000000e-01 1.734824999999999839e-01 2.225000000000000000e+01 1.354524999999999864e+02 2.217265000000000327e+03
1.260000000000000009e-01 1.734279999999999988e-01 2.138579999999999970e+01 1.337110000000000127e+02 2.216755000000000109e+03
1.270000000000000018e-01 1.733724999999999850e-01 2.054090000000000060e+01 1.320124999999999886e+02 2.216235000000000127e+03
1.280000000000000027e-01 1.733190000000000008e-01 1.973219999999999885e+01 1.304019999999999868e+02 2.215734999999999673e+03
1.290000000000000036e-01 1.732684999999999920e-01 1.897514999999999930e+01 1.289184999999999945e+02 2.215250000000000000e+03
1.300000000000000044e-01 1.732210000000000139e-01 1.828334999999999866e+01 1.275935000000000059e+02 2.214800000000000182e+03
1.310000000000000053e-01 1.731779999999999986e-01 1.766744999999999877e+01 1.264530000000000030e+02 2.214400000000000091e+03
1.320000000000000062e-01 1.731409999999999894e-01 1.713510000000000133e+01 1.255115000000000123e+02 2.214045000000000073e+03
1.330000000000000071e-01 1.731099999999999861e-01 1.669059999999999988e+01 1.247764999999999986e+02 2.213750000000000000e+03
1.340000000000000080e-01 1.730849999999999889e-01 1.633490000000000109e+01 1.242469999999999999e+02 2.213505000000000109e+03
1.350000000000000089e-01 1.730659999999999976e-01 1.606595000000000084e+01 1.239124999999999943e+02 2.213320000000000164e+03
1.360000000000000098e-01 1.730530000000000124e-01 1.587859999999999872e+01 1.237580000000000098e+02 2.213190000000000055e+03
1.370000000000000107e-01 1.730455000000000187e-01 1.576549999999999940e+01 1.237614999999999981e+02 2.213114999999999782e+03
1.380000000000000115e-01 1.730434999999999890e-01 1.571740000000000137e+01 1.238984999999999985e+02 2.213085000000000036e+03
1.390000000000000124e-01 1.730450000000000044e-01 1.572360000000000113e+01 1.241409999999999911e+02 2.213095000000000255e+03
1.400000000000000133e-01 1.730499999999999816e-01 1.577285000000000181e+01 1.244615000000000009e+02 2.213140000000000327e+03
1.410000000000000142e-01 1.730579999999999896e-01 1.585345000000000049e+01 1.248325000000000102e+02 2.213204999999999927e+03
1.420000000000000151e-01 1.730674999999999852e-01 1.595410000000000039e+01 1.252274999999999920e+02 2.213295000000000073e+03
1.430000000000000160e-01 1.730784999999999962e-01 1.606409999999999982e+01 1.256235000000000070e+02 2.213385000000000218e+03
1.440000000000000169e-01 1.730889999999999929e-01 1.617385000000000161e+01 1.260000000000000000e+02 2.213485000000000127e+03
1.450000000000000178e-01 1.730995000000000172e-01 1.627515000000000001e+01 1.263400000000000034e+02 2.213585000000000036e+03
1.459999999999999909e-01 1.731090000000000129e-01 1.636129999999999995e+01 1.266324999999999932e+02 2.213675000000000182e+03
1.469999999999999918e-01 1.731174999999999797e-01 1.642739999999999867e+01 1.268685000000000116e+02 2.213750000000000000e+03
1.479999999999999927e-01 1.731245000000000145e-01 1.647029999999999816e+01 1.270444999999999993e+02 2.213819999999999709e+03
1.489999999999999936e-01 1.731300000000000061e-01 1.648864999999999981e+01 1.271610000000000014e+02 2.213869999999999891e+03
1.499999999999999944e-01 1.731340000000000101e-01 1.648274999999999935e+01 1.272220000000000084e+02 2.213909999999999854e+03
1.509999999999999953e-01 1.731354999999999977e-01 1.645449999999999946e+01 1.272344999999999970e+02 2.213929999999999836e+03
1.519999999999999962e-01 1.731369999999999854e-01 1.640680000000000049e+01 1.272090000000000032e+02 2.213940000000000055e+03
1.529999999999999971e-01 1.731364999999999987e-01 1.634369999999999834e+01 1.271564999999999941e+02 2.213940000000000055e+03
1.539999999999999980e-01 1.731354999999999977e-01 1.626964999999999861e+01 1.270894999999999868e+02 2.213934999999999945e+03
1.549999999999999989e-01 1.731340000000000101e-01 1.618945000000000078e+01 1.270199999999999960e+02 2.213920000000000073e+03
1.559999999999999998e-01 1.731324999999999947e-01 1.610764999999999958e+01 1.269590000000000032e+02 2.213904999999999745e+03
1.570000000000000007e-01 1.731314999999999937e-01 1.602854999999999919e+01 1.269159999999999968e+02 2.213894999999999982e+03
1.580000000000000016e-01 1.731304999999999927e-01 1.595550000000000068e+01 1.268979999999999961e+02 2.213890000000000327e+03
1.590000000000000024e-01 1.731304999999999927e-01 1.589124999999999943e+01 1.269095000000000084e+02 2.213890000000000327e+03
