# t [s], A [cm^2], U [cm/s], P [cPa], c [cm/s]
1.000000000000000021e-03 6.691309999999999203e-01 7.961800000000004984e-03 1.066140000000000043e+02 1.809630000000000109e+03
2.000000000000000042e-03 6.691179999999999906e-01 -6.558941000000000424e-03 1.065769999999999982e+02 1.809625000000000000e+03
3.000000000000000062e-03 6.691595000000000182e-01 6.674045000000000671e-02 1.066694999999999993e+02 1.809639999999999873e+03
4.000000000000000083e-03 6.692099999999999715e-01 1.694381500000000096e-01 1.068144999999999953e+02 1.809675000000000182e+03
5.000000000000000104e-03 6.691930000000000378e-01 1.641195000000000015e-01 1.067829999999999870e+02 1.809670000000000073e+03
6.000000000000000125e-03 6.691305000000000724e-01 7.418099999999999694e-02 1.065645000000000095e+02 1.809625000000000000e+03
7.000000000000000146e-03 6.690869999999999873e-01 1.385600000000003496e-02 1.063259999999999934e+02 1.809579999999999927e+03
8.000000000000000167e-03 6.690270000000000383e-01 -8.818450000000005451e-02 1.060005000000000024e+02 1.809509999999999991e+03
9.000000000000001055e-03 6.689180000000000126e-01 -3.001299999999998969e-01 1.054834999999999923e+02 1.809409999999999854e+03
1.000000000000000194e-02 6.687560000000000171e-01 -6.327550000000000674e-01 1.047270000000000039e+02 1.809264999999999873e+03
1.099999999999999936e-02 6.685200000000000031e-01 -1.118244999999999933e+00 1.036473000000000013e+02 1.809050000000000182e+03
1.200000000000000025e-02 6.682015000000000038e-01 -1.760434999999999972e+00 1.021858499999999879e+02 1.808765000000000100e+03
1.300000000000000114e-02 6.678410000000000180e-01 -2.464989999999999792e+00 1.004275999999999982e+02 1.808404999999999973e+03
1.400000000000000203e-02 6.675024999999999986e-01 -3.075081500000000023e+00 9.857984999999999332e+01 1.808019999999999982e+03
1.499999999999999944e-02 6.672329999999999650e-01 -3.464045999999999736e+00 9.684635000000000105e+01 1.807634999999999991e+03
1.600000000000000033e-02 6.670369999999999910e-01 -3.590321000000000318e+00 9.532694999999999652e+01 1.807279999999999973e+03
1.700000000000000122e-02 6.668815000000000159e-01 -3.491569499999999771e+00 9.399735000000001151e+01 1.806954999999999927e+03
1.800000000000000211e-02 6.667250000000000121e-01 -3.245220999999999911e+00 9.275309999999998922e+01 1.806639999999999873e+03
1.900000000000000300e-02 6.665320000000000134e-01 -2.925815999999999750e+00 9.147200000000000841e+01 1.806315000000000055e+03
2.000000000000000042e-02 6.662879999999999914e-01 -2.576721500000000109e+00 9.006739999999999213e+01 1.805965000000000146e+03
2.100000000000000130e-02 6.659990000000000077e-01 -2.201509999999999856e+00 8.851599999999999113e+01 1.805585000000000036e+03
2.200000000000000219e-02 6.656864999999999588e-01 -1.772974999999999746e+00 8.685595000000000709e+01 1.805179999999999836e+03
2.299999999999999961e-02 6.653744999999999798e-01 -1.253564999999999818e+00 8.516155000000000541e+01 1.804765000000000100e+03
2.400000000000000050e-02 6.650810000000000333e-01 -6.183500000000001773e-01 8.350719999999999743e+01 1.804355000000000018e+03
2.500000000000000139e-02 6.648085000000000244e-01 1.281500000000002082e-01 8.193365000000000009e+01 1.803954999999999927e+03
2.600000000000000228e-02 6.645449999999999413e-01 9.465500000000000025e-01 8.043000000000000682e+01 1.803565000000000055e+03
2.700000000000000316e-02 6.642685000000000395e-01 1.768880000000000008e+00 7.893379999999999086e+01 1.803184999999999945e+03
2.800000000000000058e-02 6.639500000000000401e-01 2.513665000000000038e+00 7.734805000000000064e+01 1.802784999999999854e+03
2.900000000000000147e-02 6.635679999999999357e-01 3.105505000000000404e+00 7.556954999999999245e+01 1.802355000000000018e+03
3.000000000000000236e-02 6.631105000000000471e-01 3.493985000000000340e+00 7.352160000000000650e+01 1.801875000000000000e+03
3.099999999999999978e-02 6.625834999999999919e-01 3.666069999999999496e+00 7.118004999999999427e+01 1.801340000000000146e+03
3.200000000000000067e-02 6.620060000000000944e-01 3.647685000000000066e+00 6.858469999999999800e+01 1.800755000000000109e+03
3.300000000000000155e-02 6.614115000000000411e-01 3.493715000000000348e+00 6.583164999999999623e+01 1.800134999999999991e+03
3.400000000000000244e-02 6.608309999999999462e-01 3.271485000000000198e+00 6.305080000000000240e+01 1.799505000000000109e+03
3.500000000000000333e-02 6.602950000000000763e-01 3.044114999999999682e+00 6.037820000000000675e+01 1.798894999999999982e+03
3.600000000000000422e-02 6.598235000000000072e-01 2.859344999999999803e+00 5.793254999999999910e+01 1.798325000000000045e+03
3.700000000000000511e-02 6.594260000000000677e-01 2.745480000000000587e+00 5.580145000000000266e+01 1.797815000000000055e+03
3.799999999999999906e-02 6.591055000000000108e-01 2.713459999999999983e+00 5.403770000000000095e+01 1.797380000000000109e+03
3.899999999999999994e-02 6.588600000000000012e-01 2.763024999999999842e+00 5.266394999999999982e+01 1.797025000000000091e+03
4.000000000000000083e-02 6.586855000000000349e-01 2.890163499999999885e+00 5.168314999999999770e+01 1.796759999999999991e+03
4.100000000000000172e-02 6.585799999999999432e-01 3.093669499999999850e+00 5.108950000000000102e+01 1.796585000000000036e+03
4.200000000000000261e-02 6.585429999999999895e-01 3.379329999999999945e+00 5.087815000000000509e+01 1.796500000000000000e+03
4.300000000000000350e-02 6.585790000000000255e-01 3.760755000000000070e+00 5.105134999999999934e+01 1.796494999999999891e+03
4.400000000000000439e-02 6.586909999999999155e-01 4.257139999999999702e+00 5.161860000000000070e+01 1.796590000000000146e+03
4.499999999999999833e-02 6.588849999999999429e-01 4.888875000000000526e+00 5.259324999999999761e+01 1.796769999999999982e+03
4.599999999999999922e-02 6.591639999999999722e-01 5.672550000000000203e+00 5.398635000000000161e+01 1.797049999999999955e+03
4.700000000000000011e-02 6.595265000000000155e-01 6.616830000000000211e+00 5.579970000000000141e+01 1.797424999999999955e+03
4.800000000000000100e-02 6.599694999999999867e-01 7.720010000000000261e+00 5.802105000000000246e+01 1.797890000000000100e+03
4.900000000000000189e-02 6.604835000000000012e-01 8.969730000000000203e+00 6.062205000000000155e+01 1.798444999999999936e+03
5.000000000000000278e-02 6.610580000000000345e-01 1.034460500000000138e+01 6.355849999999999511e+01 1.799079999999999927e+03
5.100000000000000366e-02 6.616785000000000583e-01 1.181672499999999992e+01 6.677394999999999925e+01 1.799779999999999973e+03
5.200000000000000455e-02 6.623330000000000606e-01 1.335533500000000018e+01 7.020455000000001178e+01 1.800539999999999964e+03
5.300000000000000544e-02 6.630070000000000130e-01 1.493005499999999941e+01 7.378495000000000914e+01 1.801345000000000027e+03
5.399999999999999939e-02 6.636904999999999610e-01 1.651336500000000029e+01 7.745355000000000700e+01 1.802174999999999955e+03
5.500000000000000028e-02 6.643749999999999378e-01 1.808270000000000266e+01 8.115700000000001069e+01 1.803025000000000091e+03
5.600000000000000117e-02 6.650540000000000340e-01 1.962075000000000102e+01 8.485264999999999702e+01 1.803880000000000109e+03
5.700000000000000205e-02 6.657235000000000236e-01 2.111534999999999940e+01 8.850894999999999868e+01 1.804730000000000018e+03
5.800000000000000294e-02 6.663820000000000299e-01 2.255870000000000175e+01 9.210685000000000855e+01 1.805574999999999818e+03
5.900000000000000383e-02 6.670285000000000242e-01 2.394630000000000081e+01 9.563479999999999848e+01 1.806409999999999854e+03
6.000000000000000472e-02 6.676649999999999530e-01 2.527564999999999884e+01 9.908885000000000787e+01 1.807230000000000018e+03
6.099999999999999867e-02 6.682905000000000095e-01 2.654534999999999911e+01 1.024716999999999985e+02 1.808039999999999964e+03
6.199999999999999956e-02 6.689055000000000417e-01 2.775424999999999898e+01 1.057849999999999966e+02 1.808829999999999927e+03
6.300000000000000044e-02 6.695119999999999960e-01 2.890070000000000050e+01 1.090332999999999970e+02 1.809614999999999782e+03
6.400000000000000133e-02 6.701084999999999958e-01 2.998239999999999839e+01 1.122185000000000059e+02 1.810380000000000109e+03
6.500000000000000222e-02 6.706939999999999014e-01 3.099595000000000056e+01 1.153395000000000010e+02 1.811134999999999991e+03
6.600000000000000311e-02 6.712679999999999758e-01 3.193694999999999951e+01 1.183915000000000077e+02 1.811869999999999891e+03
6.700000000000000400e-02 6.718269999999999520e-01 3.280030000000000001e+01 1.213665000000000020e+02 1.812595000000000027e+03
6.800000000000000488e-02 6.723695000000000643e-01 3.358050000000000068e+01 1.242539999999999907e+02 1.813300000000000182e+03
6.900000000000000577e-02 6.728920000000000456e-01 3.427244999999999919e+01 1.270414999999999992e+02 1.813980000000000018e+03
7.000000000000000666e-02 6.733919999999999906e-01 3.487165000000000248e+01 1.297135000000000105e+02 1.814634999999999991e+03
7.100000000000000755e-02 6.738669999999999938e-01 3.537505000000000166e+01 1.322584999999999980e+02 1.815264999999999873e+03
7.200000000000000844e-02 6.743164999999999853e-01 3.578110000000000213e+01 1.346639999999999873e+02 1.815860000000000127e+03
7.300000000000000933e-02 6.747370000000000312e-01 3.608995000000000175e+01 1.369225000000000136e+02 1.816430000000000064e+03
7.399999999999999634e-02 6.751300000000000079e-01 3.630304999999999893e+01 1.390264999999999986e+02 1.816960000000000036e+03
7.499999999999999722e-02 6.754940000000000389e-01 3.642305000000000348e+01 1.409735000000000014e+02 1.817454999999999927e+03
7.599999999999999811e-02 6.758290000000000131e-01 3.645305000000000462e+01 1.427605000000000075e+02 1.817910000000000082e+03
7.699999999999999900e-02 6.761349999999999305e-01 3.639639999999999986e+01 1.443874999999999886e+02 1.818324999999999818e+03
7.799999999999999989e-02 6.764120000000000132e-01 3.625665000000000049e+01 1.458545000000000016e+02 1.818710000000000036e+03
7.900000000000000078e-02 6.766594999999999693e-01 3.603694999999999737e+01 1.471620000000000061e+02 1.819050000000000182e+03
8.000000000000000167e-02 6.768784999999999386e-01 3.574089999999999634e+01 1.483125000000000000e+02 1.819355000000000018e+03
8.100000000000000255e-02 6.770685000000000731e-01 3.537250000000000227e+01 1.493059999999999832e+02 1.819625000000000000e+03
8.200000000000000344e-02 6.772299999999999986e-01 3.493639999999999901e+01 1.501479999999999961e+02 1.819855000000000018e+03
8.300000000000000433e-02 6.773644999999999250e-01 3.443840000000000146e+01 1.508430000000000177e+02 1.820049999999999955e+03
8.400000000000000522e-02 6.774739999999999096e-01 3.388540000000000418e+01 1.513999999999999773e+02 1.820210000000000036e+03
8.500000000000000611e-02 6.775599999999999401e-01 3.328549999999999898e+01 1.518280000000000030e+02 1.820339999999999918e+03
8.600000000000000699e-02 6.776260000000000616e-01 3.264764999999999873e+01 1.521415000000000077e+02 1.820434999999999945e+03
8.700000000000000788e-02 6.776739999999999986e-01 3.198145000000000238e+01 1.523534999999999968e+02 1.820514999999999873e+03
8.800000000000000877e-02 6.777075000000000182e-01 3.129629999999999868e+01 1.524800000000000182e+02 1.820565000000000055e+03
8.899999999999999578e-02 6.777299999999999436e-01 3.060115000000000052e+01 1.525364999999999895e+02 1.820594999999999800e+03
8.999999999999999667e-02 6.777424999999999145e-01 2.990384999999999849e+01 1.525369999999999777e+02 1.820605000000000018e+03
9.099999999999999756e-02 6.777480000000000171e-01 2.921095000000000041e+01 1.524939999999999998e+02 1.820615000000000009e+03
9.199999999999999845e-02 6.777480000000000171e-01 2.852745000000000175e+01 1.524184999999999945e+02 1.820605000000000018e+03
9.299999999999999933e-02 6.777420000000000666e-01 2.785634999999999906e+01 1.523160000000000025e+02 1.820585000000000036e+03
9.400000000000000022e-02 6.777320000000000011e-01 2.719944999999999879e+01 1.521920000000000073e+02 1.820559999999999945e+03
9.500000000000000111e-02 6.777170000000000138e-01 2.655689999999999884e+01 1.520475000000000136e+02 1.820529999999999973e+03
9.600000000000000200e-02 6.776969999999999938e-01 2.592759999999999820e+01 1.518810000000000002e+02 1.820494999999999891e+03
9.700000000000000289e-02 6.776699999999999946e-01 2.530964999999999776e+01 1.516904999999999859e+02 1.820454999999999927e+03
9.800000000000000377e-02 6.776364999999999750e-01 2.470045000000000002e+01 1.514710000000000036e+02 1.820404999999999973e+03
9.900000000000000466e-02 6.775949999999999473e-01 2.409684999999999988e+01 1.512180000000000177e+02 1.820345000000000027e+03
1.000000000000000056e-01 6.775435000000000763e-01 2.349565000000000126e+01 1.509254999999999995e+02 1.820279999999999973e+03
1.010000000000000064e-01 6.774824999999999875e-01 2.289345000000000141e+01 1.505879999999999939e+02 1.820200000000000045e+03
1.020000000000000073e-01 6.774105000000000265e-01 2.228705000000000069e+01 1.502005000000000052e+02 1.820110000000000127e+03
1.030000000000000082e-01 6.773270000000000124e-01 2.167365000000000208e+01 1.497595000000000027e+02 1.820009999999999991e+03
1.040000000000000091e-01 6.772320000000000562e-01 2.105105000000000004e+01 1.492620000000000005e+02 1.819900000000000091e+03
1.050000000000000100e-01 6.771245000000000180e-01 2.041769999999999996e+01 1.487065000000000055e+02 1.819775000000000091e+03
1.059999999999999970e-01 6.770059999999999967e-01 1.977294999999999803e+01 1.480935000000000059e+02 1.819630000000000109e+03
1.069999999999999979e-01 6.768769999999999509e-01 1.911730000000000018e+01 1.474269999999999925e+02 1.819480000000000018e+03
1.079999999999999988e-01 6.767385000000000206e-01 1.845230000000000103e+01 1.467110000000000127e+02 1.819309999999999945e+03
1.089999999999999997e-01 6.765930000000000000e-01 1.778065000000000140e+01 1.459534999999999911e+02 1.819140000000000100e+03
1.100000000000000006e-01 6.764415000000000289e-01 1.710604999999999976e+01 1.451639999999999873e+02 1.818960000000000036e+03
1.110000000000000014e-01 6.762869999999999715e-01 1.643329999999999913e+01 1.443530000000000086e+02 1.818769999999999982e+03
1.120000000000000023e-01 6.761325000000000252e-01 1.576769999999999960e+01 1.435345000000000084e+02 1.818579999999999927e+03
1.130000000000000032e-01 6.759794999999999554e-01 1.511534999999999940e+01 1.427214999999999918e+02 1.818385000000000218e+03
1.140000000000000041e-01 6.758325000000000582e-01 1.448230000000000040e+01 1.419270000000000209e+02 1.818200000000000045e+03
1.150000000000000050e-01 6.756925000000000292e-01 1.387467000000000006e+01 1.411659999999999968e+02 1.818019999999999982e+03
1.160000000000000059e-01 6.755630000000000246e-01 1.329822000000000060e+01 1.404515000000000100e+02 1.817840000000000146e+03
1.170000000000000068e-01 6.754450000000000731e-01 1.275808499999999945e+01 1.397950000000000159e+02 1.817684999999999945e+03
1.180000000000000077e-01 6.753415000000000390e-01 1.225845999999999947e+01 1.392049999999999841e+02 1.817539999999999964e+03
1.190000000000000085e-01 6.752519999999999634e-01 1.180259999999999998e+01 1.386899999999999977e+02 1.817404999999999973e+03
1.200000000000000094e-01 6.751780000000000559e-01 1.139246999999999943e+01 1.382549999999999955e+02 1.817289999999999964e+03
1.209999999999999964e-01 6.751195000000000945e-01 1.102879499999999879e+01 1.379004999999999939e+02 1.817195000000000164e+03
1.219999999999999973e-01 6.750754999999999395e-01 1.071118500000000040e+01 1.376260000000000048e+02 1.817119999999999891e+03
1.229999999999999982e-01 6.750454999999999650e-01 1.043794000000000111e+01 1.374290000000000020e+02 1.817059999999999945e+03
1.239999999999999991e-01 6.750285000000000313e-01 1.020661000000000129e+01 1.373025000000000091e+02 1.817014999999999873e+03
1.250000000000000000e-01 6.750225000000000808e-01 1.001374500000000012e+01 1.372404999999999973e+02 1.816989999999999782e+03
1.260000000000000009e-01 6.750255000000000560e-01 9.855484999999999829e+00 1.372339999999999804e+02 1.816974999999999909e+03
1.270000000000000018e-01 6.750365000000000393e-01 9.727699999999998681e+00 1.372735000000000127e+02 1.816974999999999909e+03
1.280000000000000027e-01 6.750525000000000553e-01 9.626039999999999708e+00 1.373505000000000109e+02 1.816980000000000018e+03
1.290000000000000036e-01 6.750739999999999519e-01 9.546285000000001020e+00 1.374544999999999959e+02 1.817000000000000000e+03
1.300000000000000044e-01 6.750975000000000170e-01 9.484429999999999694e+00 1.375785000000000196e+02 1.817019999999999982e+03
1.310000000000000053e-01 6.751224999999999588e-01 9.436730000000000729e+00 1.377139999999999986e+02 1.817045000000000073e+03
1.320000000000000062e-01 6.751484999999999292e-01 9.399789999999999424e+00 1.378550000000000182e+02 1.817074999999999818e+03
1.330000000000000071e-01 6.751734999999999820e-01 9.370639999999999858e+00 1.379970000000000141e+02 1.817105000000000018e+03
1.340000000000000080e-01 6.751975000000000060e-01 9.346734999999998905e+00 1.381345000000000027e+02 1.817130000000000109e+03
1.350000000000000089e-01 6.752199999999999314e-01 9.325894999999999158e+00 1.382649999999999864e+02 1.817160000000000082e+03
1.360000000000000098e-01 6.752415000000000500e-01 9.306390000000000384e+00 1.383865000000000123e+02 1.817184999999999945e+03
1.370000000000000107e-01 6.752605000000000413e-01 9.286889999999999645e+00 1.384979999999999905e+02 1.817215000000000146e+03
1.380000000000000115e-01 6.752774999999999750e-01 9.266515000000000057e+00 1.385995000000000061e+02 1.817235000000000127e+03
1.390000000000000124e-01 6.752929999999999211e-01 9.244785000000000252e+00 1.386904999999999859e+02 1.817259999999999991e+03
1.400000000000000133e-01 6.753074999999999495e-01 9.221584999999999255e+00 1.387740000000000009e+02 1.817279999999999973e+03
1.410000000000000142e-01 6.753210000000000601e-01 9.197184999999999278e+00 1.388505000000000109e+02 1.817295000000000073e+03
1.420000000000000151e-01 6.753335000000000310e-01 9.172064999999999912e+00 1.389225000000000136e+02 1.817309999999999945e+03
1.430000000000000160e-01 6.753464999999999607e-01 9.146824999999999761e+00 1.389919999999999902e+02 1.817329999999999927e+03
1.440000000000000169e-01 6.753599999999999604e-01 9.122225000000000250e+00 1.390620000000000118e+02 1.817349999999999909e+03
1.450000000000000178e-01 6.753744999999999887e-01 9.099000000000000199e+00 1.391345000000000027e+02 1.817365000000000009e+03
1.459999999999999909e-01 6.753890000000000171e-01 9.077680000000000859e+00 1.392104999999999961e+02 1.817380000000000109e+03
1.469999999999999918e-01 6.754059999999999508e-01 9.058664999999999523e+00 1.392914999999999850e+02 1.817404999999999973e+03
1.479999999999999927e-01 6.754234999999999545e-01 9.042115000000000791e+00 1.393779999999999859e+02 1.817420000000000073e+03
1.489999999999999936e-01 6.754415000000000280e-01 9.027860000000000440e+00 1.394699999999999989e+02 1.817445000000000164e+03
1.499999999999999944e-01 6.754614999999999370e-01 9.015480000000000160e+00 1.395665000000000191e+02 1.817470000000000027e+03
1.509999999999999953e-01 6.754804999999999282e-01 9.004400000000000404e+00 1.396655000000000086e+02 1.817490000000000009e+03
1.519999999999999962e-01 6.755005000000000592e-01 8.993800000000000239e+00 1.397649999999999864e+02 1.817514999999999873e+03
1.529999999999999971e-01 6.755195000000000505e-01 8.982890000000001152e+00 1.398634999999999877e+02 1.817539999999999964e+03
1.539999999999999980e-01 6.755379999999999718e-01 8.970779999999999532e+00 1.399569999999999936e+02 1.817559999999999945e+03
1.549999999999999989e-01 6.755539999999999878e-01 8.956784999999999997e+00 1.400444999999999993e+02 1.817585000000000036e+03
1.559999999999999998e-01 6.755690000000000861e-01 8.940400000000000347e+00 1.401245000000000118e+02 1.817599999999999909e+03
1.570000000000000007e-01 6.755819999999999048e-01 8.921385000000000787e+00 1.401945000000000050e+02 1.817619999999999891e+03
1.580000000000000016e-01 6.755929999999999991e-01 8.899715000000000487e+00 1.402540000000000191e+02 1.817634999999999991e+03
1.590000000000000024e-01 6.756025000000001057e-01 8.875814999999999344e+00 1.403034999999999854e+02 1.817650000000000091e+03
