# t [s], A [cm^2], U [cm/s], P [cPa], c [cm/s]
1.000000000000000021e-03 1.777320000000000011e-01 1.066861000000000059e-01 1.030600000000000023e+02 2.278159999999999854e+03
2.000000000000000042e-03 1.776979999999999948e-01 1.358833999999999875e+00 1.001860499999999945e+02 2.277845000000000255e+03
3.000000000000000062e-03 1.775944999999999885e-01 3.030014999999999681e+00 9.593375000000000341e+01 2.276920000000000073e+03
4.000000000000000083e-03 1.774455000000000060e-01 4.966957999999999984e+00 9.090389999999999304e+01 2.275625000000000000e+03
5.000000000000000104e-03 1.772799999999999931e-01 7.101994999999999614e+00 8.599530000000000030e+01 2.274195000000000164e+03
6.000000000000000125e-03 1.771159999999999957e-01 9.300599999999999312e+00 8.172700000000000387e+01 2.272805000000000291e+03
7.000000000000000146e-03 1.769625000000000226e-01 1.134637500000000010e+01 7.804970000000000141e+01 2.271510000000000218e+03
8.000000000000000167e-03 1.768184999999999896e-01 1.309859499999999954e+01 7.472784999999998945e+01 2.270335000000000036e+03
9.000000000000001055e-03 1.766905000000000003e-01 1.455774500000000060e+01 7.176474999999999227e+01 2.269300000000000182e+03
1.000000000000000194e-02 1.765800000000000147e-01 1.575989999999999824e+01 6.926739999999999498e+01 2.268425000000000182e+03
1.099999999999999936e-02 1.764900000000000080e-01 1.672894999999999754e+01 6.726810000000000400e+01 2.267715000000000146e+03
1.200000000000000025e-02 1.764184999999999781e-01 1.748179999999999978e+01 6.573089999999999122e+01 2.267154999999999745e+03
1.300000000000000114e-02 1.763625000000000054e-01 1.801905000000000001e+01 6.454675000000000296e+01 2.266730000000000018e+03
1.400000000000000203e-02 1.763170000000000015e-01 1.833889999999999887e+01 6.355540000000000589e+01 2.266389999999999873e+03
1.499999999999999944e-02 1.762790000000000190e-01 1.848810000000000286e+01 6.268984999999999985e+01 2.266109999999999673e+03
1.600000000000000033e-02 1.762525000000000064e-01 1.858740000000000236e+01 6.211225000000000307e+01 2.265914999999999964e+03
1.700000000000000122e-02 1.762440000000000118e-01 1.878920000000000101e+01 6.216499999999999915e+01 2.265860000000000127e+03
1.800000000000000211e-02 1.762604999999999866e-01 1.919914999999999949e+01 6.315314999999999657e+01 2.265994999999999891e+03
1.900000000000000300e-02 1.763055000000000039e-01 1.982034999999999769e+01 6.512619999999999720e+01 2.266355000000000018e+03
2.000000000000000042e-02 1.763724999999999876e-01 2.055454999999999899e+01 6.780480000000000018e+01 2.266885000000000218e+03
2.100000000000000130e-02 1.764505000000000101e-01 2.125095000000000312e+01 7.068055000000001087e+01 2.267519999999999982e+03
2.200000000000000219e-02 1.765260000000000162e-01 2.176999999999999957e+01 7.321115000000000350e+01 2.268144999999999982e+03
2.299999999999999961e-02 1.765884999999999816e-01 2.203215000000000146e+01 7.500704999999999245e+01 2.268664999999999964e+03
2.400000000000000050e-02 1.766314999999999968e-01 2.203474999999999895e+01 7.593505000000000393e+01 2.269039999999999964e+03
2.500000000000000139e-02 1.766540000000000055e-01 2.183805000000000263e+01 7.611269999999998959e+01 2.269250000000000000e+03
2.600000000000000228e-02 1.766619999999999857e-01 2.153004999999999924e+01 7.581550000000000011e+01 2.269329999999999927e+03
2.700000000000000316e-02 1.766614999999999991e-01 2.118860000000000099e+01 7.534494999999999720e+01 2.269329999999999927e+03
2.800000000000000058e-02 1.766570000000000085e-01 2.085294999999999987e+01 7.491165000000000873e+01 2.269300000000000182e+03
2.900000000000000147e-02 1.766520000000000035e-01 2.051554999999999751e+01 7.457269999999999754e+01 2.269260000000000218e+03
3.000000000000000236e-02 1.766449999999999965e-01 2.013240000000000052e+01 7.423709999999999809e+01 2.269199999999999818e+03
3.099999999999999978e-02 1.766329999999999845e-01 1.964699999999999847e+01 7.372775000000000034e+01 2.269109999999999673e+03
3.200000000000000067e-02 1.766119999999999912e-01 1.901859999999999928e+01 7.287290000000000134e+01 2.268944999999999709e+03
3.300000000000000155e-02 1.765800000000000147e-01 1.824450000000000216e+01 7.159395000000000664e+01 2.268694999999999709e+03
3.400000000000000244e-02 1.765375000000000139e-01 1.736959999999999837e+01 6.995874999999999488e+01 2.268360000000000127e+03
3.500000000000000333e-02 1.764884999999999926e-01 1.647929999999999851e+01 6.818180000000000973e+01 2.267974999999999909e+03
3.600000000000000422e-02 1.764410000000000145e-01 1.567759999999999820e+01 6.657134999999999536e+01 2.267590000000000146e+03
3.700000000000000511e-02 1.764020000000000032e-01 1.505955000000000155e+01 6.544239999999999213e+01 2.267264999999999873e+03
3.799999999999999906e-02 1.763799999999999812e-01 1.468595000000000006e+01 6.502715000000000600e+01 2.267074999999999818e+03
3.899999999999999994e-02 1.763779999999999792e-01 1.456970000000000098e+01 6.541249999999999432e+01 2.267039999999999964e+03
4.000000000000000083e-02 1.763959999999999972e-01 1.467554999999999943e+01 6.652119999999999322e+01 2.267164999999999964e+03
4.100000000000000172e-02 1.764310000000000045e-01 1.493149999999999977e+01 6.813774999999999693e+01 2.267435000000000400e+03
4.200000000000000261e-02 1.764760000000000217e-01 1.524759999999999849e+01 6.996475000000000932e+01 2.267784999999999854e+03
4.300000000000000350e-02 1.765234999999999999e-01 1.553500000000000014e+01 7.169129999999999825e+01 2.268164999999999964e+03
4.400000000000000439e-02 1.765654999999999863e-01 1.572189999999999976e+01 7.305360000000000298e+01 2.268510000000000218e+03
4.499999999999999833e-02 1.765970000000000040e-01 1.576174999999999926e+01 7.387510000000000332e+01 2.268769999999999982e+03
4.599999999999999922e-02 1.766135000000000066e-01 1.563534999999999897e+01 7.408074999999999477e+01 2.268914999999999964e+03
4.700000000000000011e-02 1.766139999999999932e-01 1.534554999999999936e+01 7.368600000000000705e+01 2.268930000000000291e+03
4.800000000000000100e-02 1.765990000000000060e-01 1.490984999999999872e+01 7.277019999999998845e+01 2.268819999999999709e+03
4.900000000000000189e-02 1.765704999999999913e-01 1.435100000000000087e+01 7.144220000000001392e+01 2.268599999999999909e+03
5.000000000000000278e-02 1.765309999999999935e-01 1.369069999999999965e+01 6.981024999999999636e+01 2.268284999999999854e+03
5.100000000000000366e-02 1.764824999999999866e-01 1.294570000000000043e+01 6.796184999999999832e+01 2.267894999999999982e+03
5.200000000000000455e-02 1.764270000000000005e-01 1.212759000000000142e+01 6.595669999999999789e+01 2.267444999999999709e+03
5.300000000000000544e-02 1.763659999999999950e-01 1.124550499999999964e+01 6.383109999999999218e+01 2.266954999999999927e+03
5.399999999999999939e-02 1.763004999999999989e-01 1.030942999999999898e+01 6.161030000000000229e+01 2.266425000000000182e+03
5.500000000000000028e-02 1.762314999999999854e-01 9.334580000000000766e+00 5.932325000000000159e+01 2.265875000000000000e+03
5.600000000000000117e-02 1.761610000000000120e-01 8.343655000000000044e+00 5.701520000000000010e+01 2.265300000000000182e+03
5.700000000000000205e-02 1.760904999999999831e-01 7.368050000000000210e+00 5.475549999999999784e+01 2.264730000000000018e+03
5.800000000000000294e-02 1.760220000000000118e-01 6.446735000000000326e+00 5.263800000000000523e+01 2.264170000000000073e+03
5.900000000000000383e-02 1.759590000000000043e-01 5.623540000000000205e+00 5.077535000000000309e+01 2.263654999999999745e+03
6.000000000000000472e-02 1.759050000000000058e-01 4.943449999999999456e+00 4.928855000000000075e+01 2.263210000000000036e+03
6.099999999999999867e-02 1.758635000000000059e-01 4.448525000000000063e+00 4.829404999999999859e+01 2.262859999999999673e+03
6.199999999999999956e-02 1.758375000000000077e-01 4.174159999999999648e+00 4.789150000000000063e+01 2.262635000000000218e+03
6.300000000000000044e-02 1.758294999999999997e-01 4.146295000000000286e+00 4.815370000000000061e+01 2.262550000000000182e+03
6.400000000000000133e-02 1.758419999999999983e-01 4.379704999999999515e+00 4.912055000000000149e+01 2.262635000000000218e+03
6.500000000000000222e-02 1.758744999999999892e-01 4.877519999999999634e+00 5.079664999999999964e+01 2.262880000000000109e+03
6.600000000000000311e-02 1.759290000000000020e-01 5.631755000000000067e+00 5.315339999999999776e+01 2.263300000000000182e+03
6.700000000000000400e-02 1.760030000000000205e-01 6.624730000000000452e+00 5.613360000000000127e+01 2.263880000000000109e+03
6.800000000000000488e-02 1.760955000000000159e-01 7.830995000000000594e+00 5.965805000000000291e+01 2.264614999999999782e+03
6.900000000000000577e-02 1.762039999999999995e-01 9.219754999999999256e+00 6.363375000000000625e+01 2.265480000000000018e+03
7.000000000000000666e-02 1.763260000000000105e-01 1.075727999999999973e+01 6.796214999999999407e+01 2.266454999999999927e+03
7.100000000000000755e-02 1.764585000000000181e-01 1.240948999999999991e+01 7.254689999999999372e+01 2.267525000000000091e+03
7.200000000000000844e-02 1.765984999999999916e-01 1.414400000000000013e+01 7.730095000000000027e+01 2.268664999999999964e+03
7.300000000000000933e-02 1.767449999999999855e-01 1.593175000000000097e+01 8.215099999999999625e+01 2.269845000000000255e+03
7.399999999999999634e-02 1.768945000000000101e-01 1.774814999999999898e+01 8.704099999999999682e+01 2.271069999999999709e+03
7.499999999999999722e-02 1.770464999999999955e-01 1.957319999999999993e+01 9.193179999999999552e+01 2.272305000000000291e+03
7.599999999999999811e-02 1.771984999999999810e-01 2.139164999999999850e+01 9.680054999999998699e+01 2.273560000000000400e+03
7.699999999999999900e-02 1.773520000000000096e-01 2.319160000000000110e+01 1.016347000000000094e+02 2.274815000000000055e+03
7.799999999999999989e-02 1.775039999999999951e-01 2.496365000000000123e+01 1.064307000000000016e+02 2.276065000000000055e+03
7.900000000000000078e-02 1.776564999999999950e-01 2.669995000000000118e+01 1.111854999999999905e+02 2.277319999999999709e+03
8.000000000000000167e-02 1.778075000000000072e-01 2.839280000000000115e+01 1.158969999999999914e+02 2.278569999999999709e+03
8.100000000000000255e-02 1.779580000000000051e-01 3.003450000000000131e+01 1.205550000000000068e+02 2.279809999999999945e+03
8.200000000000000344e-02 1.781065000000000009e-01 3.161710000000000065e+01 1.251479999999999961e+02 2.281045000000000073e+03
8.300000000000000433e-02 1.782535000000000092e-01 3.313250000000000028e+01 1.296570000000000107e+02 2.282260000000000218e+03
8.400000000000000522e-02 1.783974999999999866e-01 3.457290000000000418e+01 1.340625000000000000e+02 2.283454999999999927e+03
8.500000000000000611e-02 1.785380000000000023e-01 3.593139999999999645e+01 1.383435000000000059e+02 2.284630000000000109e+03
8.600000000000000699e-02 1.786754999999999871e-01 3.720234999999999559e+01 1.424805000000000064e+02 2.285769999999999982e+03
8.700000000000000788e-02 1.788075000000000081e-01 3.838125000000000142e+01 1.464569999999999936e+02 2.286869999999999891e+03
8.800000000000000877e-02 1.789354999999999973e-01 3.946500000000000341e+01 1.502590000000000146e+02 2.287940000000000055e+03
8.899999999999999578e-02 1.790579999999999949e-01 4.045135000000000502e+01 1.538770000000000095e+02 2.288960000000000036e+03
8.999999999999999667e-02 1.791745000000000143e-01 4.133840000000000003e+01 1.573009999999999877e+02 2.289940000000000055e+03
9.099999999999999756e-02 1.792849999999999999e-01 4.212425000000000352e+01 1.605219999999999914e+02 2.290869999999999891e+03
9.199999999999999845e-02 1.793895000000000073e-01 4.280679999999999552e+01 1.635294999999999845e+02 2.291744999999999891e+03
9.299999999999999933e-02 1.794864999999999933e-01 4.338339999999999463e+01 1.663114999999999952e+02 2.292559999999999945e+03
9.400000000000000022e-02 1.795765000000000000e-01 4.385099999999999909e+01 1.688545000000000016e+02 2.293324999999999818e+03
9.500000000000000111e-02 1.796590000000000131e-01 4.420680000000000121e+01 1.711435000000000173e+02 2.294014999999999873e+03
9.600000000000000200e-02 1.797334999999999905e-01 4.444834999999999781e+01 1.731650000000000205e+02 2.294644999999999982e+03
9.700000000000000289e-02 1.797995000000000010e-01 4.457444999999999879e+01 1.749095000000000084e+02 2.295204999999999927e+03
9.800000000000000377e-02 1.798560000000000159e-01 4.458539999999999992e+01 1.763684999999999832e+02 2.295694999999999709e+03
9.900000000000000466e-02 1.799044999999999950e-01 4.448355000000000103e+01 1.775425000000000182e+02 2.296105000000000018e+03
1.000000000000000056e-01 1.799439999999999928e-01 4.427335000000000065e+01 1.784395000000000095e+02 2.296444999999999709e+03
1.010000000000000064e-01 1.799745000000000095e-01 4.396164999999999878e+01 1.790704999999999814e+02 2.296710000000000036e+03
1.020000000000000073e-01 1.799969999999999903e-01 4.355695000000000050e+01 1.794559999999999889e+02 2.296909999999999854e+03
1.030000000000000082e-01 1.800120000000000053e-01 4.306955000000000666e+01 1.796204999999999927e+02 2.297039999999999964e+03
1.040000000000000091e-01 1.800205000000000000e-01 4.251075000000000159e+01 1.795914999999999964e+02 2.297114999999999782e+03
1.050000000000000100e-01 1.800220000000000153e-01 4.189249999999999829e+01 1.793979999999999961e+02 2.297140000000000327e+03
1.059999999999999970e-01 1.800194999999999990e-01 4.122684999999999889e+01 1.790709999999999980e+02 2.297125000000000000e+03
1.069999999999999979e-01 1.800120000000000053e-01 4.052570000000000050e+01 1.786374999999999886e+02 2.297069999999999709e+03
1.079999999999999988e-01 1.800009999999999943e-01 3.979999999999999716e+01 1.781245000000000118e+02 2.296980000000000018e+03
1.089999999999999997e-01 1.799870000000000081e-01 3.905995000000000061e+01 1.775554999999999950e+02 2.296869999999999891e+03
1.100000000000000006e-01 1.799715000000000065e-01 3.831439999999999912e+01 1.769505000000000052e+02 2.296739999999999782e+03
1.110000000000000014e-01 1.799544999999999895e-01 3.757075000000000387e+01 1.763245000000000005e+02 2.296605000000000018e+03
1.120000000000000023e-01 1.799364999999999992e-01 3.683485000000000298e+01 1.756895000000000095e+02 2.296454999999999927e+03
1.130000000000000032e-01 1.799180000000000224e-01 3.611074999999999591e+01 1.750525000000000091e+02 2.296300000000000182e+03
1.140000000000000041e-01 1.798994999999999900e-01 3.540084999999999837e+01 1.744159999999999968e+02 2.296140000000000327e+03
1.150000000000000050e-01 1.798799999999999844e-01 3.470570000000000022e+01 1.737789999999999964e+02 2.295975000000000364e+03
1.160000000000000059e-01 1.798605000000000065e-01 3.402439999999999998e+01 1.731360000000000241e+02 2.295815000000000055e+03
1.170000000000000068e-01 1.798399999999999999e-01 3.335444999999999993e+01 1.724780000000000086e+02 2.295644999999999982e+03
1.180000000000000077e-01 1.798190000000000066e-01 3.269200000000000017e+01 1.717944999999999993e+02 2.295465000000000146e+03
1.190000000000000085e-01 1.797969999999999846e-01 3.203264999999999674e+01 1.710709999999999980e+02 2.295280000000000200e+03
1.200000000000000094e-01 1.797735000000000027e-01 3.137109999999999843e+01 1.702939999999999827e+02 2.295085000000000036e+03
1.209999999999999964e-01 1.797480000000000189e-01 3.070215000000000316e+01 1.694495000000000005e+02 2.294869999999999891e+03
1.219999999999999973e-01 1.797205000000000052e-01 3.002055000000000007e+01 1.685235000000000127e+02 2.294639999999999873e+03
1.229999999999999982e-01 1.796900000000000164e-01 2.932195000000000107e+01 1.675054999999999836e+02 2.294389999999999873e+03
1.239999999999999991e-01 1.796570000000000111e-01 2.860289999999999822e+01 1.663879999999999768e+02 2.294119999999999891e+03
1.250000000000000000e-01 1.796205000000000163e-01 2.786129999999999995e+01 1.651675000000000182e+02 2.293815000000000055e+03
1.260000000000000009e-01 1.795815000000000050e-01 2.709665000000000035e+01 1.638439999999999941e+02 2.293489999999999782e+03
1.270000000000000018e-01 1.795390000000000041e-01 2.631024999999999991e+01 1.624244999999999948e+02 2.293139999999999873e+03
1.280000000000000027e-01 1.794935000000000003e-01 2.550505000000000067e+01 1.609184999999999945e+02 2.292765000000000327e+03
1.290000000000000036e-01 1.794459999999999944e-01 2.468610000000000326e+01 1.593435000000000059e+02 2.292369999999999891e+03
1.300000000000000044e-01 1.793965000000000143e-01 2.385964999999999847e+01 1.577175000000000011e+02 2.291960000000000036e+03
1.310000000000000053e-01 1.793454999999999910e-01 2.303345000000000198e+01 1.560645000000000095e+02 2.291534999999999854e+03
1.320000000000000062e-01 1.792934999999999945e-01 2.221600000000000108e+01 1.544105000000000132e+02 2.291105000000000018e+03
1.330000000000000071e-01 1.792420000000000124e-01 2.141639999999999944e+01 1.527800000000000011e+02 2.290675000000000182e+03
1.340000000000000080e-01 1.791909999999999892e-01 2.064334999999999809e+01 1.511999999999999886e+02 2.290255000000000109e+03
1.350000000000000089e-01 1.791415000000000091e-01 1.990540000000000020e+01 1.496920000000000073e+02 2.289840000000000146e+03
1.360000000000000098e-01 1.790944999999999898e-01 1.920994999999999919e+01 1.482785000000000082e+02 2.289449999999999818e+03
1.370000000000000107e-01 1.790505000000000013e-01 1.856320000000000192e+01 1.469735000000000014e+02 2.289079999999999927e+03
1.380000000000000115e-01 1.790094999999999881e-01 1.797005000000000052e+01 1.457905000000000086e+02 2.288734999999999673e+03
1.390000000000000124e-01 1.789724999999999788e-01 1.743365000000000009e+01 1.447364999999999782e+02 2.288425000000000182e+03
1.400000000000000133e-01 1.789389999999999870e-01 1.695570000000000022e+01 1.438149999999999977e+02 2.288140000000000327e+03
1.410000000000000142e-01 1.789089999999999847e-01 1.653640000000000043e+01 1.430235000000000127e+02 2.287889999999999873e+03
1.420000000000000151e-01 1.788835000000000008e-01 1.617450000000000188e+01 1.423584999999999923e+02 2.287670000000000073e+03
1.430000000000000160e-01 1.788615000000000066e-01 1.586785000000000068e+01 1.418125000000000000e+02 2.287485000000000127e+03
1.440000000000000169e-01 1.788434999999999886e-01 1.561285000000000167e+01 1.413765000000000214e+02 2.287324999999999818e+03
1.450000000000000178e-01 1.788290000000000157e-01 1.540554999999999808e+01 1.410384999999999991e+02 2.287199999999999818e+03
1.459999999999999909e-01 1.788170000000000037e-01 1.524109999999999943e+01 1.407869999999999777e+02 2.287095000000000255e+03
1.469999999999999918e-01 1.788080000000000225e-01 1.511439999999999984e+01 1.406094999999999970e+02 2.287015000000000327e+03
1.479999999999999927e-01 1.788009999999999877e-01 1.501989999999999981e+01 1.404934999999999832e+02 2.286954999999999927e+03
1.489999999999999936e-01 1.787960000000000105e-01 1.495214999999999961e+01 1.404250000000000114e+02 2.286909999999999854e+03
1.499999999999999944e-01 1.787925000000000209e-01 1.490559999999999974e+01 1.403924999999999841e+02 2.286875000000000000e+03
1.509999999999999953e-01 1.787894999999999901e-01 1.487504999999999988e+01 1.403854999999999791e+02 2.286854999999999563e+03
1.519999999999999962e-01 1.787884999999999891e-01 1.485575000000000045e+01 1.403935000000000173e+02 2.286840000000000146e+03
1.529999999999999971e-01 1.787874999999999881e-01 1.484349999999999881e+01 1.404074999999999989e+02 2.286829999999999927e+03
1.539999999999999980e-01 1.787870000000000015e-01 1.483464999999999989e+01 1.404209999999999923e+02 2.286824999999999818e+03
1.549999999999999989e-01 1.787865000000000149e-01 1.482649999999999935e+01 1.404300000000000068e+02 2.286820000000000164e+03
1.559999999999999998e-01 1.787860000000000005e-01 1.481709999999999994e+01 1.404304999999999950e+02 2.286815000000000055e+03
1.570000000000000007e-01 1.787854999999999861e-01 1.480525000000000091e+01 1.404219999999999970e+02 2.286810000000000400e+03
1.580000000000000016e-01 1.787845000000000129e-01 1.479059999999999953e+01 1.404064999999999941e+02 2.286805000000000291e+03
1.590000000000000024e-01 1.787834999999999841e-01 1.477355000000000018e+01 1.403859999999999957e+02 2.286795000000000073e+03
