# t [s], A [cm^2], U [cm/s], P [cPa], c [cm/s]
1.000000000000000021e-03 5.027185000000000681e-01 2.225800000000000001e-03 1.021630000000000109e+02 1.454720000000000027e+03
2.000000000000000042e-03 5.027129999999999654e-01 3.396054999999999820e-03 1.021465000000000032e+02 1.454715000000000146e+03
3.000000000000000062e-03 5.027580000000000382e-01 9.206074999999999675e-02 1.022295000000000016e+02 1.454735000000000127e+03
4.000000000000000083e-03 5.027989999999999959e-01 1.747956999999999983e-01 1.023290000000000077e+02 1.454769999999999982e+03
5.000000000000000104e-03 5.027880000000000127e-01 1.560581500000000066e-01 1.023019999999999925e+02 1.454764999999999873e+03
6.000000000000000125e-03 5.027460000000000262e-01 7.214999999999999192e-02 1.021435000000000031e+02 1.454730000000000018e+03
7.000000000000000146e-03 5.027014999999999123e-01 -2.153249999999995445e-02 1.019085000000000036e+02 1.454679999999999836e+03
8.000000000000000167e-03 5.026360000000000827e-01 -1.647495000000000487e-01 1.015625000000000000e+02 1.454605000000000018e+03
9.000000000000001055e-03 5.025224999999999831e-01 -4.113049999999999207e-01 1.010275000000000034e+02 1.454474999999999909e+03
1.000000000000000194e-02 5.023554999999999549e-01 -7.686499999999999444e-01 1.002601999999999975e+02 1.454295000000000073e+03
1.099999999999999936e-02 5.021280000000000188e-01 -1.239464999999999817e+00 9.922520000000000095e+01 1.454034999999999854e+03
1.200000000000000025e-02 5.018294999999999284e-01 -1.829569999999999919e+00 9.788264999999999816e+01 1.453694999999999936e+03
1.300000000000000114e-02 5.014640000000000208e-01 -2.510019999999999918e+00 9.623255000000000337e+01 1.453269999999999982e+03
1.400000000000000203e-02 5.010615000000000485e-01 -3.196445000000000647e+00 9.435165000000000646e+01 1.452769999999999982e+03
1.499999999999999944e-02 5.006654999999999855e-01 -3.772704999999999753e+00 9.238190000000000168e+01 1.452224999999999909e+03
1.600000000000000033e-02 5.003130000000000077e-01 -4.136182999999999943e+00 9.047925000000000750e+01 1.451675000000000182e+03
1.700000000000000122e-02 5.000225000000000364e-01 -4.231905000000000250e+00 8.876285000000000025e+01 1.451150000000000091e+03
1.800000000000000211e-02 4.997894999999999976e-01 -4.062013149999999406e+00 8.728454999999999586e+01 1.450670000000000073e+03
1.900000000000000300e-02 4.995950000000000113e-01 -3.674662000000000095e+00 8.602660000000000196e+01 1.450230000000000018e+03
2.000000000000000042e-02 4.994109999999999383e-01 -3.142179999999999751e+00 8.491960000000000264e+01 1.449829999999999927e+03
2.100000000000000130e-02 4.992130000000000178e-01 -2.537149000000000321e+00 8.387205000000000155e+01 1.449444999999999936e+03
2.200000000000000219e-02 4.989844999999999975e-01 -1.913144999999999651e+00 8.279990000000000805e+01 1.449054999999999836e+03
2.299999999999999961e-02 4.987219999999999986e-01 -1.295190000000000063e+00 8.164924999999999500e+01 1.448650000000000091e+03
2.400000000000000050e-02 4.984315000000000273e-01 -6.819699999999999651e-01 8.040399999999999636e+01 1.448224999999999909e+03
2.500000000000000139e-02 4.981240000000000112e-01 -5.742499999999983729e-02 7.907939999999999259e+01 1.447775000000000091e+03
2.600000000000000228e-02 4.978104999999999891e-01 5.939499999999999780e-01 7.770515000000000327e+01 1.447320000000000164e+03
2.700000000000000316e-02 4.974965000000000082e-01 1.274230000000000196e+00 7.630615000000000236e+01 1.446849999999999909e+03
2.800000000000000058e-02 4.971784999999999677e-01 1.965470000000000050e+00 7.488865000000001260e+01 1.446375000000000000e+03
2.900000000000000147e-02 4.968480000000000119e-01 2.630104999999999471e+00 7.343340000000000600e+01 1.445889999999999873e+03
3.000000000000000236e-02 4.964890000000000136e-01 3.217310000000000336e+00 7.189809999999999945e+01 1.445380000000000109e+03
3.099999999999999978e-02 4.960875000000000146e-01 3.672905000000000086e+00 7.022684999999999889e+01 1.444840000000000146e+03
3.200000000000000067e-02 4.956295000000000006e-01 3.950305000000000177e+00 6.836339999999999861e+01 1.444250000000000000e+03
3.300000000000000155e-02 4.951094999999999802e-01 4.020340000000000025e+00 6.626640000000000441e+01 1.443605000000000018e+03
3.400000000000000244e-02 4.945295000000000107e-01 3.877584999999999837e+00 6.392179999999999751e+01 1.442900000000000091e+03
3.500000000000000333e-02 4.939000000000000057e-01 3.542014999999999691e+00 6.135054999999999836e+01 1.442134999999999991e+03
3.600000000000000422e-02 4.932404999999999706e-01 3.056100000000000261e+00 5.860925000000000296e+01 1.441324999999999818e+03
3.700000000000000511e-02 4.925734999999999975e-01 2.477954999999999686e+00 5.578470000000000084e+01 1.440485000000000127e+03
3.799999999999999906e-02 4.919270000000000032e-01 1.873029999999999973e+00 5.298390000000000555e+01 1.439644999999999982e+03
3.899999999999999994e-02 4.913245000000000529e-01 1.305654999999999788e+00 5.032120000000000459e+01 1.438835000000000036e+03
4.000000000000000083e-02 4.907900000000000040e-01 8.326949999999997409e-01 4.790670000000000073e+01 1.438079999999999927e+03
4.100000000000000172e-02 4.903395000000000392e-01 4.994549999999997603e-01 4.583634999999999593e+01 1.437405000000000200e+03
4.200000000000000261e-02 4.899859999999999771e-01 3.382099999999996776e-01 4.418574999999999875e+01 1.436835000000000036e+03
4.300000000000000350e-02 4.897375000000000478e-01 3.689249999999999474e-01 4.300719999999999743e+01 1.436394999999999982e+03
4.400000000000000439e-02 4.895974999999999633e-01 6.013800000000000257e-01 4.233004999999999995e+01 1.436099999999999909e+03
4.499999999999999833e-02 4.895649999999999724e-01 1.037878100000000137e+00 4.216329999999999956e+01 1.435940000000000055e+03
4.599999999999999922e-02 4.896369999999999889e-01 1.675879999999999814e+00 4.249984999999999502e+01 1.435930000000000064e+03
4.700000000000000011e-02 4.898104999999999820e-01 2.509942000000000117e+00 4.332059999999999889e+01 1.436059999999999945e+03
4.800000000000000100e-02 4.900795000000000012e-01 3.532759500000000052e+00 4.459830000000000183e+01 1.436335000000000036e+03
4.900000000000000189e-02 4.904384999999999994e-01 4.735240500000000630e+00 4.630024999999999835e+01 1.436740000000000009e+03
5.000000000000000278e-02 4.908784999999999954e-01 6.105967950000000144e+00 4.838949999999999818e+01 1.437264999999999873e+03
5.100000000000000366e-02 4.913929999999999687e-01 7.630355500000000291e+00 5.082580000000000098e+01 1.437909999999999854e+03
5.200000000000000455e-02 4.919719999999999649e-01 9.290074999999999861e+00 5.356515000000000271e+01 1.438650000000000091e+03
5.300000000000000544e-02 4.926054999999999739e-01 1.106266000000000105e+01 5.656015000000000015e+01 1.439474999999999909e+03
5.399999999999999939e-02 4.932824999999999571e-01 1.292204999999999870e+01 5.976035000000000252e+01 1.440380000000000109e+03
5.500000000000000028e-02 4.939904999999999990e-01 1.483924999999999983e+01 6.311305000000000121e+01 1.441340000000000146e+03
5.600000000000000117e-02 4.947179999999999911e-01 1.678404499999999899e+01 6.656479999999999109e+01 1.442345000000000027e+03
5.700000000000000205e-02 4.954540000000000055e-01 1.872626999999999953e+01 7.006370000000001141e+01 1.443380000000000109e+03
5.800000000000000294e-02 4.961885000000000323e-01 2.063769999999999882e+01 7.356104999999999450e+01 1.444424999999999955e+03
5.900000000000000383e-02 4.969124999999999792e-01 2.249310000000000187e+01 7.701384999999999081e+01 1.445474999999999909e+03
6.000000000000000472e-02 4.976194999999999924e-01 2.427169999999999916e+01 8.038640000000000896e+01 1.446519999999999982e+03
6.099999999999999867e-02 4.983039999999999692e-01 2.595754999999999768e+01 8.365155000000000030e+01 1.447534999999999854e+03
6.199999999999999956e-02 4.989635000000000042e-01 2.753979999999999961e+01 8.679149999999999920e+01 1.448529999999999973e+03
6.300000000000000044e-02 4.995969999999999578e-01 2.901290000000000191e+01 8.979755000000000109e+01 1.449494999999999891e+03
6.400000000000000133e-02 5.002050000000000107e-01 3.037569999999999837e+01 9.266979999999999507e+01 1.450430000000000064e+03
6.500000000000000222e-02 5.007909999999999862e-01 3.163119999999999976e+01 9.541610000000000014e+01 1.451329999999999927e+03
6.600000000000000311e-02 5.013560000000000239e-01 3.278544999999999732e+01 9.805055000000000121e+01 1.452194999999999936e+03
6.700000000000000400e-02 5.019065000000000332e-01 3.384694999999999965e+01 1.005914499999999947e+02 1.453045000000000073e+03
6.800000000000000488e-02 5.024454999999999893e-01 3.482594999999999885e+01 1.030597500000000082e+02 1.453865000000000009e+03
6.900000000000000577e-02 5.029779999999999252e-01 3.573329999999999984e+01 1.054785499999999985e+02 1.454670000000000073e+03
7.000000000000000666e-02 5.035080000000000666e-01 3.658019999999999783e+01 1.078700000000000045e+02 1.455470000000000027e+03
7.100000000000000755e-02 5.040399999999999325e-01 3.737704999999999700e+01 1.102545000000000073e+02 1.456259999999999991e+03
7.200000000000000844e-02 5.045764999999999834e-01 3.813304999999999723e+01 1.126479999999999961e+02 1.457050000000000182e+03
7.300000000000000933e-02 5.051200000000000134e-01 3.885585000000000377e+01 1.150635000000000048e+02 1.457845000000000027e+03
7.399999999999999634e-02 5.056709999999999816e-01 3.955069999999999908e+01 1.175084999999999980e+02 1.458644999999999982e+03
7.499999999999999722e-02 5.062299999999999578e-01 4.022044999999999959e+01 1.199849999999999994e+02 1.459454999999999927e+03
7.599999999999999811e-02 5.067945000000000366e-01 4.086525000000000318e+01 1.224879999999999995e+02 1.460269999999999982e+03
7.699999999999999900e-02 5.073630000000000084e-01 4.148284999999999911e+01 1.250090000000000146e+02 1.461095000000000027e+03
7.799999999999999989e-02 5.079314999999999802e-01 4.206834999999999525e+01 1.275310000000000059e+02 1.461914999999999964e+03
7.900000000000000078e-02 5.084949999999999193e-01 4.261489999999999867e+01 1.300364999999999895e+02 1.462735000000000127e+03
8.000000000000000167e-02 5.090485000000000149e-01 4.311410000000000053e+01 1.325004999999999882e+02 1.463545000000000073e+03
8.100000000000000255e-02 5.095859999999999834e-01 4.355655000000000143e+01 1.348985000000000127e+02 1.464340000000000146e+03
8.200000000000000344e-02 5.101025000000000142e-01 4.393234999999999957e+01 1.372040000000000077e+02 1.465105000000000018e+03
8.300000000000000433e-02 5.105920000000000458e-01 4.423189999999999600e+01 1.393915000000000077e+02 1.465835000000000036e+03
8.400000000000000522e-02 5.110505000000000742e-01 4.444639999999999702e+01 1.414364999999999952e+02 1.466534999999999854e+03
8.500000000000000611e-02 5.114724999999999966e-01 4.456815000000000282e+01 1.433174999999999955e+02 1.467180000000000064e+03
8.600000000000000699e-02 5.118544999999999900e-01 4.459134999999999849e+01 1.450174999999999841e+02 1.467775000000000091e+03
8.700000000000000788e-02 5.121940000000000381e-01 4.451200000000000045e+01 1.465219999999999914e+02 1.468315000000000055e+03
8.800000000000000877e-02 5.124900000000000011e-01 4.432835000000000036e+01 1.478224999999999909e+02 1.468795000000000073e+03
8.899999999999999578e-02 5.127414999999999612e-01 4.404094999999999516e+01 1.489159999999999968e+02 1.469210000000000036e+03
8.999999999999999667e-02 5.129489999999999883e-01 4.365250000000000341e+01 1.498034999999999854e+02 1.469565000000000055e+03
9.099999999999999756e-02 5.131140000000000700e-01 4.316809999999999548e+01 1.504909999999999854e+02 1.469855000000000018e+03
9.199999999999999845e-02 5.132385000000000419e-01 4.259459999999999980e+01 1.509884999999999877e+02 1.470085000000000036e+03
9.299999999999999933e-02 5.133265000000000189e-01 4.194084999999999752e+01 1.513110000000000070e+02 1.470250000000000000e+03
9.400000000000000022e-02 5.133805000000000174e-01 4.121694999999999709e+01 1.514755000000000109e+02 1.470375000000000000e+03
9.500000000000000111e-02 5.134054999999999591e-01 4.043424999999999869e+01 1.515020000000000095e+02 1.470445000000000164e+03
9.600000000000000200e-02 5.134060000000000290e-01 3.960484999999999900e+01 1.514110000000000014e+02 1.470474999999999909e+03
9.700000000000000289e-02 5.133860000000000090e-01 3.874129999999999541e+01 1.512255000000000109e+02 1.470470000000000027e+03
9.800000000000000377e-02 5.133510000000000018e-01 3.785594999999999999e+01 1.509680000000000177e+02 1.470434999999999945e+03
9.900000000000000466e-02 5.133044999999999414e-01 3.696085000000000065e+01 1.506589999999999918e+02 1.470375000000000000e+03
1.000000000000000056e-01 5.132514999999999716e-01 3.606725000000000136e+01 1.503195000000000050e+02 1.470305000000000064e+03
1.010000000000000064e-01 5.131955000000000267e-01 3.518520000000000181e+01 1.499669999999999845e+02 1.470214999999999918e+03
1.020000000000000073e-01 5.131395000000000817e-01 3.432325000000000159e+01 1.496169999999999902e+02 1.470130000000000109e+03
1.030000000000000082e-01 5.130859999999999310e-01 3.348839999999999861e+01 1.492824999999999989e+02 1.470039999999999964e+03
1.040000000000000091e-01 5.130360000000000475e-01 3.268569999999999709e+01 1.489724999999999966e+02 1.469950000000000045e+03
1.050000000000000100e-01 5.129909999999999748e-01 3.191830000000000211e+01 1.486924999999999955e+02 1.469865000000000009e+03
1.059999999999999970e-01 5.129524999999999224e-01 3.118730000000000047e+01 1.484440000000000168e+02 1.469784999999999854e+03
1.069999999999999979e-01 5.129185000000000549e-01 3.049204999999999899e+01 1.482264999999999873e+02 1.469714999999999918e+03
1.079999999999999988e-01 5.128880000000000106e-01 2.983004999999999995e+01 1.480349999999999966e+02 1.469644999999999982e+03
1.089999999999999997e-01 5.128599999999999826e-01 2.919744999999999635e+01 1.478639999999999759e+02 1.469585000000000036e+03
1.100000000000000006e-01 5.128325000000000244e-01 2.858905000000000030e+01 1.477024999999999864e+02 1.469525000000000091e+03
1.110000000000000014e-01 5.128034999999999677e-01 2.799884999999999735e+01 1.475414999999999850e+02 1.469470000000000027e+03
1.120000000000000023e-01 5.127694999999999892e-01 2.742034999999999911e+01 1.473689999999999998e+02 1.469404999999999973e+03
1.130000000000000032e-01 5.127289999999999903e-01 2.684660000000000224e+01 1.471725000000000136e+02 1.469345000000000027e+03
1.140000000000000041e-01 5.126800000000000246e-01 2.627105000000000246e+01 1.469414999999999907e+02 1.469264999999999873e+03
1.150000000000000050e-01 5.126195000000000057e-01 2.568740000000000023e+01 1.466639999999999873e+02 1.469179999999999836e+03
1.160000000000000059e-01 5.125459999999999461e-01 2.509024999999999750e+01 1.463324999999999818e+02 1.469079999999999927e+03
1.170000000000000068e-01 5.124575000000000102e-01 2.447509999999999764e+01 1.459390000000000214e+02 1.468960000000000036e+03
1.180000000000000077e-01 5.123545000000000460e-01 2.383854999999999791e+01 1.454775000000000205e+02 1.468819999999999936e+03
1.190000000000000085e-01 5.122360000000000246e-01 2.317855000000000132e+01 1.449460000000000264e+02 1.468660000000000082e+03
1.200000000000000094e-01 5.121025000000000160e-01 2.249450000000000216e+01 1.443449999999999989e+02 1.468485000000000127e+03
1.209999999999999964e-01 5.119540000000000202e-01 2.178715000000000046e+01 1.436759999999999877e+02 1.468285000000000082e+03
1.219999999999999973e-01 5.117924999999999836e-01 2.105869999999999820e+01 1.429445000000000050e+02 1.468065000000000055e+03
1.229999999999999982e-01 5.116190000000000460e-01 2.031265000000000143e+01 1.421569999999999823e+02 1.467835000000000036e+03
1.239999999999999991e-01 5.114364999999999606e-01 1.955359999999999943e+01 1.413240000000000123e+02 1.467579999999999927e+03
1.250000000000000000e-01 5.112470000000000070e-01 1.878740000000000165e+01 1.404559999999999889e+02 1.467320000000000164e+03
1.260000000000000009e-01 5.110535000000000494e-01 1.802045000000000030e+01 1.395654999999999859e+02 1.467045000000000073e+03
1.270000000000000018e-01 5.108590000000000630e-01 1.725994999999999990e+01 1.386659999999999968e+02 1.466764999999999873e+03
1.280000000000000027e-01 5.106654999999999944e-01 1.651335000000000264e+01 1.377710000000000150e+02 1.466490000000000009e+03
1.290000000000000036e-01 5.104775000000000285e-01 1.578800000000000026e+01 1.368935000000000173e+02 1.466214999999999918e+03
1.300000000000000044e-01 5.102965000000000417e-01 1.509133999999999887e+01 1.360480000000000018e+02 1.465945000000000164e+03
1.310000000000000053e-01 5.101255000000000095e-01 1.443011500000000069e+01 1.352464999999999975e+02 1.465684999999999945e+03
1.320000000000000062e-01 5.099670000000000591e-01 1.381050999999999895e+01 1.344990000000000236e+02 1.465440000000000055e+03
1.330000000000000071e-01 5.098219999999999974e-01 1.323771999999999949e+01 1.338149999999999977e+02 1.465215000000000146e+03
1.340000000000000080e-01 5.096924999999999928e-01 1.271584999999999965e+01 1.332019999999999982e+02 1.465000000000000000e+03
1.350000000000000089e-01 5.095794999999999630e-01 1.224782500000000063e+01 1.326644999999999754e+02 1.464815000000000055e+03
1.360000000000000098e-01 5.094840000000000479e-01 1.183537000000000106e+01 1.322059999999999889e+02 1.464644999999999982e+03
1.370000000000000107e-01 5.094039999999999679e-01 1.147878000000000043e+01 1.318259999999999934e+02 1.464505000000000109e+03
1.380000000000000115e-01 5.093404999999999738e-01 1.117722499999999997e+01 1.315229999999999961e+02 1.464384999999999991e+03
1.390000000000000124e-01 5.092925000000000368e-01 1.092858999999999980e+01 1.312925000000000182e+02 1.464284999999999854e+03
1.400000000000000133e-01 5.092584999999999473e-01 1.072977999999999987e+01 1.311295000000000073e+02 1.464204999999999927e+03
1.410000000000000142e-01 5.092360000000000220e-01 1.057678500000000099e+01 1.310264999999999986e+02 1.464150000000000091e+03
1.420000000000000151e-01 5.092244999999999688e-01 1.046477000000000146e+01 1.309755000000000109e+02 1.464110000000000127e+03
1.430000000000000160e-01 5.092209999999999237e-01 1.038864500000000035e+01 1.309669999999999845e+02 1.464079999999999927e+03
1.440000000000000169e-01 5.092244999999999688e-01 1.034272499999999972e+01 1.309914999999999736e+02 1.464065000000000055e+03
1.450000000000000178e-01 5.092315000000000591e-01 1.032147499999999951e+01 1.310400000000000205e+02 1.464059999999999945e+03
1.459999999999999909e-01 5.092419999999999725e-01 1.031928500000000071e+01 1.311039999999999850e+02 1.464065000000000055e+03
1.469999999999999918e-01 5.092529999999999557e-01 1.033088000000000051e+01 1.311734999999999900e+02 1.464075000000000045e+03
1.479999999999999927e-01 5.092634999999999801e-01 1.035127500000000111e+01 1.312429999999999950e+02 1.464079999999999927e+03
1.489999999999999936e-01 5.092719999999999470e-01 1.037620499999999879e+01 1.313045000000000186e+02 1.464090000000000146e+03
1.499999999999999944e-01 5.092780000000000085e-01 1.040185500000000118e+01 1.313539999999999850e+02 1.464099999999999909e+03
1.509999999999999953e-01 5.092805000000000248e-01 1.042506500000000003e+01 1.313880000000000052e+02 1.464099999999999909e+03
1.519999999999999962e-01 5.092794999999999961e-01 1.044346499999999978e+01 1.314035000000000082e+02 1.464105000000000018e+03
1.529999999999999971e-01 5.092740000000000045e-01 1.045526999999999873e+01 1.313990000000000009e+02 1.464105000000000018e+03
1.539999999999999980e-01 5.092650000000000787e-01 1.045935499999999863e+01 1.313760000000000048e+02 1.464090000000000146e+03
1.549999999999999989e-01 5.092520000000000380e-01 1.045520000000000138e+01 1.313340000000000032e+02 1.464079999999999927e+03
1.559999999999999998e-01 5.092364999999999808e-01 1.044293000000000049e+01 1.312754999999999939e+02 1.464065000000000055e+03
1.570000000000000007e-01 5.092179999999999485e-01 1.042298500000000061e+01 1.312035000000000196e+02 1.464045000000000073e+03
1.580000000000000016e-01 5.091974999999999696e-01 1.039622999999999919e+01 1.311210000000000093e+02 1.464019999999999982e+03
1.590000000000000024e-01 5.091760000000000730e-01 1.036386500000000055e+01 1.310310000000000059e+02 1.463994999999999891e+03
