# t [s], A [cm^2], U [cm/s], P [cPa], c [cm/s]
1.000000000000000021e-03 7.265870000000000939e-01 7.103999999999999204e-03 9.197514999999999930e+01 1.829259999999999991e+03
2.000000000000000042e-03 7.265759999999999996e-01 1.258400000000000664e-03 9.193655000000001110e+01 1.829250000000000000e+03
3.000000000000000062e-03 7.266510000000000469e-01 1.416009999999999769e-01 9.210575000000000045e+01 1.829279999999999973e+03
4.000000000000000083e-03 7.266850000000000254e-01 2.302374999999999838e-01 9.221035000000000537e+01 1.829300000000000182e+03
5.000000000000000104e-03 7.266080000000000316e-01 1.338435000000000041e-01 9.198980000000000246e+01 1.829259999999999991e+03
6.000000000000000125e-03 7.265255000000000463e-01 1.581050000000000511e-02 9.163044999999999618e+01 1.829190000000000055e+03
7.000000000000000146e-03 7.264355000000000118e-01 -1.316100000000000048e-01 9.116689999999999827e+01 1.829099999999999909e+03
8.000000000000000167e-03 7.262640000000000207e-01 -4.458299999999998375e-01 9.040215000000000600e+01 1.828945000000000164e+03
9.000000000000001055e-03 7.260124999999999496e-01 -9.280650000000000288e-01 8.927844999999999231e+01 1.828730000000000018e+03
1.000000000000000194e-02 7.256590000000000540e-01 -1.605859999999999843e+00 8.770539999999999736e+01 1.828414999999999964e+03
1.099999999999999936e-02 7.251790000000000180e-01 -2.503379999999999939e+00 8.558209999999999695e+01 1.827990000000000009e+03
1.200000000000000025e-02 7.246299999999999963e-01 -3.490904999999999703e+00 8.303100000000000591e+01 1.827470000000000027e+03
1.300000000000000114e-02 7.241295000000000925e-01 -4.314211000000000240e+00 8.041790000000000305e+01 1.826914999999999964e+03
1.400000000000000203e-02 7.237670000000000492e-01 -4.761865499999999862e+00 7.812590000000000146e+01 1.826400000000000091e+03
1.499999999999999944e-02 7.235504999999999853e-01 -4.776520000000000543e+00 7.634420000000000073e+01 1.825965000000000146e+03
1.600000000000000033e-02 7.234199999999999520e-01 -4.449455000000000382e+00 7.501400000000001000e+01 1.825610000000000127e+03
1.700000000000000122e-02 7.232885000000000009e-01 -3.946715000000000195e+00 7.390600000000000591e+01 1.825299999999999955e+03
1.800000000000000211e-02 7.230885000000000229e-01 -3.422730000000000050e+00 7.275229999999999109e+01 1.824990000000000009e+03
1.900000000000000300e-02 7.227945000000000064e-01 -2.957209999999999894e+00 7.137024999999999864e+01 1.824634999999999991e+03
2.000000000000000042e-02 7.224285000000000290e-01 -2.536758999999999986e+00 6.972839999999999350e+01 1.824240000000000009e+03
2.100000000000000130e-02 7.220415000000000028e-01 -2.085444999999999993e+00 6.792969999999999686e+01 1.823809999999999945e+03
2.200000000000000219e-02 7.216795000000000293e-01 -1.523529999999999829e+00 6.613139999999999930e+01 1.823375000000000000e+03
2.299999999999999961e-02 7.213644999999999641e-01 -8.208749999999997993e-01 6.444964999999999122e+01 1.822954999999999927e+03
2.400000000000000050e-02 7.210794999999999844e-01 -2.211499999999988475e-02 6.289500000000000313e+01 1.822559999999999945e+03
2.500000000000000139e-02 7.207790000000000585e-01 7.601450000000002927e-01 6.135660000000000025e+01 1.822164999999999964e+03
2.600000000000000228e-02 7.204019999999999868e-01 1.376335000000000086e+00 5.963325000000000387e+01 1.821744999999999891e+03
2.700000000000000316e-02 7.198964999999999392e-01 1.684140000000000192e+00 5.749739999999999895e+01 1.821244999999999891e+03
2.800000000000000058e-02 7.192339999999999289e-01 1.593119999999999870e+00 5.477420000000000044e+01 1.820639999999999873e+03
2.900000000000000147e-02 7.184230000000000338e-01 1.094555000000000167e+00 5.140829999999999700e+01 1.819910000000000082e+03
3.000000000000000236e-02 7.175099999999999811e-01 2.641299999999997539e-01 4.749264999999999759e+01 1.819069999999999936e+03
3.099999999999999978e-02 7.165624999999999911e-01 -7.630800000000004246e-01 4.324830000000000041e+01 1.818150000000000091e+03
3.200000000000000067e-02 7.156534999999999425e-01 -1.832024999999999793e+00 3.896829999999999927e+01 1.817204999999999927e+03
3.300000000000000155e-02 7.148445000000001048e-01 -2.803730000000000278e+00 3.495230000000000103e+01 1.816300000000000182e+03
3.400000000000000244e-02 7.141770000000000618e-01 -3.577965000000000284e+00 3.145299999999999940e+01 1.815485000000000127e+03
3.500000000000000333e-02 7.136700000000000266e-01 -4.099709999999999965e+00 2.864519999999999911e+01 1.814804999999999836e+03
3.600000000000000422e-02 7.133264999999999745e-01 -4.353273000000000614e+00 2.661880000000000024e+01 1.814280000000000200e+03
3.700000000000000511e-02 7.131365000000000620e-01 -4.349124999999999908e+00 2.538945000000000007e+01 1.813924999999999955e+03
3.799999999999999906e-02 7.130870000000000264e-01 -4.108404999999999418e+00 2.492224999999999824e+01 1.813740000000000009e+03
3.899999999999999994e-02 7.131644999999999790e-01 -3.649735000000000174e+00 2.515790000000000148e+01 1.813710000000000036e+03
4.000000000000000083e-02 7.133594999999999242e-01 -2.981801944999999954e+00 2.603549999999999898e+01 1.813829999999999927e+03
4.100000000000000172e-02 7.136675000000000102e-01 -2.103099999999999969e+00 2.750455000000000183e+01 1.814090000000000146e+03
4.200000000000000261e-02 7.140845000000000109e-01 -1.007715000000000138e+00 2.952584999999999837e+01 1.814480000000000018e+03
4.300000000000000350e-02 7.146069999999999922e-01 3.061400000000000787e-01 3.206354999999999933e+01 1.814994999999999891e+03
4.400000000000000439e-02 7.152259999999999174e-01 1.828480000000000327e+00 3.507415000000000305e+01 1.815619999999999891e+03
4.499999999999999833e-02 7.159260000000000623e-01 3.533570000000000100e+00 3.849739999999999895e+01 1.816339999999999918e+03
4.599999999999999922e-02 7.166885000000000616e-01 5.380235000000000767e+00 4.225310000000000343e+01 1.817144999999999982e+03
4.700000000000000011e-02 7.174890000000000434e-01 7.315859999999999808e+00 4.624334999999999951e+01 1.818014999999999873e+03
4.800000000000000100e-02 7.183040000000000536e-01 9.283069999999998601e+00 5.036019999999999897e+01 1.818920000000000073e+03
4.900000000000000189e-02 7.191115000000000146e-01 1.122606500000000018e+01 5.449625000000000341e+01 1.819849999999999909e+03
5.000000000000000278e-02 7.198930000000000051e-01 1.309687500000000071e+01 5.855535000000000423e+01 1.820769999999999982e+03
5.100000000000000366e-02 7.206375000000000419e-01 1.485900499999999980e+01 6.246094999999999686e+01 1.821674999999999955e+03
5.200000000000000455e-02 7.213370000000000060e-01 1.648904999999999887e+01 6.616159999999999286e+01 1.822545000000000073e+03
5.300000000000000544e-02 7.219910000000000494e-01 1.797625000000000028e+01 6.963209999999999411e+01 1.823365000000000009e+03
5.399999999999999939e-02 7.226034999999999542e-01 1.932055000000000078e+01 7.287189999999999657e+01 1.824144999999999982e+03
5.500000000000000028e-02 7.231794999999999751e-01 2.053014999999999901e+01 7.590085000000000548e+01 1.824880000000000109e+03
5.600000000000000117e-02 7.237284999999999968e-01 2.161919999999999931e+01 7.875409999999999400e+01 1.825579999999999927e+03
5.700000000000000205e-02 7.242600000000000149e-01 2.260549999999999926e+01 8.147675000000000978e+01 1.826244999999999891e+03
5.800000000000000294e-02 7.247839999999999838e-01 2.350844999999999985e+01 8.411830000000000496e+01 1.826889999999999873e+03
5.900000000000000383e-02 7.253084999999999116e-01 2.434754999999999825e+01 8.672780000000000200e+01 1.827525000000000091e+03
6.000000000000000472e-02 7.258424999999999461e-01 2.514029999999999987e+01 8.934895000000000209e+01 1.828159999999999854e+03
6.099999999999999867e-02 7.263904999999999390e-01 2.590070000000000050e+01 9.201580000000001291e+01 1.828799999999999955e+03
6.199999999999999956e-02 7.269550000000000178e-01 2.663789999999999836e+01 9.474920000000000186e+01 1.829450000000000045e+03
6.300000000000000044e-02 7.275359999999999605e-01 2.735519999999999996e+01 9.755469999999999686e+01 1.830119999999999891e+03
6.400000000000000133e-02 7.281279999999999974e-01 2.804994999999999905e+01 1.004220499999999987e+02 1.830799999999999955e+03
6.500000000000000222e-02 7.287255000000000260e-01 2.871415000000000006e+01 1.033256999999999977e+02 1.831480000000000018e+03
6.600000000000000311e-02 7.293195000000000094e-01 2.933555000000000135e+01 1.062284999999999968e+02 1.832174999999999955e+03
6.700000000000000400e-02 7.298999999999999932e-01 2.989959999999999951e+01 1.090854999999999961e+02 1.832855000000000018e+03
6.800000000000000488e-02 7.304574999999999818e-01 3.039095000000000013e+01 1.118474999999999966e+02 1.833514999999999873e+03
6.900000000000000577e-02 7.309824999999999795e-01 3.079505000000000337e+01 1.144669999999999987e+02 1.834150000000000091e+03
7.000000000000000666e-02 7.314669999999999783e-01 3.109929999999999950e+01 1.168990000000000009e+02 1.834744999999999891e+03
7.100000000000000755e-02 7.319044999999999579e-01 3.129400000000000048e+01 1.191090000000000089e+02 1.835289999999999964e+03
7.200000000000000844e-02 7.322910000000000252e-01 3.137239999999999895e+01 1.210664999999999907e+02 1.835785000000000082e+03
7.300000000000000933e-02 7.326224999999999543e-01 3.133144999999999669e+01 1.227539999999999907e+02 1.836214999999999918e+03
7.399999999999999634e-02 7.328995000000000370e-01 3.117154999999999632e+01 1.241640000000000015e+02 1.836585000000000036e+03
7.499999999999999722e-02 7.331214999999999815e-01 3.089639999999999986e+01 1.252969999999999970e+02 1.836894999999999982e+03
7.599999999999999811e-02 7.332925000000000137e-01 3.051310000000000144e+01 1.261629999999999967e+02 1.837139999999999873e+03
7.699999999999999900e-02 7.334164999999999157e-01 3.003209999999999980e+01 1.267810000000000059e+02 1.837325000000000045e+03
7.799999999999999989e-02 7.334979999999999833e-01 2.946640000000000015e+01 1.271769999999999925e+02 1.837460000000000036e+03
7.900000000000000078e-02 7.335445000000000437e-01 2.883160000000000167e+01 1.273810000000000002e+02 1.837545000000000073e+03
8.000000000000000167e-02 7.335624999999998952e-01 2.814479999999999649e+01 1.274295000000000044e+02 1.837585000000000036e+03
8.100000000000000255e-02 7.335595000000000310e-01 2.742425000000000068e+01 1.273589999999999947e+02 1.837599999999999909e+03
8.200000000000000344e-02 7.335439999999999738e-01 2.668779999999999930e+01 1.272079999999999984e+02 1.837589999999999918e+03
8.300000000000000433e-02 7.335214999999999375e-01 2.595254999999999868e+01 1.270124999999999886e+02 1.837559999999999945e+03
8.400000000000000522e-02 7.334985000000000532e-01 2.523349999999999937e+01 1.268050000000000068e+02 1.837529999999999973e+03
8.500000000000000611e-02 7.334800000000000209e-01 2.454294999999999760e+01 1.266114999999999924e+02 1.837494999999999891e+03
8.600000000000000699e-02 7.334680000000000089e-01 2.388964999999999961e+01 1.264540000000000077e+02 1.837460000000000036e+03
8.700000000000000788e-02 7.334654999999999925e-01 2.327879999999999683e+01 1.263425000000000011e+02 1.837434999999999945e+03
8.800000000000000877e-02 7.334724999999999717e-01 2.271189999999999998e+01 1.262835000000000036e+02 1.837414999999999964e+03
8.899999999999999578e-02 7.334864999999999302e-01 2.218694999999999951e+01 1.262729999999999961e+02 1.837409999999999854e+03
8.999999999999999667e-02 7.335065000000000612e-01 2.169875000000000043e+01 1.263019999999999925e+02 1.837409999999999854e+03
9.099999999999999756e-02 7.335279999999999578e-01 2.123975000000000080e+01 1.263540000000000134e+02 1.837420000000000073e+03
9.199999999999999845e-02 7.335469999999999491e-01 2.080044999999999789e+01 1.264110000000000014e+02 1.837420000000000073e+03
9.299999999999999933e-02 7.335589999999999611e-01 2.037014999999999887e+01 1.264505000000000052e+02 1.837429999999999836e+03
9.400000000000000022e-02 7.335599999999999898e-01 1.993764999999999787e+01 1.264484999999999957e+02 1.837429999999999836e+03
9.500000000000000111e-02 7.335445000000000437e-01 1.949199999999999733e+01 1.263834999999999980e+02 1.837414999999999964e+03
9.600000000000000200e-02 7.335104999999999542e-01 1.902339999999999876e+01 1.262350000000000136e+02 1.837380000000000109e+03
9.700000000000000289e-02 7.334534999999999805e-01 1.852355000000000018e+01 1.259859999999999900e+02 1.837329999999999927e+03
9.800000000000000377e-02 7.333730000000000526e-01 1.798644999999999783e+01 1.256250000000000000e+02 1.837250000000000000e+03
9.900000000000000466e-02 7.332674999999999610e-01 1.740895000000000081e+01 1.251444999999999936e+02 1.837150000000000091e+03
1.000000000000000056e-01 7.331385000000000263e-01 1.679080000000000084e+01 1.245459999999999923e+02 1.837019999999999982e+03
1.010000000000000064e-01 7.329879999999999729e-01 1.613510000000000133e+01 1.238365000000000009e+02 1.836869999999999891e+03
1.020000000000000073e-01 7.328189999999999982e-01 1.544795000000000051e+01 1.230294999999999987e+02 1.836690000000000055e+03
1.030000000000000082e-01 7.326369999999999827e-01 1.473825000000000074e+01 1.221450000000000102e+02 1.836500000000000000e+03
1.040000000000000091e-01 7.324459999999999305e-01 1.401702500000000029e+01 1.212075000000000102e+02 1.836289999999999964e+03
1.050000000000000100e-01 7.322530000000000427e-01 1.329703500000000105e+01 1.202450000000000045e+02 1.836075000000000045e+03
1.059999999999999970e-01 7.320645000000000069e-01 1.259173000000000009e+01 1.192870000000000061e+02 1.835855000000000018e+03
1.069999999999999979e-01 7.318850000000000078e-01 1.191469999999999985e+01 1.183644999999999925e+02 1.835639999999999873e+03
1.079999999999999988e-01 7.317210000000000658e-01 1.127875500000000031e+01 1.175054999999999978e+02 1.835434999999999945e+03
1.089999999999999997e-01 7.315770000000000328e-01 1.069524999999999970e+01 1.167355000000000018e+02 1.835250000000000000e+03
1.100000000000000006e-01 7.314564999999999539e-01 1.017365500000000011e+01 1.160750000000000028e+02 1.835085000000000036e+03
1.110000000000000014e-01 7.313619999999999566e-01 9.720674999999999955e+00 1.155390000000000015e+02 1.834950000000000045e+03
1.120000000000000023e-01 7.312944999999999585e-01 9.340444999999998998e+00 1.151374999999999886e+02 1.834840000000000146e+03
1.130000000000000032e-01 7.312549999999999883e-01 9.034224999999999284e+00 1.148725000000000023e+02 1.834764999999999873e+03
1.140000000000000041e-01 7.312404999999999600e-01 8.800345000000000084e+00 1.147404999999999973e+02 1.834715000000000146e+03
1.150000000000000050e-01 7.312495000000001077e-01 8.634729999999999350e+00 1.147324999999999875e+02 1.834690000000000055e+03
1.160000000000000059e-01 7.312784999999999425e-01 8.531069999999999709e+00 1.148344999999999914e+02 1.834700000000000045e+03
1.170000000000000068e-01 7.313240000000000851e-01 8.481419999999999959e+00 1.150295000000000130e+02 1.834724999999999909e+03
1.180000000000000077e-01 7.313819999999999766e-01 8.476679999999999993e+00 1.152969999999999970e+02 1.834769999999999982e+03
1.190000000000000085e-01 7.314479999999999871e-01 8.507144999999999513e+00 1.156165000000000020e+02 1.834829999999999927e+03
1.200000000000000094e-01 7.315184999999999604e-01 8.562989999999999213e+00 1.159680000000000035e+02 1.834900000000000091e+03
1.209999999999999964e-01 7.315895000000000037e-01 8.634734999999999161e+00 1.163315000000000055e+02 1.834974999999999909e+03
1.219999999999999973e-01 7.316579999999999195e-01 8.713564999999999117e+00 1.166899999999999977e+02 1.835050000000000182e+03
1.229999999999999982e-01 7.317215000000000247e-01 8.791640000000001010e+00 1.170279999999999916e+02 1.835130000000000109e+03
1.239999999999999991e-01 7.317774999999999697e-01 8.862294999999999590e+00 1.173344999999999914e+02 1.835194999999999936e+03
1.250000000000000000e-01 7.318244999999999889e-01 8.920154999999999390e+00 1.175999999999999943e+02 1.835255000000000109e+03
1.260000000000000009e-01 7.318625000000000824e-01 8.961224999999998886e+00 1.178199999999999932e+02 1.835309999999999945e+03
1.270000000000000018e-01 7.318904999999999994e-01 8.982879999999999754e+00 1.179915000000000020e+02 1.835355000000000018e+03
1.280000000000000027e-01 7.319100000000000605e-01 8.983859999999999957e+00 1.181145000000000067e+02 1.835384999999999991e+03
1.290000000000000036e-01 7.319204999999999739e-01 8.964214999999999378e+00 1.181920000000000073e+02 1.835409999999999854e+03
1.300000000000000044e-01 7.319240000000000190e-01 8.925105000000000288e+00 1.182295000000000016e+02 1.835424999999999955e+03
1.310000000000000053e-01 7.319210000000000438e-01 8.868719999999999715e+00 1.182334999999999923e+02 1.835430000000000064e+03
1.320000000000000062e-01 7.319145000000000234e-01 8.798049999999999926e+00 1.182115000000000009e+02 1.835430000000000064e+03
1.330000000000000071e-01 7.319050000000000278e-01 8.716630000000000322e+00 1.181719999999999970e+02 1.835424999999999955e+03
1.340000000000000080e-01 7.318955000000000322e-01 8.628379999999999939e+00 1.181239999999999952e+02 1.835420000000000073e+03
1.350000000000000089e-01 7.318869999999999543e-01 8.537224999999999397e+00 1.180759999999999934e+02 1.835409999999999854e+03
1.360000000000000098e-01 7.318804999999999339e-01 8.446749999999999758e+00 1.180354999999999990e+02 1.835404999999999973e+03
1.370000000000000107e-01 7.318774999999999586e-01 8.360239999999999227e+00 1.180084999999999980e+02 1.835400000000000091e+03
1.380000000000000115e-01 7.318789999999999463e-01 8.280224999999999724e+00 1.179995000000000118e+02 1.835394999999999982e+03
1.390000000000000124e-01 7.318845000000000489e-01 8.208484999999999587e+00 1.180120000000000005e+02 1.835404999999999973e+03
1.400000000000000133e-01 7.318944999999998924e-01 8.145929999999999893e+00 1.180450000000000017e+02 1.835410000000000082e+03
1.410000000000000142e-01 7.319085000000000729e-01 8.092674999999999841e+00 1.180980000000000132e+02 1.835414999999999964e+03
1.420000000000000151e-01 7.319260000000000765e-01 8.048045000000000115e+00 1.181689999999999969e+02 1.835434999999999945e+03
1.430000000000000160e-01 7.319450000000000678e-01 8.010804999999999509e+00 1.182514999999999930e+02 1.835450000000000045e+03
1.440000000000000169e-01 7.319649999999999768e-01 7.979269999999999641e+00 1.183425000000000011e+02 1.835474999999999909e+03
1.450000000000000178e-01 7.319845000000000379e-01 7.951544999999999419e+00 1.184344999999999999e+02 1.835490000000000009e+03
1.459999999999999909e-01 7.320029999999999593e-01 7.925729999999999720e+00 1.185224999999999937e+02 1.835514999999999873e+03
1.469999999999999918e-01 7.320195000000000451e-01 7.900095000000000312e+00 1.186024999999999920e+02 1.835529999999999973e+03
1.479999999999999927e-01 7.320324999999999749e-01 7.873235000000000205e+00 1.186689999999999969e+02 1.835545000000000073e+03
1.489999999999999936e-01 7.320420000000000815e-01 7.844154999999999767e+00 1.187194999999999965e+02 1.835554999999999836e+03
1.499999999999999944e-01 7.320484999999999909e-01 7.812359999999999971e+00 1.187535000000000025e+02 1.835565000000000055e+03
1.509999999999999953e-01 7.320514999999999661e-01 7.777834999999999610e+00 1.187710000000000008e+02 1.835574999999999818e+03
1.519999999999999962e-01 7.320510000000000073e-01 7.741039999999999921e+00 1.187725000000000080e+02 1.835574999999999818e+03
1.529999999999999971e-01 7.320489999999999498e-01 7.702849999999999753e+00 1.187615000000000123e+02 1.835574999999999818e+03
1.539999999999999980e-01 7.320450000000000568e-01 7.664480000000000182e+00 1.187419999999999902e+02 1.835569999999999936e+03
1.549999999999999989e-01 7.320404999999999829e-01 7.627449999999999619e+00 1.187175000000000011e+02 1.835565000000000055e+03
1.559999999999999998e-01 7.320360000000000200e-01 7.593445000000000000e+00 1.186940000000000026e+02 1.835559999999999945e+03
1.570000000000000007e-01 7.320340000000000735e-01 7.564310000000000755e+00 1.186765000000000043e+02 1.835554999999999836e+03
1.580000000000000016e-01 7.320335000000000036e-01 7.541924999999999990e+00 1.186705000000000041e+02 1.835554999999999836e+03
1.590000000000000024e-01 7.320370000000000488e-01 7.528154999999999930e+00 1.186804999999999950e+02 1.835554999999999836e+03
