# t [s], A [cm^2], U [cm/s], P [cPa], c [cm/s]
1.000000000000000021e-03 1.309184999999999932e-01 3.149330000000000185e-01 9.788240000000000407e+01 2.029509999999999991e+03
2.000000000000000042e-03 1.308844999999999870e-01 1.869718000000000213e+00 9.460040000000000759e+01 2.029095000000000027e+03
3.000000000000000062e-03 1.307880000000000154e-01 3.788841000000000570e+00 9.008019999999999072e+01 2.027980000000000018e+03
4.000000000000000083e-03 1.306535000000000057e-01 5.941554500000000516e+00 8.514150000000000773e+01 2.026450000000000045e+03
5.000000000000000104e-03 1.305080000000000129e-01 8.255855000000000388e+00 8.068610000000001037e+01 2.024809999999999945e+03
6.000000000000000125e-03 1.303670000000000107e-01 1.055928500000000092e+01 7.703629999999999711e+01 2.023235000000000127e+03
7.000000000000000146e-03 1.302345000000000030e-01 1.263017999999999930e+01 7.395560000000000400e+01 2.021789999999999964e+03
8.000000000000000167e-03 1.301130000000000064e-01 1.437216499999999897e+01 7.118314999999999770e+01 2.020480000000000018e+03
9.000000000000001055e-03 1.300054999999999961e-01 1.582254999999999967e+01 6.875764999999999816e+01 2.019345000000000027e+03
1.000000000000000194e-02 1.299140000000000017e-01 1.702220000000000155e+01 6.676900000000000546e+01 2.018384999999999991e+03
1.099999999999999936e-02 1.298389999999999822e-01 1.798939999999999984e+01 6.520310000000000628e+01 2.017605000000000018e+03
1.200000000000000025e-02 1.297790000000000055e-01 1.874299999999999855e+01 6.400739999999998986e+01 2.016994999999999891e+03
1.300000000000000114e-02 1.297325000000000006e-01 1.929209999999999781e+01 6.309895000000000209e+01 2.016525000000000091e+03
1.400000000000000203e-02 1.296950000000000047e-01 1.964099999999999824e+01 6.235585000000000377e+01 2.016159999999999854e+03
1.499999999999999944e-02 1.296650000000000025e-01 1.983420000000000272e+01 6.172665000000000646e+01 2.015869999999999891e+03
1.600000000000000033e-02 1.296439999999999815e-01 1.998770000000000024e+01 6.136214999999999975e+01 2.015670000000000073e+03
1.700000000000000122e-02 1.296364999999999879e-01 2.025390000000000157e+01 6.159059999999999491e+01 2.015619999999999891e+03
1.800000000000000211e-02 1.296515000000000029e-01 2.074370000000000047e+01 6.271985000000000099e+01 2.015780000000000200e+03
1.900000000000000300e-02 1.296904999999999863e-01 2.146219999999999928e+01 6.481389999999998963e+01 2.016194999999999936e+03
2.000000000000000042e-02 1.297514999999999918e-01 2.230039999999999978e+01 6.759669999999999845e+01 2.016829999999999927e+03
2.100000000000000130e-02 1.298229999999999940e-01 2.307985000000000042e+01 7.052920000000000300e+01 2.017585000000000036e+03
2.200000000000000219e-02 1.298924999999999941e-01 2.362265000000000015e+01 7.300350000000000250e+01 2.018340000000000146e+03
2.299999999999999961e-02 1.299489999999999812e-01 2.381445000000000078e+01 7.455440000000000111e+01 2.018954999999999927e+03
2.400000000000000050e-02 1.299830000000000152e-01 2.363640000000000185e+01 7.500194999999999368e+01 2.019344999999999800e+03
2.500000000000000139e-02 1.299939999999999984e-01 2.315970000000000084e+01 7.447814999999999941e+01 2.019494999999999891e+03
2.600000000000000228e-02 1.299865000000000048e-01 2.250880000000000081e+01 7.334110000000001151e+01 2.019440000000000055e+03
2.700000000000000316e-02 1.299675000000000136e-01 2.181150000000000233e+01 7.202215000000001055e+01 2.019255000000000109e+03
2.800000000000000058e-02 1.299454999999999916e-01 2.115654999999999930e+01 7.087144999999999584e+01 2.019029999999999973e+03
2.900000000000000147e-02 1.299260000000000137e-01 2.057240000000000180e+01 7.005819999999999936e+01 2.018815000000000055e+03
3.000000000000000236e-02 1.299104999999999843e-01 2.003085000000000093e+01 6.955020000000000380e+01 2.018650000000000091e+03
3.099999999999999978e-02 1.298974999999999991e-01 1.946995000000000076e+01 6.916604999999999848e+01 2.018505000000000109e+03
3.200000000000000067e-02 1.298834999999999851e-01 1.882520000000000238e+01 6.867050000000000409e+01 2.018365000000000009e+03
3.300000000000000155e-02 1.298650000000000082e-01 1.805940000000000012e+01 6.787725000000000364e+01 2.018174999999999955e+03
3.400000000000000244e-02 1.298384999999999956e-01 1.718175000000000097e+01 6.672755000000000791e+01 2.017900000000000091e+03
3.500000000000000333e-02 1.298050000000000037e-01 1.625155000000000172e+01 6.532319999999999993e+01 2.017550000000000182e+03
3.600000000000000422e-02 1.297685000000000088e-01 1.536550000000000082e+01 6.390475000000000705e+01 2.017174999999999955e+03
3.700000000000000511e-02 1.297349999999999892e-01 1.463210000000000122e+01 6.278434999999999633e+01 2.016815000000000055e+03
3.799999999999999906e-02 1.297109999999999930e-01 1.414320000000000022e+01 6.225515000000000043e+01 2.016555000000000064e+03
3.899999999999999994e-02 1.297034999999999993e-01 1.394894999999999996e+01 6.250659999999999883e+01 2.016460000000000036e+03
4.000000000000000083e-02 1.297149999999999970e-01 1.404599999999999937e+01 6.357110000000000127e+01 2.016565000000000055e+03
4.100000000000000172e-02 1.297449999999999992e-01 1.437774999999999892e+01 6.531354999999999222e+01 2.016855000000000018e+03
4.200000000000000261e-02 1.297895000000000021e-01 1.484779999999999944e+01 6.746219999999999573e+01 2.017309999999999945e+03
4.300000000000000350e-02 1.298409999999999842e-01 1.533919999999999995e+01 6.966734999999999900e+01 2.017849999999999909e+03
4.400000000000000439e-02 1.298930000000000085e-01 1.573559999999999981e+01 7.157044999999999391e+01 2.018389999999999873e+03
4.499999999999999833e-02 1.299359999999999959e-01 1.593925000000000125e+01 7.286619999999999209e+01 2.018855000000000018e+03
4.599999999999999922e-02 1.299639999999999962e-01 1.588250000000000028e+01 7.334645000000000437e+01 2.019159999999999854e+03
4.700000000000000011e-02 1.299720000000000042e-01 1.553245000000000076e+01 7.291910000000000025e+01 2.019259999999999991e+03
4.800000000000000100e-02 1.299585000000000046e-01 1.488900000000000112e+01 7.160370000000000346e+01 2.019125000000000000e+03
4.900000000000000189e-02 1.299230000000000107e-01 1.397825000000000095e+01 6.950854999999999961e+01 2.018764999999999873e+03
5.000000000000000278e-02 1.298679999999999835e-01 1.284312000000000076e+01 6.679800000000000182e+01 2.018200000000000045e+03
5.100000000000000366e-02 1.297975000000000101e-01 1.153523999999999994e+01 6.365845000000000198e+01 2.017465000000000146e+03
5.200000000000000455e-02 1.297149999999999970e-01 1.010766999999999882e+01 6.027119999999999322e+01 2.016599999999999909e+03
5.300000000000000544e-02 1.296255000000000046e-01 8.610960000000000392e+00 5.679540000000000077e+01 2.015654999999999973e+03
5.399999999999999939e-02 1.295319999999999805e-01 7.092109999999999914e+00 5.336195000000000022e+01 2.014670000000000073e+03
5.500000000000000028e-02 1.294384999999999841e-01 5.594854999999999912e+00 5.007659999999999911e+01 2.013674999999999955e+03
5.600000000000000117e-02 1.293469999999999898e-01 4.161459500000000311e+00 4.702764999999999418e+01 2.012710000000000036e+03
5.700000000000000205e-02 1.292619999999999880e-01 2.834195499999999868e+00 4.429534999999999911e+01 2.011800000000000182e+03
5.800000000000000294e-02 1.291839999999999933e-01 1.655979999999999785e+00 4.195850000000000080e+01 2.010974999999999909e+03
5.900000000000000383e-02 1.291170000000000095e-01 6.699000000000000510e-01 4.009810000000000230e+01 2.010255000000000109e+03
6.000000000000000472e-02 1.290629999999999833e-01 -8.249000000000006327e-02 3.879520000000000124e+01 2.009674999999999955e+03
6.099999999999999867e-02 1.290250000000000008e-01 -5.637185000000000112e-01 3.812590000000000146e+01 2.009250000000000000e+03
6.199999999999999956e-02 1.290034999999999932e-01 -7.433060000000000223e-01 3.815399999999999636e+01 2.009005000000000109e+03
6.300000000000000044e-02 1.290014999999999912e-01 -6.004855000000000054e-01 3.892275000000000063e+01 2.008965000000000146e+03
6.400000000000000133e-02 1.290199999999999958e-01 -1.261544999999999472e-01 4.044880000000000564e+01 2.009134999999999991e+03
6.500000000000000222e-02 1.290590000000000070e-01 6.761149999999999105e-01 4.271849999999999881e+01 2.009529999999999973e+03
6.600000000000000311e-02 1.291190000000000115e-01 1.790261999999999798e+00 4.568734999999999502e+01 2.010139999999999873e+03
6.700000000000000400e-02 1.291979999999999795e-01 3.188834999999999642e+00 4.928310000000000457e+01 2.010944999999999936e+03
6.800000000000000488e-02 1.292944999999999789e-01 4.834925000000000139e+00 5.341089999999999804e+01 2.011950000000000045e+03
6.900000000000000577e-02 1.294059999999999933e-01 6.684524999999999828e+00 5.796020000000000039e+01 2.013115000000000009e+03
7.000000000000000666e-02 1.295299999999999785e-01 8.689119999999999067e+00 6.281190000000000850e+01 2.014409999999999854e+03
7.100000000000000755e-02 1.296630000000000005e-01 1.079815500000000128e+01 6.784574999999999534e+01 2.015809999999999945e+03
7.200000000000000844e-02 1.298020000000000007e-01 1.296162499999999795e+01 7.294675000000000864e+01 2.017284999999999854e+03
7.300000000000000933e-02 1.299440000000000039e-01 1.513220000000000098e+01 7.801060000000001082e+01 2.018795000000000073e+03
7.399999999999999634e-02 1.300860000000000072e-01 1.726745000000000019e+01 8.294870000000000232e+01 2.020305000000000064e+03
7.499999999999999722e-02 1.302260000000000084e-01 1.933150000000000190e+01 8.769185000000000230e+01 2.021804999999999836e+03
7.599999999999999811e-02 1.303614999999999913e-01 2.129615000000000080e+01 9.219235000000000468e+01 2.023264999999999873e+03
7.699999999999999900e-02 1.304919999999999969e-01 2.314219999999999899e+01 9.642589999999999861e+01 2.024664999999999964e+03
7.799999999999999989e-02 1.306164999999999965e-01 2.485914999999999964e+01 1.003893999999999949e+02 2.026009999999999991e+03
7.900000000000000078e-02 1.307339999999999891e-01 2.644494999999999862e+01 1.041012499999999932e+02 2.027289999999999964e+03
8.000000000000000167e-02 1.308460000000000178e-01 2.790494999999999948e+01 1.075955000000000013e+02 2.028500000000000000e+03
8.100000000000000255e-02 1.309524999999999995e-01 2.925054999999999694e+01 1.109184999999999945e+02 2.029659999999999854e+03
8.200000000000000344e-02 1.310544999999999904e-01 3.049690000000000012e+01 1.141214999999999975e+02 2.030775000000000091e+03
8.300000000000000433e-02 1.311529999999999918e-01 3.166120000000000090e+01 1.172580000000000098e+02 2.031849999999999909e+03
8.400000000000000522e-02 1.312504999999999922e-01 3.276089999999999947e+01 1.203750000000000000e+02 2.032914999999999964e+03
8.500000000000000611e-02 1.313469999999999915e-01 3.381170000000000186e+01 1.235114999999999981e+02 2.033965000000000146e+03
8.600000000000000699e-02 1.314434999999999909e-01 3.482630000000000337e+01 1.266944999999999908e+02 2.035025000000000091e+03
8.700000000000000788e-02 1.315409999999999913e-01 3.581365000000000265e+01 1.299364999999999952e+02 2.036090000000000146e+03
8.800000000000000877e-02 1.316394999999999926e-01 3.677805000000000035e+01 1.332369999999999948e+02 2.037160000000000082e+03
8.899999999999999578e-02 1.317395000000000094e-01 3.771940000000000026e+01 1.365815000000000055e+02 2.038255000000000109e+03
8.999999999999999667e-02 1.318400000000000127e-01 3.863330000000000553e+01 1.399429999999999836e+02 2.039349999999999909e+03
9.099999999999999756e-02 1.319405000000000161e-01 3.951154999999999973e+01 1.432880000000000109e+02 2.040444999999999936e+03
9.199999999999999845e-02 1.320399999999999907e-01 4.034284999999999854e+01 1.465729999999999791e+02 2.041539999999999964e+03
9.299999999999999933e-02 1.321375000000000188e-01 4.111379999999999768e+01 1.497529999999999859e+02 2.042610000000000127e+03
9.400000000000000022e-02 1.322329999999999894e-01 4.180960000000000321e+01 1.527814999999999941e+02 2.043644999999999982e+03
9.500000000000000111e-02 1.323229999999999962e-01 4.241530000000000200e+01 1.556129999999999995e+02 2.044640000000000100e+03
9.600000000000000200e-02 1.324079999999999979e-01 4.291615000000000180e+01 1.582055000000000007e+02 2.045575000000000045e+03
9.700000000000000289e-02 1.324859999999999927e-01 4.329905000000000115e+01 1.605229999999999961e+02 2.046434999999999945e+03
9.800000000000000377e-02 1.325560000000000072e-01 4.355280000000000484e+01 1.625360000000000014e+02 2.047215000000000146e+03
9.900000000000000466e-02 1.326180000000000136e-01 4.366894999999999527e+01 1.642235000000000014e+02 2.047904999999999973e+03
1.000000000000000056e-01 1.326709999999999834e-01 4.364220000000000255e+01 1.655720000000000027e+02 2.048494999999999891e+03
1.010000000000000064e-01 1.327145000000000130e-01 4.347090000000000032e+01 1.665790000000000077e+02 2.048980000000000018e+03
1.020000000000000073e-01 1.327484999999999915e-01 4.315709999999999980e+01 1.672510000000000048e+02 2.049369999999999891e+03
1.030000000000000082e-01 1.327730000000000021e-01 4.270650000000000546e+01 1.676024999999999920e+02 2.049650000000000091e+03
1.040000000000000091e-01 1.327885000000000038e-01 4.212834999999999752e+01 1.676564999999999941e+02 2.049829999999999927e+03
1.050000000000000100e-01 1.327955000000000108e-01 4.143534999999999968e+01 1.674435000000000002e+02 2.049920000000000073e+03
1.059999999999999970e-01 1.327945000000000098e-01 4.064249999999999829e+01 1.670000000000000000e+02 2.049925000000000182e+03
1.069999999999999979e-01 1.327869999999999884e-01 3.976699999999999591e+01 1.663654999999999973e+02 2.049855000000000018e+03
1.079999999999999988e-01 1.327740000000000031e-01 3.882729999999999393e+01 1.655829999999999984e+02 2.049720000000000255e+03
1.089999999999999997e-01 1.327564999999999995e-01 3.784235000000000326e+01 1.646935000000000002e+02 2.049529999999999745e+03
1.100000000000000006e-01 1.327355000000000063e-01 3.683095000000000141e+01 1.637379999999999995e+02 2.049304999999999836e+03
1.110000000000000014e-01 1.327119999999999966e-01 3.581080000000000041e+01 1.627554999999999836e+02 2.049055000000000291e+03
1.120000000000000023e-01 1.326869999999999994e-01 3.479809999999999803e+01 1.617769999999999868e+02 2.048784999999999854e+03
1.130000000000000032e-01 1.326615000000000155e-01 3.380709999999999837e+01 1.608315000000000055e+02 2.048510000000000218e+03
1.140000000000000041e-01 1.326364999999999905e-01 3.284929999999999950e+01 1.599399999999999977e+02 2.048239999999999782e+03
1.150000000000000050e-01 1.326129999999999809e-01 3.193350000000000222e+01 1.591179999999999950e+02 2.047970000000000027e+03
1.160000000000000059e-01 1.325899999999999856e-01 3.106544999999999845e+01 1.583715000000000259e+02 2.047719999999999800e+03
1.170000000000000068e-01 1.325689999999999924e-01 3.024784999999999968e+01 1.577024999999999864e+02 2.047489999999999782e+03
1.180000000000000077e-01 1.325495000000000145e-01 2.948049999999999926e+01 1.571050000000000182e+02 2.047274999999999864e+03
1.190000000000000085e-01 1.325319999999999832e-01 2.876019999999999754e+01 1.565674999999999955e+02 2.047079999999999927e+03
1.200000000000000094e-01 1.325159999999999949e-01 2.808149999999999835e+01 1.560729999999999791e+02 2.046889999999999873e+03
1.209999999999999964e-01 1.325004999999999933e-01 2.743674999999999997e+01 1.556014999999999873e+02 2.046719999999999800e+03
1.219999999999999973e-01 1.324859999999999927e-01 2.681670000000000087e+01 1.551290000000000191e+02 2.046555000000000064e+03
1.229999999999999982e-01 1.324704999999999910e-01 2.621114999999999995e+01 1.546304999999999836e+02 2.046385000000000218e+03
1.239999999999999991e-01 1.324545000000000028e-01 2.560949999999999704e+01 1.540824999999999818e+02 2.046210000000000036e+03
1.250000000000000000e-01 1.324375000000000135e-01 2.500134999999999863e+01 1.534594999999999914e+02 2.046019999999999982e+03
1.260000000000000009e-01 1.324179999999999802e-01 2.437695000000000078e+01 1.527420000000000186e+02 2.045805000000000064e+03
1.270000000000000018e-01 1.323959999999999859e-01 2.372804999999999964e+01 1.519130000000000109e+02 2.045565000000000055e+03
1.280000000000000027e-01 1.323715000000000031e-01 2.304800000000000182e+01 1.509600000000000080e+02 2.045289999999999964e+03
1.290000000000000036e-01 1.323435000000000028e-01 2.233245000000000147e+01 1.498770000000000095e+02 2.044990000000000236e+03
1.300000000000000044e-01 1.323114999999999986e-01 2.157945000000000135e+01 1.486634999999999991e+02 2.044639999999999873e+03
1.310000000000000053e-01 1.322764999999999913e-01 2.078960000000000008e+01 1.473260000000000218e+02 2.044260000000000218e+03
1.320000000000000062e-01 1.322379999999999944e-01 1.996620000000000061e+01 1.458759999999999764e+02 2.043839999999999918e+03
1.330000000000000071e-01 1.321959999999999802e-01 1.911500000000000199e+01 1.443319999999999936e+02 2.043389999999999873e+03
1.340000000000000080e-01 1.321515000000000051e-01 1.824390000000000001e+01 1.427169999999999845e+02 2.042910000000000082e+03
1.350000000000000089e-01 1.321060000000000012e-01 1.736285000000000167e+01 1.410575000000000045e+02 2.042410000000000082e+03
1.360000000000000098e-01 1.320580000000000087e-01 1.648304999999999865e+01 1.393834999999999980e+02 2.041889999999999873e+03
1.370000000000000107e-01 1.320105000000000028e-01 1.561659999999999826e+01 1.377255000000000109e+02 2.041375000000000000e+03
1.380000000000000115e-01 1.319629999999999970e-01 1.477594999999999992e+01 1.361145000000000209e+02 2.040855000000000018e+03
1.390000000000000124e-01 1.319164999999999921e-01 1.397325000000000017e+01 1.345794999999999959e+02 2.040349999999999909e+03
1.400000000000000133e-01 1.318719999999999892e-01 1.321969999999999956e+01 1.331469999999999914e+02 2.039860000000000127e+03
1.410000000000000142e-01 1.318305000000000171e-01 1.252539999999999942e+01 1.318394999999999868e+02 2.039404999999999973e+03
1.420000000000000151e-01 1.317919999999999925e-01 1.189854000000000056e+01 1.306759999999999877e+02 2.038980000000000018e+03
1.430000000000000160e-01 1.317570000000000130e-01 1.134523499999999885e+01 1.296674999999999898e+02 2.038599999999999909e+03
1.440000000000000169e-01 1.317264999999999964e-01 1.086953000000000102e+01 1.288220000000000027e+02 2.038264999999999873e+03
1.450000000000000178e-01 1.317010000000000125e-01 1.047302000000000000e+01 1.281399999999999864e+02 2.037974999999999909e+03
1.459999999999999909e-01 1.316789999999999905e-01 1.015511499999999856e+01 1.276179999999999950e+02 2.037730000000000018e+03
1.469999999999999918e-01 1.316620000000000013e-01 9.913125000000000853e+00 1.272470000000000141e+02 2.037535000000000082e+03
1.479999999999999927e-01 1.316485000000000016e-01 9.742380000000000706e+00 1.270149999999999864e+02 2.037384999999999991e+03
1.489999999999999936e-01 1.316394999999999926e-01 9.636684999999999945e+00 1.269060000000000059e+02 2.037279999999999973e+03
1.499999999999999944e-01 1.316330000000000000e-01 9.588580000000000325e+00 1.269010000000000105e+02 2.037204999999999927e+03
1.509999999999999953e-01 1.316309999999999980e-01 9.589594999999999203e+00 1.269814999999999969e+02 2.037175000000000182e+03
1.519999999999999962e-01 1.316304999999999836e-01 9.630914999999999893e+00 1.271264999999999930e+02 2.037164999999999964e+03
1.529999999999999971e-01 1.316324999999999856e-01 9.703229999999999578e+00 1.273164999999999907e+02 2.037179999999999836e+03
1.539999999999999980e-01 1.316355000000000164e-01 9.797589999999999577e+00 1.275335000000000036e+02 2.037210000000000036e+03
1.549999999999999989e-01 1.316400000000000070e-01 9.905380000000000962e+00 1.277584999999999980e+02 2.037250000000000000e+03
1.559999999999999998e-01 1.316444999999999976e-01 1.001861500000000049e+01 1.279784999999999968e+02 2.037299999999999955e+03
1.570000000000000007e-01 1.316490000000000160e-01 1.013018999999999892e+01 1.281784999999999854e+02 2.037349999999999909e+03
1.580000000000000016e-01 1.316535000000000066e-01 1.023406999999999911e+01 1.283485000000000014e+02 2.037400000000000091e+03
1.590000000000000024e-01 1.316575000000000106e-01 1.032536999999999949e+01 1.284819999999999993e+02 2.037440000000000055e+03
