# t [s], A [cm^2], U [cm/s], P [cPa], c [cm/s]
1.000000000000000021e-03 4.855840000000000156e-01 3.996449999999998615e-03 9.484485000000000809e+01 1.570295000000000073e+03
2.000000000000000042e-03 4.855770000000000364e-01 -1.875074999999999919e-03 9.482509999999999195e+01 1.570284999999999854e+03
3.000000000000000062e-03 4.856020000000000336e-01 5.182205000000000839e-02 9.487905000000000655e+01 1.570300000000000182e+03
4.000000000000000083e-03 4.856415000000000037e-01 1.394559499999999952e-01 9.498955000000000837e+01 1.570329999999999927e+03
5.000000000000000104e-03 4.856469999999999954e-01 1.603341500000000086e-01 9.501564999999999372e+01 1.570340000000000146e+03
6.000000000000000125e-03 4.856159999999999921e-01 1.030595000000000122e-01 9.491034999999999400e+01 1.570320000000000164e+03
7.000000000000000146e-03 4.855819999999999581e-01 3.637850000000003581e-02 9.474170000000000869e+01 1.570279999999999973e+03
8.000000000000000167e-03 4.855490000000000084e-01 -3.467250000000005050e-02 9.452899999999999636e+01 1.570235000000000127e+03
9.000000000000001055e-03 4.854924999999999935e-01 -1.655774999999999886e-01 9.421000000000000796e+01 1.570164999999999964e+03
1.000000000000000194e-02 4.854020000000000001e-01 -3.831599999999999451e-01 9.373409999999999798e+01 1.570054999999999836e+03
1.099999999999999936e-02 4.852714999999999668e-01 -6.985550000000001480e-01 9.306260000000000332e+01 1.569904999999999973e+03
1.200000000000000025e-02 4.850900000000000212e-01 -1.127864999999999895e+00 9.214724999999999966e+01 1.569690000000000055e+03
1.300000000000000114e-02 4.848569999999999824e-01 -1.663809999999999789e+00 9.096450000000000102e+01 1.569414999999999964e+03
1.400000000000000203e-02 4.845895000000000064e-01 -2.249635000000000051e+00 8.955619999999998981e+01 1.569075000000000045e+03
1.499999999999999944e-02 4.843184999999999851e-01 -2.793179999999999996e+00 8.802645000000001119e+01 1.568695000000000164e+03
1.600000000000000033e-02 4.840734999999999899e-01 -3.205979000000000134e+00 8.649830000000000041e+01 1.568299999999999955e+03
1.700000000000000122e-02 4.838679999999999648e-01 -3.434881499999999921e+00 8.506730000000000302e+01 1.567914999999999964e+03
1.800000000000000211e-02 4.836989999999999901e-01 -3.471355949999999968e+00 8.377660000000000196e+01 1.567550000000000182e+03
1.900000000000000300e-02 4.835530000000000106e-01 -3.342542499999999972e+00 8.261645000000000039e+01 1.567204999999999927e+03
2.000000000000000042e-02 4.834105000000000207e-01 -3.093803000000000303e+00 8.154114999999998759e+01 1.566875000000000000e+03
2.100000000000000130e-02 4.832564999999999777e-01 -2.771078000000000152e+00 8.049115000000000464e+01 1.566545000000000073e+03
2.200000000000000219e-02 4.830809999999999826e-01 -2.407581500000000041e+00 7.941455000000000553e+01 1.566204999999999927e+03
2.299999999999999961e-02 4.828824999999999923e-01 -2.017389999999999795e+00 7.828184999999999150e+01 1.565859999999999900e+03
2.400000000000000050e-02 4.826675000000000271e-01 -1.596625000000000183e+00 7.709090000000000487e+01 1.565500000000000000e+03
2.500000000000000139e-02 4.824444999999999983e-01 -1.131065000000000209e+00 7.586129999999999995e+01 1.565119999999999891e+03
2.600000000000000228e-02 4.822230000000000127e-01 -6.068849999999998968e-01 7.462219999999999231e+01 1.564750000000000000e+03
2.700000000000000316e-02 4.820060000000000455e-01 -2.044500000000004647e-02 7.339759999999999707e+01 1.564369999999999891e+03
2.800000000000000058e-02 4.817934999999999857e-01 6.160549999999997972e-01 7.219505000000000905e+01 1.563994999999999891e+03
2.900000000000000147e-02 4.815779999999999506e-01 1.274089999999999945e+00 7.100024999999999409e+01 1.563619999999999891e+03
3.000000000000000236e-02 4.813494999999999857e-01 1.913094999999999990e+00 6.977909999999999968e+01 1.563244999999999891e+03
3.099999999999999978e-02 4.810955000000000092e-01 2.487944999999999851e+00 6.848460000000000036e+01 1.562849999999999909e+03
3.200000000000000067e-02 4.808065000000000255e-01 2.957634999999999792e+00 6.706839999999999691e+01 1.562429999999999836e+03
3.300000000000000155e-02 4.804764999999999731e-01 3.293325000000000280e+00 6.549280000000000257e+01 1.561974999999999909e+03
3.400000000000000244e-02 4.801075000000000204e-01 3.483769999999999811e+00 6.374145000000000039e+01 1.561480000000000018e+03
3.500000000000000333e-02 4.797055000000000069e-01 3.537069999999999936e+00 6.182489999999999952e+01 1.560950000000000045e+03
3.600000000000000422e-02 4.792834999999999734e-01 3.478364999999999707e+00 5.978159999999999741e+01 1.560384999999999991e+03
3.700000000000000511e-02 4.788570000000000326e-01 3.344199999999999839e+00 5.767234999999999445e+01 1.559805000000000064e+03
3.799999999999999906e-02 4.784430000000000072e-01 3.175929999999999698e+00 5.557175000000000153e+01 1.559224999999999909e+03
3.899999999999999994e-02 4.780560000000000365e-01 3.013084999999999791e+00 5.355814999999999770e+01 1.558659999999999854e+03
4.000000000000000083e-02 4.777080000000000215e-01 2.889134999999999565e+00 5.170465000000000089e+01 1.558125000000000000e+03
4.100000000000000172e-02 4.774089999999999723e-01 2.828949999999999854e+00 5.007325000000000159e+01 1.557650000000000091e+03
4.200000000000000261e-02 4.771634999999999627e-01 2.848889999999999922e+00 4.871115000000000350e+01 1.557235000000000127e+03
4.300000000000000350e-02 4.769750000000000378e-01 2.958499999999999908e+00 4.765070000000000050e+01 1.556894999999999982e+03
4.400000000000000439e-02 4.768450000000000188e-01 3.162898999999999905e+00 4.691129999999999711e+01 1.556639999999999873e+03
4.499999999999999833e-02 4.767739999999999756e-01 3.465334999999999610e+00 4.650269999999999726e+01 1.556470000000000027e+03
4.599999999999999922e-02 4.767614999999999492e-01 3.869220000000000326e+00 4.642835000000000178e+01 1.556394999999999982e+03
4.700000000000000011e-02 4.768089999999999828e-01 4.379244999999999166e+00 4.668824999999999648e+01 1.556409999999999854e+03
4.800000000000000100e-02 4.769155000000000477e-01 5.001405000000000101e+00 4.728119999999999834e+01 1.556509999999999991e+03
4.900000000000000189e-02 4.770824999999999649e-01 5.742160000000000153e+00 4.820494999999999663e+01 1.556710000000000036e+03
5.000000000000000278e-02 4.773095000000000532e-01 6.606989999999999696e+00 4.945575000000000188e+01 1.556994999999999891e+03
5.100000000000000366e-02 4.775960000000000205e-01 7.598835000000000228e+00 5.102670000000000528e+01 1.557375000000000000e+03
5.200000000000000455e-02 4.779394999999999616e-01 8.716675000000000395e+00 5.290675000000000239e+01 1.557840000000000146e+03
5.300000000000000544e-02 4.783359999999999834e-01 9.954909999999999926e+00 5.507880000000000109e+01 1.558385000000000218e+03
5.399999999999999939e-02 4.787804999999999978e-01 1.130309499999999900e+01 5.751979999999999649e+01 1.559009999999999991e+03
5.500000000000000028e-02 4.792669999999999986e-01 1.274657499999999999e+01 6.020035000000000025e+01 1.559710000000000036e+03
5.600000000000000117e-02 4.797885000000000066e-01 1.426738500000000087e+01 6.308624999999999972e+01 1.560470000000000027e+03
5.700000000000000205e-02 4.803374999999999728e-01 1.584565000000000090e+01 6.613974999999999227e+01 1.561279999999999973e+03
5.800000000000000294e-02 4.809069999999999734e-01 1.746094000000000079e+01 6.932205000000000439e+01 1.562139999999999873e+03
5.900000000000000383e-02 4.814890000000000003e-01 1.909359999999999857e+01 7.259494999999999720e+01 1.563029999999999973e+03
6.000000000000000472e-02 4.820794999999999941e-01 2.072595000000000098e+01 7.592334999999999923e+01 1.563945000000000164e+03
6.099999999999999867e-02 4.826724999999999488e-01 2.234284999999999854e+01 7.927635000000000787e+01 1.564875000000000000e+03
6.199999999999999956e-02 4.832640000000000269e-01 2.393189999999999884e+01 8.262874999999999659e+01 1.565815000000000055e+03
6.300000000000000044e-02 4.838525000000000187e-01 2.548395000000000010e+01 8.596094999999999686e+01 1.566760000000000218e+03
6.400000000000000133e-02 4.844355000000000189e-01 2.699240000000000350e+01 8.926060000000001082e+01 1.567700000000000045e+03
6.500000000000000222e-02 4.850124999999999575e-01 2.845315000000000083e+01 9.251855000000000473e+01 1.568630000000000109e+03
6.600000000000000311e-02 4.855835000000000568e-01 2.986370000000000147e+01 9.573239999999999839e+01 1.569559999999999945e+03
6.700000000000000400e-02 4.861489999999999978e-01 3.122305000000000064e+01 9.890260000000000673e+01 1.570485000000000127e+03
6.800000000000000488e-02 4.867100000000000315e-01 3.253074999999999761e+01 1.020310000000000059e+02 1.571394999999999982e+03
6.900000000000000577e-02 4.872665000000000468e-01 3.378679999999999950e+01 1.051215500000000134e+02 1.572299999999999955e+03
7.000000000000000666e-02 4.878185000000000437e-01 3.499099999999999966e+01 1.081783999999999963e+02 1.573195000000000164e+03
7.100000000000000755e-02 4.883680000000000243e-01 3.614270000000000493e+01 1.112044999999999959e+02 1.574085000000000036e+03
7.200000000000000844e-02 4.889124999999999721e-01 3.724065000000000225e+01 1.141999999999999886e+02 1.574964999999999918e+03
7.300000000000000933e-02 4.894534999999999858e-01 3.828280000000000172e+01 1.171655000000000086e+02 1.575839999999999918e+03
7.399999999999999634e-02 4.899884999999999935e-01 3.926630000000000109e+01 1.200949999999999989e+02 1.576710000000000036e+03
7.499999999999999722e-02 4.905165000000000219e-01 4.018764999999999787e+01 1.229840000000000089e+02 1.577565000000000055e+03
7.599999999999999811e-02 4.910354999999999581e-01 4.104279999999999973e+01 1.258229999999999933e+02 1.578414999999999964e+03
7.699999999999999900e-02 4.915434999999999666e-01 4.182744999999999891e+01 1.286024999999999920e+02 1.579240000000000009e+03
7.799999999999999989e-02 4.920385000000000453e-01 4.253730000000000189e+01 1.313095000000000141e+02 1.580055000000000064e+03
7.900000000000000078e-02 4.925170000000000381e-01 4.316830000000000211e+01 1.339320000000000164e+02 1.580845000000000027e+03
8.000000000000000167e-02 4.929784999999999862e-01 4.371694999999999709e+01 1.364574999999999818e+02 1.581610000000000127e+03
8.100000000000000255e-02 4.934199999999999697e-01 4.418045000000000044e+01 1.388745000000000118e+02 1.582349999999999909e+03
8.200000000000000344e-02 4.938400000000000012e-01 4.455674999999999386e+01 1.411725000000000136e+02 1.583055000000000064e+03
8.300000000000000433e-02 4.942370000000000374e-01 4.484485000000000099e+01 1.433424999999999727e+02 1.583724999999999909e+03
8.400000000000000522e-02 4.946094999999999797e-01 4.504455000000000098e+01 1.453760000000000048e+02 1.584360000000000127e+03
8.500000000000000611e-02 4.949570000000000358e-01 4.515650000000000119e+01 1.472694999999999936e+02 1.584954999999999927e+03
8.600000000000000699e-02 4.952790000000000248e-01 4.518209999999999837e+01 1.490185000000000173e+02 1.585514999999999873e+03
8.700000000000000788e-02 4.955755000000000021e-01 4.512359999999999616e+01 1.506214999999999975e+02 1.586025000000000091e+03
8.800000000000000877e-02 4.958464999999999678e-01 4.498404999999999632e+01 1.520790000000000077e+02 1.586500000000000000e+03
8.899999999999999578e-02 4.960920000000000329e-01 4.476709999999999923e+01 1.533919999999999959e+02 1.586929999999999836e+03
8.999999999999999667e-02 4.963135000000000185e-01 4.447700000000000387e+01 1.545654999999999859e+02 1.587315000000000055e+03
9.099999999999999756e-02 4.965104999999999658e-01 4.411889999999999645e+01 1.556034999999999968e+02 1.587670000000000073e+03
9.199999999999999845e-02 4.966850000000000431e-01 4.369849999999999568e+01 1.565130000000000052e+02 1.587980000000000018e+03
9.299999999999999933e-02 4.968389999999999751e-01 4.322214999999999918e+01 1.573014999999999759e+02 1.588255000000000109e+03
9.400000000000000022e-02 4.969729999999999981e-01 4.269660000000000366e+01 1.579784999999999968e+02 1.588500000000000000e+03
9.500000000000000111e-02 4.970899999999999763e-01 4.212919999999999732e+01 1.585540000000000020e+02 1.588704999999999927e+03
9.600000000000000200e-02 4.971904999999999797e-01 4.152745000000000175e+01 1.590389999999999873e+02 1.588884999999999991e+03
9.700000000000000289e-02 4.972774999999999834e-01 4.089884999999999593e+01 1.594445000000000050e+02 1.589039999999999964e+03
9.800000000000000377e-02 4.973529999999999895e-01 4.025074999999999648e+01 1.597814999999999941e+02 1.589170000000000073e+03
9.900000000000000466e-02 4.974180000000000268e-01 3.959005000000000507e+01 1.600610000000000070e+02 1.589279999999999973e+03
1.000000000000000056e-01 4.974750000000000005e-01 3.892305000000000348e+01 1.602930000000000064e+02 1.589369999999999891e+03
1.010000000000000064e-01 4.975249999999999950e-01 3.825499999999999545e+01 1.604865000000000066e+02 1.589450000000000045e+03
1.020000000000000073e-01 4.975694999999999979e-01 3.759035000000000082e+01 1.606485000000000127e+02 1.589514999999999873e+03
1.030000000000000082e-01 4.976085000000000091e-01 3.693240000000000123e+01 1.607860000000000014e+02 1.589575000000000045e+03
1.040000000000000091e-01 4.976435000000000164e-01 3.628329999999999700e+01 1.609014999999999986e+02 1.589619999999999891e+03
1.050000000000000100e-01 4.976740000000000053e-01 3.564405000000000001e+01 1.609970000000000141e+02 1.589659999999999854e+03
1.059999999999999970e-01 4.976999999999999758e-01 3.501484999999999559e+01 1.610740000000000123e+02 1.589690000000000055e+03
1.069999999999999979e-01 4.977215000000000389e-01 3.439470000000000027e+01 1.611299999999999955e+02 1.589715000000000146e+03
1.079999999999999988e-01 4.977374999999999994e-01 3.378220000000000312e+01 1.611639999999999873e+02 1.589735000000000127e+03
1.089999999999999997e-01 4.977469999999999950e-01 3.317530000000000001e+01 1.611714999999999804e+02 1.589739999999999782e+03
1.100000000000000006e-01 4.977504999999999846e-01 3.257150000000000034e+01 1.611490000000000009e+02 1.589740000000000009e+03
1.110000000000000014e-01 4.977460000000000218e-01 3.196825000000000117e+01 1.610919999999999845e+02 1.589730000000000018e+03
1.120000000000000023e-01 4.977335000000000509e-01 3.136305000000000121e+01 1.609959999999999809e+02 1.589704999999999927e+03
1.130000000000000032e-01 4.977120000000000433e-01 3.075334999999999752e+01 1.608580000000000041e+02 1.589670000000000073e+03
1.140000000000000041e-01 4.976814999999999989e-01 3.013704999999999856e+01 1.606739999999999782e+02 1.589630000000000109e+03
1.150000000000000050e-01 4.976410000000000000e-01 2.951229999999999976e+01 1.604420000000000073e+02 1.589565000000000055e+03
1.160000000000000059e-01 4.975914999999999644e-01 2.887794999999999845e+01 1.601605000000000132e+02 1.589489999999999782e+03
1.170000000000000068e-01 4.975325000000000442e-01 2.823314999999999841e+01 1.598294999999999959e+02 1.589404999999999973e+03
1.180000000000000077e-01 4.974640000000000173e-01 2.757789999999999964e+01 1.594499999999999886e+02 1.589299999999999955e+03
1.190000000000000085e-01 4.973870000000000235e-01 2.691255000000000308e+01 1.590244999999999891e+02 1.589190000000000055e+03
1.200000000000000094e-01 4.973020000000000218e-01 2.623835000000000051e+01 1.585559999999999832e+02 1.589059999999999945e+03
1.209999999999999964e-01 4.972100000000000408e-01 2.555705000000000027e+01 1.580495000000000232e+02 1.588920000000000073e+03
1.219999999999999973e-01 4.971124999999999572e-01 2.487105000000000032e+01 1.575099999999999909e+02 1.588775000000000091e+03
1.229999999999999982e-01 4.970105000000000217e-01 2.418325000000000102e+01 1.569449999999999932e+02 1.588619999999999891e+03
1.239999999999999991e-01 4.969055000000000000e-01 2.349699999999999989e+01 1.563609999999999900e+02 1.588454999999999927e+03
1.250000000000000000e-01 4.967989999999999906e-01 2.281589999999999918e+01 1.557660000000000196e+02 1.588289999999999964e+03
1.260000000000000009e-01 4.966929999999999401e-01 2.214405000000000001e+01 1.551694999999999993e+02 1.588119999999999891e+03
1.270000000000000018e-01 4.965880000000000294e-01 2.148550000000000182e+01 1.545779999999999745e+02 1.587945000000000164e+03
1.280000000000000027e-01 4.964864999999999418e-01 2.084414999999999907e+01 1.540004999999999882e+02 1.587779999999999973e+03
1.290000000000000036e-01 4.963889999999999691e-01 2.022404999999999831e+01 1.534449999999999932e+02 1.587619999999999891e+03
1.300000000000000044e-01 4.962969999999999882e-01 1.962875000000000014e+01 1.529180000000000064e+02 1.587460000000000036e+03
1.310000000000000053e-01 4.962119999999999864e-01 1.906145000000000067e+01 1.524254999999999995e+02 1.587315000000000055e+03
1.320000000000000062e-01 4.961339999999999639e-01 1.852505000000000024e+01 1.519745000000000061e+02 1.587180000000000064e+03
1.330000000000000071e-01 4.960645000000000193e-01 1.802165000000000106e+01 1.515670000000000073e+02 1.587050000000000182e+03
1.340000000000000080e-01 4.960040000000000004e-01 1.755280000000000129e+01 1.512074999999999818e+02 1.586934999999999945e+03
1.350000000000000089e-01 4.959520000000000040e-01 1.711939999999999884e+01 1.508965000000000032e+02 1.586835000000000036e+03
1.360000000000000098e-01 4.959084999999999743e-01 1.672179999999999822e+01 1.506349999999999909e+02 1.586744999999999891e+03
1.370000000000000107e-01 4.958740000000000370e-01 1.635950000000000060e+01 1.504220000000000255e+02 1.586675000000000182e+03
1.380000000000000115e-01 4.958474999999999966e-01 1.603160000000000096e+01 1.502549999999999955e+02 1.586615000000000009e+03
1.390000000000000124e-01 4.958285000000000053e-01 1.573655000000000115e+01 1.501315000000000168e+02 1.586559999999999945e+03
1.400000000000000133e-01 4.958154999999999646e-01 1.547254999999999825e+01 1.500480000000000018e+02 1.586525000000000091e+03
1.410000000000000142e-01 4.958095000000000141e-01 1.523724999999999952e+01 1.499985000000000070e+02 1.586494999999999891e+03
1.420000000000000151e-01 4.958074999999999566e-01 1.502829999999999977e+01 1.499805000000000064e+02 1.586480000000000018e+03
1.430000000000000160e-01 4.958100000000000285e-01 1.484309999999999974e+01 1.499879999999999995e+02 1.586470000000000027e+03
1.440000000000000169e-01 4.958159999999999790e-01 1.467895000000000039e+01 1.500154999999999745e+02 1.586465000000000146e+03
1.450000000000000178e-01 4.958240000000000425e-01 1.453340000000000032e+01 1.500600000000000023e+02 1.586464999999999918e+03
1.459999999999999909e-01 4.958344999999999558e-01 1.440399999999999991e+01 1.501154999999999973e+02 1.586474999999999909e+03
1.469999999999999918e-01 4.958454999999999946e-01 1.428835000000000122e+01 1.501795000000000186e+02 1.586485000000000127e+03
1.479999999999999927e-01 4.958569999999999922e-01 1.418449999999999989e+01 1.502484999999999786e+02 1.586500000000000000e+03
1.489999999999999936e-01 4.958695000000000186e-01 1.409039999999999893e+01 1.503190000000000168e+02 1.586514999999999873e+03
1.499999999999999944e-01 4.958814999999999751e-01 1.400459999999999994e+01 1.503899999999999864e+02 1.586525000000000091e+03
1.509999999999999953e-01 4.958934999999999871e-01 1.392549999999999955e+01 1.504590000000000032e+02 1.586545000000000073e+03
1.519999999999999962e-01 4.959045000000000258e-01 1.385205000000000020e+01 1.505260000000000105e+02 1.586559999999999945e+03
1.529999999999999971e-01 4.959149999999999947e-01 1.378314999999999912e+01 1.505894999999999868e+02 1.586575000000000045e+03
1.539999999999999980e-01 4.959255000000000191e-01 1.371804999999999986e+01 1.506494999999999891e+02 1.586590000000000146e+03
1.549999999999999989e-01 4.959350000000000147e-01 1.365615000000000023e+01 1.507065000000000055e+02 1.586610000000000127e+03
1.559999999999999998e-01 4.959445000000000103e-01 1.359704999999999941e+01 1.507605000000000075e+02 1.586619999999999891e+03
1.570000000000000007e-01 4.959534999999999916e-01 1.354039999999999999e+01 1.508129999999999882e+02 1.586634999999999991e+03
1.580000000000000016e-01 4.959624999999999728e-01 1.348620000000000019e+01 1.508634999999999877e+02 1.586644999999999982e+03
1.590000000000000024e-01 4.959715000000000096e-01 1.343435000000000024e+01 1.509134999999999991e+02 1.586664999999999964e+03
