# t [s], A [cm^2], U [cm/s], P [cPa], c [cm/s]
1.000000000000000021e-03 1.863664999999999905e-01 3.987677000000000027e-01 9.465664999999999907e+01 2.020035000000000082e+03
2.000000000000000042e-03 1.863144999999999940e-01 2.006304500000000157e+00 9.117895000000000039e+01 2.019634999999999991e+03
3.000000000000000062e-03 1.861740000000000061e-01 3.945422999999999902e+00 8.652965000000000373e+01 2.018585000000000036e+03
4.000000000000000083e-03 1.859830000000000094e-01 6.107563000000000741e+00 8.165864999999999441e+01 2.017179999999999836e+03
5.000000000000000104e-03 1.857794999999999863e-01 8.411970000000000169e+00 7.744454999999999245e+01 2.015690000000000055e+03
6.000000000000000125e-03 1.855839999999999990e-01 1.066037500000000016e+01 7.406244999999999834e+01 2.014269999999999982e+03
7.000000000000000146e-03 1.854005000000000236e-01 1.264385500000000029e+01 7.117895000000000039e+01 2.012969999999999800e+03
8.000000000000000167e-03 1.852320000000000078e-01 1.430879000000000012e+01 6.858220000000000027e+01 2.011795000000000073e+03
9.000000000000001055e-03 1.850840000000000263e-01 1.570425000000000004e+01 6.634969999999999857e+01 2.010775000000000091e+03
1.000000000000000194e-02 1.849585000000000257e-01 1.686039999999999850e+01 6.453710000000000946e+01 2.009920000000000073e+03
1.099999999999999936e-02 1.848555000000000059e-01 1.778875000000000028e+01 6.309590000000000032e+01 2.009224999999999909e+03
1.200000000000000025e-02 1.847725000000000062e-01 1.850244999999999962e+01 6.195439999999999259e+01 2.008670000000000073e+03
1.300000000000000114e-02 1.847044999999999937e-01 1.900840000000000174e+01 6.101720000000000255e+01 2.008224999999999909e+03
1.400000000000000203e-02 1.846479999999999788e-01 1.932629999999999981e+01 6.019329999999999359e+01 2.007865000000000009e+03
1.499999999999999944e-02 1.846025000000000027e-01 1.953309999999999746e+01 5.952590000000000003e+01 2.007575000000000045e+03
1.600000000000000033e-02 1.845720000000000138e-01 1.976834999999999809e+01 5.927015000000000100e+01 2.007389999999999873e+03
1.700000000000000122e-02 1.845674999999999955e-01 2.017600000000000193e+01 5.978310000000000457e+01 2.007375000000000000e+03
1.800000000000000211e-02 1.845970000000000111e-01 2.082500000000000284e+01 6.128855000000000075e+01 2.007575000000000045e+03
1.900000000000000300e-02 1.846605000000000052e-01 2.166685000000000016e+01 6.369344999999999857e+01 2.008014999999999873e+03
2.000000000000000042e-02 1.847509999999999986e-01 2.255230000000000246e+01 6.657150000000000034e+01 2.008630000000000109e+03
2.100000000000000130e-02 1.848505000000000009e-01 2.329194999999999993e+01 6.930939999999999657e+01 2.009320000000000164e+03
2.200000000000000219e-02 1.849410000000000220e-01 2.372690000000000055e+01 7.132755000000000223e+01 2.009960000000000036e+03
2.299999999999999961e-02 1.850065000000000182e-01 2.378004999999999924e+01 7.227199999999999136e+01 2.010434999999999945e+03
2.400000000000000050e-02 1.850384999999999946e-01 2.347145000000000081e+01 7.210625000000000284e+01 2.010680000000000064e+03
2.500000000000000139e-02 1.850384999999999946e-01 2.289710000000000178e+01 7.107980000000000587e+01 2.010704999999999927e+03
2.600000000000000228e-02 1.850140000000000118e-01 2.218475000000000108e+01 6.960124999999999318e+01 2.010550000000000182e+03
2.700000000000000316e-02 1.849770000000000025e-01 2.144644999999999868e+01 6.807710000000000150e+01 2.010309999999999945e+03
2.800000000000000058e-02 1.849365000000000037e-01 2.074674999999999869e+01 6.678114999999999668e+01 2.010034999999999854e+03
2.900000000000000147e-02 1.848990000000000078e-01 2.009394999999999953e+01 6.579574999999999818e+01 2.009780000000000200e+03
3.000000000000000236e-02 1.848664999999999892e-01 1.945354999999999990e+01 6.503215000000000146e+01 2.009555000000000064e+03
3.099999999999999978e-02 1.848354999999999859e-01 1.877490000000000236e+01 6.430665000000000475e+01 2.009340000000000146e+03
3.200000000000000067e-02 1.848020000000000218e-01 1.801955000000000240e+01 6.343849999999999767e+01 2.009110000000000127e+03
3.300000000000000155e-02 1.847619999999999818e-01 1.718330000000000268e+01 6.233420000000000272e+01 2.008840000000000146e+03
3.400000000000000244e-02 1.847154999999999769e-01 1.630475000000000207e+01 6.103419999999999845e+01 2.008525000000000091e+03
3.500000000000000333e-02 1.846650000000000236e-01 1.545915000000000106e+01 5.971070000000000277e+01 2.008180000000000064e+03
3.600000000000000422e-02 1.846170000000000033e-01 1.473949999999999960e+01 5.861915000000000475e+01 2.007855000000000018e+03
3.700000000000000511e-02 1.845815000000000095e-01 1.423120000000000118e+01 5.802240000000000464e+01 2.007599999999999909e+03
3.799999999999999906e-02 1.845645000000000202e-01 1.398879999999999946e+01 5.811039999999999850e+01 2.007470000000000027e+03
3.899999999999999994e-02 1.845714999999999995e-01 1.402019999999999911e+01 5.894219999999999970e+01 2.007509999999999991e+03
4.000000000000000083e-02 1.846030000000000171e-01 1.428405000000000058e+01 6.042395000000000493e+01 2.007704999999999927e+03
4.100000000000000172e-02 1.846550000000000136e-01 1.469730000000000025e+01 6.232580000000000098e+01 2.008054999999999836e+03
4.200000000000000261e-02 1.847194999999999809e-01 1.515184999999999960e+01 6.432980000000000587e+01 2.008485000000000127e+03
4.300000000000000350e-02 1.847860000000000058e-01 1.553379999999999939e+01 6.609205000000000041e+01 2.008934999999999945e+03
4.400000000000000439e-02 1.848430000000000073e-01 1.574145000000000039e+01 6.730360000000000298e+01 2.009329999999999927e+03
4.499999999999999833e-02 1.848810000000000175e-01 1.569844999999999935e+01 6.773699999999999477e+01 2.009590000000000146e+03
4.599999999999999922e-02 1.848920000000000008e-01 1.536035000000000039e+01 6.727115000000000578e+01 2.009680000000000064e+03
4.700000000000000011e-02 1.848724999999999952e-01 1.471550000000000047e+01 6.589400000000000546e+01 2.009554999999999836e+03
4.800000000000000100e-02 1.848204999999999987e-01 1.378024999999999878e+01 6.368594999999999828e+01 2.009214999999999918e+03
4.900000000000000189e-02 1.847389999999999866e-01 1.259198999999999913e+01 6.079304999999999382e+01 2.008664999999999964e+03
5.000000000000000278e-02 1.846325000000000049e-01 1.120114000000000054e+01 5.739580000000000126e+01 2.007940000000000055e+03
5.100000000000000366e-02 1.845060000000000033e-01 9.664339999999999264e+00 5.368309999999999604e+01 2.007074999999999818e+03
5.200000000000000455e-02 1.843660000000000021e-01 8.039854999999999308e+00 4.983339999999999748e+01 2.006125000000000000e+03
5.300000000000000544e-02 1.842185000000000072e-01 6.385035000000000238e+00 4.600525000000000375e+01 2.005115000000000009e+03
5.399999999999999939e-02 1.840700000000000114e-01 4.755174999999999486e+00 4.233630000000000138e+01 2.004090000000000146e+03
5.500000000000000028e-02 1.839244999999999908e-01 3.204046500000000020e+00 3.894659999999999656e+01 2.003094999999999800e+03
5.600000000000000117e-02 1.837884999999999935e-01 1.783974999999999866e+00 3.594415000000000049e+01 2.002155000000000200e+03
5.700000000000000205e-02 1.836659999999999959e-01 5.457799999999999319e-01 3.342924999999999613e+01 2.001304999999999836e+03
5.800000000000000294e-02 1.835614999999999886e-01 -4.622000000000000552e-01 3.149605000000000388e+01 2.000575000000000045e+03
5.900000000000000383e-02 1.834784999999999888e-01 -1.195871999999999824e+00 3.023065000000000069e+01 1.999990000000000009e+03
6.000000000000000472e-02 1.834210000000000007e-01 -1.617726500000000067e+00 2.970685000000000286e+01 1.999585000000000036e+03
6.099999999999999867e-02 1.833925000000000138e-01 -1.699410000000000087e+00 2.997950000000000159e+01 1.999375000000000000e+03
6.199999999999999956e-02 1.833950000000000025e-01 -1.423953500000000094e+00 3.107864999999999966e+01 1.999365000000000009e+03
6.300000000000000044e-02 1.834294999999999953e-01 -7.873280000000000278e-01 3.300450000000000017e+01 1.999585000000000036e+03
6.400000000000000133e-02 1.834970000000000212e-01 2.009699999999999820e-01 3.572534999999999883e+01 2.000025000000000091e+03
6.500000000000000222e-02 1.835954999999999948e-01 1.518394999999999939e+00 3.917849999999999966e+01 2.000679999999999836e+03
6.600000000000000311e-02 1.837234999999999840e-01 3.130802500000000155e+00 4.327374999999999972e+01 2.001535000000000082e+03
6.700000000000000400e-02 1.838779999999999859e-01 4.994609999999999772e+00 4.789959999999999951e+01 2.002579999999999927e+03
6.800000000000000488e-02 1.840535000000000088e-01 7.059510000000000396e+00 5.293049999999999500e+01 2.003775000000000091e+03
6.900000000000000577e-02 1.842475000000000085e-01 9.271205000000000140e+00 5.823514999999999731e+01 2.005099999999999909e+03
7.000000000000000666e-02 1.844545000000000212e-01 1.157439500000000088e+01 6.368359999999999843e+01 2.006514999999999873e+03
7.100000000000000755e-02 1.846689999999999998e-01 1.391536499999999954e+01 6.915439999999999543e+01 2.007990000000000009e+03
7.200000000000000844e-02 1.848870000000000235e-01 1.624439999999999884e+01 7.454040000000000532e+01 2.009494999999999891e+03
7.300000000000000933e-02 1.851045000000000051e-01 1.851774999999999949e+01 7.975329999999999586e+01 2.011000000000000000e+03
7.399999999999999634e-02 1.853174999999999961e-01 2.069950000000000045e+01 8.472669999999999391e+01 2.012480000000000018e+03
7.499999999999999722e-02 1.855229999999999935e-01 2.276259999999999906e+01 8.941810000000000969e+01 2.013909999999999854e+03
7.599999999999999811e-02 1.857199999999999962e-01 2.468934999999999746e+01 9.380899999999999750e+01 2.015289999999999964e+03
7.699999999999999900e-02 1.859069999999999889e-01 2.647169999999999845e+01 9.790475000000000705e+01 2.016605000000000018e+03
7.799999999999999989e-02 1.860829999999999984e-01 2.811050000000000182e+01 1.017300500000000056e+02 2.017844999999999800e+03
7.900000000000000078e-02 1.862509999999999999e-01 2.961410000000000053e+01 1.053256999999999977e+02 2.019025000000000091e+03
8.000000000000000167e-02 1.864095000000000057e-01 3.099699999999999989e+01 1.087450000000000045e+02 2.020150000000000091e+03
8.100000000000000255e-02 1.865620000000000056e-01 3.227770000000000294e+01 1.120455000000000041e+02 2.021230000000000018e+03
8.200000000000000344e-02 1.867099999999999871e-01 3.347670000000000101e+01 1.152854999999999990e+02 2.022275000000000091e+03
8.300000000000000433e-02 1.868555000000000077e-01 3.461444999999999794e+01 1.185169999999999959e+02 2.023305000000000064e+03
8.400000000000000522e-02 1.869999999999999996e-01 3.570955000000000013e+01 1.217835000000000036e+02 2.024324999999999818e+03
8.500000000000000611e-02 1.871450000000000058e-01 3.677700000000000102e+01 1.251154999999999973e+02 2.025355000000000018e+03
8.600000000000000699e-02 1.872920000000000140e-01 3.782760000000000389e+01 1.285279999999999916e+02 2.026394999999999982e+03
8.700000000000000788e-02 1.874414999999999831e-01 3.886670000000000158e+01 1.320204999999999984e+02 2.027450000000000045e+03
8.800000000000000877e-02 1.875930000000000097e-01 3.989455000000000240e+01 1.355779999999999745e+02 2.028525000000000091e+03
8.899999999999999578e-02 1.877465000000000106e-01 4.090619999999999834e+01 1.391730000000000018e+02 2.029610000000000127e+03
8.999999999999999667e-02 1.879009999999999847e-01 4.189204999999999757e+01 1.427649999999999864e+02 2.030700000000000045e+03
9.099999999999999756e-02 1.880549999999999999e-01 4.283874999999999744e+01 1.463079999999999927e+02 2.031795000000000073e+03
9.199999999999999845e-02 1.882064999999999988e-01 4.373044999999999760e+01 1.497490000000000236e+02 2.032869999999999891e+03
9.299999999999999933e-02 1.883539999999999937e-01 4.454940000000000566e+01 1.530360000000000014e+02 2.033914999999999964e+03
9.400000000000000022e-02 1.884949999999999959e-01 4.527755000000000507e+01 1.561154999999999973e+02 2.034914999999999964e+03
9.500000000000000111e-02 1.886280000000000179e-01 4.589745000000000630e+01 1.589404999999999859e+02 2.035864999999999782e+03
9.600000000000000200e-02 1.887515000000000165e-01 4.639315000000000566e+01 1.614685000000000059e+02 2.036744999999999891e+03
9.700000000000000289e-02 1.888624999999999887e-01 4.675135000000000218e+01 1.636664999999999850e+02 2.037539999999999964e+03
9.800000000000000377e-02 1.889609999999999901e-01 4.696189999999999998e+01 1.655109999999999957e+02 2.038250000000000000e+03
9.900000000000000466e-02 1.890454999999999774e-01 4.701829999999999643e+01 1.669869999999999948e+02 2.038860000000000127e+03
1.000000000000000056e-01 1.891154999999999919e-01 4.691840000000000543e+01 1.680925000000000011e+02 2.039365000000000009e+03
1.010000000000000064e-01 1.891705000000000192e-01 4.666410000000000480e+01 1.688335000000000150e+02 2.039769999999999982e+03
1.020000000000000073e-01 1.892115000000000047e-01 4.626154999999999973e+01 1.692284999999999968e+02 2.040070000000000164e+03
1.030000000000000082e-01 1.892380000000000173e-01 4.572079999999999700e+01 1.693025000000000091e+02 2.040269999999999982e+03
1.040000000000000091e-01 1.892510000000000026e-01 4.505540000000000589e+01 1.690900000000000034e+02 2.040380000000000109e+03
1.050000000000000100e-01 1.892524999999999902e-01 4.428190000000000026e+01 1.686310000000000002e+02 2.040394999999999982e+03
1.059999999999999970e-01 1.892435000000000089e-01 4.341870000000000118e+01 1.679675000000000011e+02 2.040340000000000146e+03
1.069999999999999979e-01 1.892250000000000043e-01 4.248595000000000255e+01 1.671465000000000032e+02 2.040224999999999909e+03
1.079999999999999988e-01 1.892004999999999937e-01 4.150399999999999778e+01 1.662130000000000223e+02 2.040050000000000182e+03
1.089999999999999997e-01 1.891694999999999904e-01 4.049299999999999500e+01 1.652119999999999891e+02 2.039839999999999918e+03
1.100000000000000006e-01 1.891344999999999832e-01 3.947214999999999918e+01 1.641820000000000164e+02 2.039594999999999800e+03
1.110000000000000014e-01 1.890979999999999883e-01 3.845870000000000033e+01 1.631605000000000132e+02 2.039344999999999800e+03
1.120000000000000023e-01 1.890610000000000068e-01 3.746765000000000612e+01 1.621759999999999877e+02 2.039075000000000045e+03
1.130000000000000032e-01 1.890235000000000110e-01 3.651115000000000066e+01 1.612500000000000000e+02 2.038815000000000055e+03
1.140000000000000041e-01 1.889874999999999750e-01 3.559830000000000183e+01 1.603990000000000009e+02 2.038559999999999945e+03
1.150000000000000050e-01 1.889545000000000252e-01 3.473479999999999990e+01 1.596295000000000073e+02 2.038319999999999936e+03
1.160000000000000059e-01 1.889230000000000076e-01 3.392300000000000182e+01 1.589414999999999907e+02 2.038094999999999800e+03
1.170000000000000068e-01 1.888940000000000063e-01 3.316214999999999691e+01 1.583279999999999745e+02 2.037884999999999991e+03
1.180000000000000077e-01 1.888679999999999803e-01 3.244850000000000279e+01 1.577760000000000105e+02 2.037694999999999936e+03
1.190000000000000085e-01 1.888434999999999975e-01 3.177580000000000027e+01 1.572674999999999841e+02 2.037519999999999982e+03
1.200000000000000094e-01 1.888205000000000022e-01 3.113560000000000016e+01 1.567794999999999845e+02 2.037349999999999909e+03
1.209999999999999964e-01 1.887975000000000070e-01 3.051805000000000234e+01 1.562869999999999777e+02 2.037190000000000055e+03
1.219999999999999973e-01 1.887754999999999850e-01 2.991219999999999857e+01 1.557649999999999864e+02 2.037025000000000091e+03
1.229999999999999982e-01 1.887515000000000165e-01 2.930695000000000050e+01 1.551875000000000000e+02 2.036855000000000018e+03
1.239999999999999991e-01 1.887254999999999905e-01 2.869160000000000110e+01 1.545294999999999845e+02 2.036664999999999964e+03
1.250000000000000000e-01 1.886964999999999892e-01 2.805610000000000070e+01 1.537719999999999914e+02 2.036460000000000036e+03
1.260000000000000009e-01 1.886634999999999840e-01 2.739220000000000255e+01 1.528969999999999914e+02 2.036230000000000018e+03
1.270000000000000018e-01 1.886265000000000025e-01 2.669335000000000235e+01 1.518940000000000055e+02 2.035960000000000036e+03
1.280000000000000027e-01 1.885840000000000016e-01 2.595539999999999736e+01 1.507570000000000050e+02 2.035664999999999964e+03
1.290000000000000036e-01 1.885370000000000101e-01 2.517680000000000007e+01 1.494865000000000066e+02 2.035329999999999927e+03
1.300000000000000044e-01 1.884844999999999993e-01 2.435859999999999914e+01 1.480910000000000082e+02 2.034960000000000036e+03
1.310000000000000053e-01 1.884274999999999978e-01 2.350455000000000183e+01 1.465824999999999818e+02 2.034559999999999945e+03
1.320000000000000062e-01 1.883660000000000057e-01 2.262085000000000079e+01 1.449809999999999945e+02 2.034130000000000109e+03
1.330000000000000071e-01 1.883005000000000095e-01 2.171589999999999776e+01 1.433100000000000023e+02 2.033664999999999964e+03
1.340000000000000080e-01 1.882324999999999970e-01 2.079999999999999716e+01 1.415970000000000084e+02 2.033184999999999945e+03
1.350000000000000089e-01 1.881619999999999959e-01 1.988479999999999848e+01 1.398729999999999905e+02 2.032690000000000055e+03
1.360000000000000098e-01 1.880914999999999948e-01 1.898264999999999958e+01 1.381674999999999898e+02 2.032190000000000055e+03
1.370000000000000107e-01 1.880209999999999937e-01 1.810614999999999952e+01 1.365124999999999886e+02 2.031700000000000045e+03
1.380000000000000115e-01 1.879524999999999946e-01 1.726749999999999829e+01 1.349360000000000070e+02 2.031210000000000036e+03
1.390000000000000124e-01 1.878865000000000118e-01 1.647809999999999775e+01 1.334655000000000200e+02 2.030744999999999891e+03
1.400000000000000133e-01 1.878245000000000053e-01 1.574789999999999957e+01 1.321225000000000023e+02 2.030304999999999836e+03
1.410000000000000142e-01 1.877670000000000172e-01 1.508510000000000062e+01 1.309250000000000114e+02 2.029894999999999982e+03
1.420000000000000151e-01 1.877150000000000207e-01 1.449575000000000102e+01 1.298839999999999861e+02 2.029525000000000091e+03
1.430000000000000160e-01 1.876690000000000025e-01 1.398365000000000080e+01 1.290070000000000050e+02 2.029195000000000164e+03
1.440000000000000169e-01 1.876295000000000046e-01 1.355020000000000024e+01 1.282944999999999993e+02 2.028910000000000082e+03
1.450000000000000178e-01 1.875959999999999850e-01 1.319459999999999944e+01 1.277415000000000020e+02 2.028670000000000073e+03
1.459999999999999909e-01 1.875684999999999991e-01 1.291380000000000017e+01 1.273389999999999986e+02 2.028470000000000027e+03
1.469999999999999918e-01 1.875479999999999925e-01 1.270284999999999975e+01 1.270724999999999909e+02 2.028315000000000055e+03
1.479999999999999927e-01 1.875324999999999909e-01 1.255515000000000114e+01 1.269269999999999925e+02 2.028200000000000045e+03
1.489999999999999936e-01 1.875215000000000076e-01 1.246284999999999954e+01 1.268829999999999956e+02 2.028125000000000000e+03
1.499999999999999944e-01 1.875149999999999872e-01 1.241720000000000113e+01 1.269184999999999945e+02 2.028069999999999936e+03
1.509999999999999953e-01 1.875124999999999986e-01 1.240869999999999962e+01 1.270134999999999934e+02 2.028045000000000073e+03
1.519999999999999962e-01 1.875120000000000120e-01 1.242794999999999916e+01 1.271475000000000080e+02 2.028039999999999964e+03
1.529999999999999971e-01 1.875140000000000140e-01 1.246565000000000012e+01 1.273010000000000019e+02 2.028050000000000182e+03
1.539999999999999980e-01 1.875175000000000036e-01 1.251304999999999978e+01 1.274550000000000125e+02 2.028065000000000055e+03
1.549999999999999989e-01 1.875209999999999932e-01 1.256204999999999927e+01 1.275949999999999989e+02 2.028095000000000027e+03
1.559999999999999998e-01 1.875244999999999829e-01 1.260575000000000045e+01 1.277069999999999936e+02 2.028115000000000009e+03
1.570000000000000007e-01 1.875275000000000136e-01 1.263814999999999955e+01 1.277820000000000107e+02 2.028134999999999991e+03
1.580000000000000016e-01 1.875290000000000012e-01 1.265474999999999994e+01 1.278125000000000000e+02 2.028150000000000091e+03
1.590000000000000024e-01 1.875290000000000012e-01 1.265235000000000021e+01 1.277944999999999993e+02 2.028150000000000091e+03
