# t [s], A [cm^2], U [cm/s], P [cPa], c [cm/s]
1.000000000000000021e-03 1.707150000000000056e-01 1.771424999999999805e-01 9.610214999999999463e+01 2.285125000000000000e+03
2.000000000000000042e-03 1.706745000000000068e-01 1.487824499999999883e+00 9.303759999999999764e+01 2.284694999999999709e+03
3.000000000000000062e-03 1.705645000000000078e-01 3.190761999999999876e+00 8.852909999999999968e+01 2.283595000000000255e+03
4.000000000000000083e-03 1.704149999999999832e-01 5.151663199999999776e+00 8.342830000000000723e+01 2.282125000000000000e+03
5.000000000000000104e-03 1.702565000000000051e-01 7.295270000000000366e+00 7.873109999999999786e+01 2.280574999999999818e+03
6.000000000000000125e-03 1.701054999999999928e-01 9.436415000000000219e+00 7.483910000000000196e+01 2.279119999999999891e+03
7.000000000000000146e-03 1.699654999999999916e-01 1.132472000000000101e+01 7.149630000000000507e+01 2.277805000000000291e+03
8.000000000000000167e-03 1.698385000000000034e-01 1.287002500000000005e+01 6.847605000000000075e+01 2.276630000000000109e+03
9.000000000000001055e-03 1.697285000000000044e-01 1.411834999999999951e+01 6.588559999999999661e+01 2.275635000000000218e+03
1.000000000000000194e-02 1.696384999999999976e-01 1.510715000000000074e+01 6.381774999999999665e+01 2.274824999999999818e+03
1.099999999999999936e-02 1.695674999999999821e-01 1.586129999999999995e+01 6.225690000000000168e+01 2.274199999999999818e+03
1.200000000000000025e-02 1.695145000000000124e-01 1.639840000000000231e+01 6.113195000000000334e+01 2.273739999999999782e+03
1.300000000000000114e-02 1.694745000000000001e-01 1.671215000000000117e+01 6.027859999999999729e+01 2.273394999999999982e+03
1.400000000000000203e-02 1.694414999999999949e-01 1.681869999999999976e+01 5.953255000000000052e+01 2.273130000000000109e+03
1.499999999999999944e-02 1.694164999999999976e-01 1.682704999999999984e+01 5.897014999999999674e+01 2.272929999999999836e+03
1.600000000000000033e-02 1.694084999999999896e-01 1.692614999999999981e+01 5.898400000000000176e+01 2.272864999999999782e+03
1.700000000000000122e-02 1.694265000000000077e-01 1.728240000000000265e+01 6.004439999999999600e+01 2.273034999999999854e+03
1.800000000000000211e-02 1.694769999999999888e-01 1.793495000000000061e+01 6.234059999999999491e+01 2.273489999999999782e+03
1.900000000000000300e-02 1.695550000000000113e-01 1.876745000000000019e+01 6.558265000000000100e+01 2.274189999999999600e+03
2.000000000000000042e-02 1.696460000000000190e-01 1.956524999999999892e+01 6.908660000000000423e+01 2.275024999999999636e+03
2.100000000000000130e-02 1.697325000000000084e-01 2.011475000000000080e+01 7.206094999999999118e+01 2.275835000000000036e+03
2.200000000000000219e-02 1.697984999999999911e-01 2.028889999999999816e+01 7.392175000000000296e+01 2.276469999999999800e+03
2.299999999999999961e-02 1.698354999999999726e-01 2.008474999999999966e+01 7.448724999999998886e+01 2.276845000000000255e+03
2.400000000000000050e-02 1.698445000000000094e-01 1.960410000000000252e+01 7.398609999999999332e+01 2.276960000000000036e+03
2.500000000000000139e-02 1.698339999999999850e-01 1.899654999999999916e+01 7.290314999999999657e+01 2.276885000000000218e+03
2.600000000000000228e-02 1.698155000000000081e-01 1.839280000000000115e+01 7.175145000000000550e+01 2.276715000000000146e+03
2.700000000000000316e-02 1.697960000000000025e-01 1.785715000000000074e+01 7.087135000000000673e+01 2.276545000000000073e+03
2.800000000000000058e-02 1.697814999999999741e-01 1.737415000000000020e+01 7.033064999999999145e+01 2.276404999999999745e+03
2.900000000000000147e-02 1.697695000000000176e-01 1.686829999999999785e+01 6.994585000000000719e+01 2.276289999999999964e+03
3.000000000000000236e-02 1.697545000000000026e-01 1.624569999999999936e+01 6.939859999999998763e+01 2.276154999999999745e+03
3.099999999999999978e-02 1.697294999999999776e-01 1.544064999999999976e+01 6.839619999999999322e+01 2.275930000000000291e+03
3.200000000000000067e-02 1.696905000000000219e-01 1.445185000000000031e+01 6.681624999999999659e+01 2.275590000000000146e+03
3.300000000000000155e-02 1.696394999999999986e-01 1.335369999999999990e+01 6.478409999999999513e+01 2.275130000000000109e+03
3.400000000000000244e-02 1.695824999999999971e-01 1.228013999999999939e+01 6.265485000000000326e+01 2.274614999999999782e+03
3.500000000000000333e-02 1.695305000000000006e-01 1.138468500000000105e+01 6.090559999999999974e+01 2.274130000000000109e+03
3.600000000000000422e-02 1.694950000000000068e-01 1.079420000000000002e+01 5.998210000000000264e+01 2.273789999999999964e+03
3.700000000000000511e-02 1.694839999999999958e-01 1.057228999999999886e+01 6.015755000000000052e+01 2.273664999999999964e+03
3.799999999999999906e-02 1.695025000000000004e-01 1.070380000000000109e+01 6.145199999999999818e+01 2.273800000000000182e+03
3.899999999999999994e-02 1.695455000000000156e-01 1.110265000000000057e+01 6.363195000000000334e+01 2.274175000000000182e+03
4.000000000000000083e-02 1.696070000000000078e-01 1.163630000000000031e+01 6.627830000000000155e+01 2.274720000000000255e+03
4.100000000000000172e-02 1.696745000000000059e-01 1.215830000000000055e+01 6.889385000000000048e+01 2.275335000000000036e+03
4.200000000000000261e-02 1.697369999999999990e-01 1.253784999999999883e+01 7.101454999999999984e+01 2.275905000000000200e+03
4.300000000000000350e-02 1.697830000000000172e-01 1.268130000000000024e+01 7.229660000000001219e+01 2.276345000000000255e+03
4.400000000000000439e-02 1.698064999999999991e-01 1.254090000000000060e+01 7.256319999999999482e+01 2.276579999999999927e+03
4.499999999999999833e-02 1.698034999999999961e-01 1.211284999999999989e+01 7.180545000000000755e+01 2.276569999999999709e+03
4.599999999999999922e-02 1.697759999999999825e-01 1.142632000000000048e+01 7.014809999999999945e+01 2.276329999999999927e+03
4.700000000000000011e-02 1.697250000000000147e-01 1.052838999999999992e+01 6.779415000000000191e+01 2.275885000000000218e+03
4.800000000000000100e-02 1.696579999999999755e-01 9.470645000000001090e+00 6.496685000000000798e+01 2.275274999999999636e+03
4.900000000000000189e-02 1.695780000000000065e-01 8.299604999999999677e+00 6.186625000000000085e+01 2.274550000000000182e+03
5.000000000000000278e-02 1.694900000000000018e-01 7.053189999999999849e+00 5.864525000000000432e+01 2.273744999999999891e+03
5.100000000000000366e-02 1.693985000000000074e-01 5.761815000000000353e+00 5.540859999999999985e+01 2.272904999999999745e+03
5.200000000000000455e-02 1.693049999999999833e-01 4.452910000000000146e+00 5.222675000000000267e+01 2.272045000000000073e+03
5.300000000000000544e-02 1.692130000000000023e-01 3.156114000000000086e+00 4.915765000000000384e+01 2.271194999999999709e+03
5.399999999999999939e-02 1.691239999999999966e-01 1.907364499999999907e+00 4.626675000000000182e+01 2.270369999999999891e+03
5.500000000000000028e-02 1.690400000000000236e-01 7.505000000000000560e-01 4.364074999999999704e+01 2.269595000000000255e+03
5.600000000000000117e-02 1.689649999999999763e-01 -2.639049999999999452e-01 4.139029999999999632e+01 2.268894999999999982e+03
5.700000000000000205e-02 1.689019999999999966e-01 -1.082117999999999913e+00 3.964359999999999928e+01 2.268305000000000291e+03
5.800000000000000294e-02 1.688549999999999773e-01 -1.652391999999999861e+00 3.853204999999999814e+01 2.267854999999999563e+03
5.900000000000000383e-02 1.688279999999999781e-01 -1.930369999999999919e+00 3.817350000000000421e+01 2.267585000000000036e+03
6.000000000000000472e-02 1.688224999999999865e-01 -1.883760000000000101e+00 3.865579999999999927e+01 2.267510000000000218e+03
6.099999999999999867e-02 1.688419999999999921e-01 -1.495507499999999990e+00 4.002540000000000475e+01 2.267664999999999964e+03
6.199999999999999956e-02 1.688864999999999950e-01 -7.651114999999999444e-01 4.228130000000000166e+01 2.268050000000000182e+03
6.300000000000000044e-02 1.689565000000000095e-01 2.917350000000000776e-01 4.537550000000000239e+01 2.268659999999999854e+03
6.400000000000000133e-02 1.690495000000000192e-01 1.644945000000000324e+00 4.921859999999999502e+01 2.269494999999999891e+03
6.500000000000000222e-02 1.691630000000000078e-01 3.252824500000000008e+00 5.368890000000000384e+01 2.270520000000000437e+03
6.600000000000000311e-02 1.692945000000000144e-01 5.065455000000000041e+00 5.864350000000000307e+01 2.271710000000000036e+03
6.700000000000000400e-02 1.694390000000000063e-01 7.028410000000000046e+00 6.393050000000000210e+01 2.273024999999999636e+03
6.800000000000000488e-02 1.695924999999999794e-01 9.086399999999999366e+00 6.940059999999999718e+01 2.274440000000000055e+03
6.900000000000000577e-02 1.697514999999999996e-01 1.118702500000000022e+01 7.491800000000000637e+01 2.275904999999999745e+03
7.000000000000000666e-02 1.699120000000000075e-01 1.328385000000000105e+01 8.036910000000000309e+01 2.277394999999999982e+03
7.100000000000000755e-02 1.700714999999999866e-01 1.533859999999999957e+01 8.566910000000000025e+01 2.278869999999999891e+03
7.200000000000000844e-02 1.702275000000000038e-01 1.732280000000000086e+01 9.076525000000000887e+01 2.280324999999999818e+03
7.300000000000000933e-02 1.703784999999999883e-01 1.921795000000000186e+01 9.563569999999999993e+01 2.281739999999999782e+03
7.399999999999999634e-02 1.705240000000000089e-01 2.101469999999999771e+01 1.002866999999999962e+02 2.283105000000000018e+03
7.499999999999999722e-02 1.706644999999999968e-01 2.271130000000000138e+01 1.047442499999999939e+02 2.284425000000000182e+03
7.599999999999999811e-02 1.708004999999999940e-01 2.431119999999999948e+01 1.090464999999999947e+02 2.285710000000000036e+03
7.699999999999999900e-02 1.709330000000000016e-01 2.582059999999999889e+01 1.132360000000000042e+02 2.286954999999999927e+03
7.799999999999999989e-02 1.710625000000000062e-01 2.724685000000000201e+01 1.173495000000000061e+02 2.288180000000000291e+03
7.900000000000000078e-02 1.711900000000000088e-01 2.859604999999999819e+01 1.214145000000000039e+02 2.289385000000000218e+03
8.000000000000000167e-02 1.713159999999999961e-01 2.987254999999999683e+01 1.254465000000000003e+02 2.290574999999999818e+03
8.100000000000000255e-02 1.714410000000000101e-01 3.107825000000000060e+01 1.294480000000000075e+02 2.291755000000000109e+03
8.200000000000000344e-02 1.715645000000000087e-01 3.221264999999999645e+01 1.334074999999999989e+02 2.292930000000000291e+03
8.300000000000000433e-02 1.716870000000000063e-01 3.327315000000000111e+01 1.373050000000000068e+02 2.294085000000000036e+03
8.400000000000000522e-02 1.718060000000000143e-01 3.425520000000000209e+01 1.411144999999999925e+02 2.295225000000000364e+03
8.500000000000000611e-02 1.719235000000000069e-01 3.515314999999999657e+01 1.448045000000000186e+02 2.296335000000000036e+03
8.600000000000000699e-02 1.720365000000000089e-01 3.596009999999999707e+01 1.483414999999999964e+02 2.297404999999999745e+03
8.700000000000000788e-02 1.721445000000000058e-01 3.666854999999999620e+01 1.516935000000000002e+02 2.298440000000000055e+03
8.800000000000000877e-02 1.722464999999999968e-01 3.727035000000000053e+01 1.548249999999999886e+02 2.299414999999999964e+03
8.899999999999999578e-02 1.723419999999999952e-01 3.775724999999999909e+01 1.577060000000000173e+02 2.300324999999999818e+03
8.999999999999999667e-02 1.724299999999999999e-01 3.812120000000000175e+01 1.603050000000000068e+02 2.301170000000000073e+03
9.099999999999999756e-02 1.725089999999999957e-01 3.835495000000000232e+01 1.625949999999999989e+02 2.301930000000000291e+03
9.199999999999999845e-02 1.725785000000000236e-01 3.845250000000000057e+01 1.645544999999999902e+02 2.302604999999999563e+03
9.299999999999999933e-02 1.726389999999999869e-01 3.840995000000000203e+01 1.661664999999999850e+02 2.303184999999999945e+03
9.400000000000000022e-02 1.726885000000000225e-01 3.822644999999999982e+01 1.674225000000000136e+02 2.303670000000000073e+03
9.500000000000000111e-02 1.727275000000000060e-01 3.790404999999999802e+01 1.683245000000000005e+02 2.304054999999999836e+03
9.600000000000000200e-02 1.727559999999999929e-01 3.744865000000000066e+01 1.688834999999999980e+02 2.304340000000000146e+03
9.700000000000000289e-02 1.727750000000000119e-01 3.686969999999999459e+01 1.691215000000000259e+02 2.304530000000000200e+03
9.800000000000000377e-02 1.727845000000000075e-01 3.617990000000000350e+01 1.690690000000000168e+02 2.304630000000000109e+03
9.900000000000000466e-02 1.727854999999999808e-01 3.539464999999999861e+01 1.687649999999999864e+02 2.304649999999999636e+03
1.000000000000000056e-01 1.727790000000000159e-01 3.453159999999999741e+01 1.682529999999999859e+02 2.304605000000000018e+03
1.010000000000000064e-01 1.727670000000000039e-01 3.360934999999999917e+01 1.675799999999999841e+02 2.304494999999999891e+03
1.020000000000000073e-01 1.727500000000000147e-01 3.264690000000000225e+01 1.667920000000000016e+02 2.304340000000000146e+03
1.030000000000000082e-01 1.727295000000000080e-01 3.166270000000000095e+01 1.659339999999999975e+02 2.304149999999999636e+03
1.040000000000000091e-01 1.727064999999999850e-01 3.067385000000000161e+01 1.650459999999999923e+02 2.303939999999999600e+03
1.050000000000000100e-01 1.726830000000000032e-01 2.969575000000000031e+01 1.641625000000000227e+02 2.303720000000000255e+03
1.059999999999999970e-01 1.726590000000000069e-01 2.874130000000000251e+01 1.633104999999999905e+02 2.303489999999999782e+03
1.069999999999999979e-01 1.726354999999999973e-01 2.782039999999999935e+01 1.625104999999999791e+02 2.303264999999999873e+03
1.079999999999999988e-01 1.726135000000000030e-01 2.694004999999999939e+01 1.617735000000000127e+02 2.303055000000000291e+03
1.089999999999999997e-01 1.725929999999999964e-01 2.610394999999999754e+01 1.611039999999999850e+02 2.302859999999999673e+03
1.100000000000000006e-01 1.725734999999999908e-01 2.531255000000000166e+01 1.604959999999999809e+02 2.302670000000000073e+03
1.110000000000000014e-01 1.725555000000000005e-01 2.456329999999999814e+01 1.599384999999999764e+02 2.302494999999999891e+03
1.120000000000000023e-01 1.725384999999999835e-01 2.385079999999999956e+01 1.594124999999999943e+02 2.302329999999999927e+03
1.130000000000000032e-01 1.725225000000000231e-01 2.316750000000000043e+01 1.588950000000000102e+02 2.302175000000000182e+03
1.140000000000000041e-01 1.725059999999999927e-01 2.250415000000000276e+01 1.583600000000000136e+02 2.302010000000000218e+03
1.150000000000000050e-01 1.724884999999999891e-01 2.185069999999999979e+01 1.577794999999999845e+02 2.301845000000000255e+03
1.160000000000000059e-01 1.724694999999999978e-01 2.119669999999999987e+01 1.571254999999999882e+02 2.301664999999999964e+03
1.170000000000000068e-01 1.724485000000000046e-01 2.053224999999999767e+01 1.563734999999999786e+02 2.301460000000000036e+03
1.180000000000000077e-01 1.724239999999999939e-01 1.984890000000000043e+01 1.555035000000000025e+02 2.301230000000000018e+03
1.190000000000000085e-01 1.723959999999999937e-01 1.913964999999999961e+01 1.545000000000000000e+02 2.300970000000000255e+03
1.200000000000000094e-01 1.723649999999999904e-01 1.840024999999999977e+01 1.533559999999999945e+02 2.300670000000000073e+03
1.209999999999999964e-01 1.723290000000000100e-01 1.762890000000000157e+01 1.520709999999999980e+02 2.300340000000000146e+03
1.219999999999999973e-01 1.722895000000000121e-01 1.682679999999999865e+01 1.506529999999999916e+02 2.299965000000000146e+03
1.229999999999999982e-01 1.722460000000000102e-01 1.599784999999999968e+01 1.491184999999999832e+02 2.299559999999999945e+03
1.239999999999999991e-01 1.721999999999999920e-01 1.514890000000000114e+01 1.474900000000000091e+02 2.299125000000000000e+03
1.250000000000000000e-01 1.721509999999999985e-01 1.428914999999999935e+01 1.457965000000000089e+02 2.298659999999999854e+03
1.260000000000000009e-01 1.721004999999999896e-01 1.342954999999999899e+01 1.440720000000000027e+02 2.298185000000000400e+03
1.270000000000000018e-01 1.720490000000000075e-01 1.258230000000000004e+01 1.423514999999999873e+02 2.297699999999999818e+03
1.280000000000000027e-01 1.719984999999999986e-01 1.176010499999999936e+01 1.406709999999999923e+02 2.297220000000000255e+03
1.290000000000000036e-01 1.719485000000000041e-01 1.097521000000000058e+01 1.390654999999999859e+02 2.296750000000000000e+03
1.300000000000000044e-01 1.719014999999999849e-01 1.023911999999999978e+01 1.375649999999999977e+02 2.296300000000000182e+03
1.310000000000000053e-01 1.718574999999999964e-01 9.561540000000000816e+00 1.361949999999999932e+02 2.295885000000000218e+03
1.320000000000000062e-01 1.718169999999999975e-01 8.950195000000000789e+00 1.349744999999999777e+02 2.295494999999999891e+03
1.330000000000000071e-01 1.717805000000000026e-01 8.410485000000001321e+00 1.339149999999999920e+02 2.295150000000000091e+03
1.340000000000000080e-01 1.717490000000000128e-01 7.945265000000000910e+00 1.330219999999999914e+02 2.294845000000000255e+03
1.350000000000000089e-01 1.717219999999999858e-01 7.555030000000000356e+00 1.322939999999999827e+02 2.294579999999999927e+03
1.360000000000000098e-01 1.717000000000000193e-01 7.238014999999999866e+00 1.317230000000000132e+02 2.294369999999999891e+03
1.370000000000000107e-01 1.716820000000000013e-01 6.990524999999999878e+00 1.312975000000000136e+02 2.294194999999999709e+03
1.380000000000000115e-01 1.716685000000000016e-01 6.807249999999999801e+00 1.310015000000000214e+02 2.294055000000000291e+03
1.390000000000000124e-01 1.716584999999999916e-01 6.681659999999999933e+00 1.308174999999999955e+02 2.293954999999999927e+03
1.400000000000000133e-01 1.716515000000000124e-01 6.606355000000000643e+00 1.307270000000000039e+02 2.293885000000000218e+03
1.410000000000000142e-01 1.716475000000000084e-01 6.573419999999999597e+00 1.307099999999999795e+02 2.293845000000000255e+03
1.420000000000000151e-01 1.716455000000000064e-01 6.574725000000000819e+00 1.307484999999999786e+02 2.293814999999999600e+03
1.430000000000000160e-01 1.716449999999999920e-01 6.602235000000000298e+00 1.308229999999999791e+02 2.293809999999999945e+03
1.440000000000000169e-01 1.716460000000000208e-01 6.648210000000000619e+00 1.309190000000000111e+02 2.293815000000000055e+03
1.450000000000000178e-01 1.716475000000000084e-01 6.705439999999999401e+00 1.310204999999999984e+02 2.293824999999999818e+03
1.459999999999999909e-01 1.716489999999999960e-01 6.767440000000000566e+00 1.311154999999999973e+02 2.293840000000000146e+03
1.469999999999999918e-01 1.716509999999999980e-01 6.828590000000000160e+00 1.311940000000000168e+02 2.293855000000000018e+03
1.479999999999999927e-01 1.716524999999999856e-01 6.884285000000000210e+00 1.312475000000000023e+02 2.293864999999999782e+03
1.489999999999999936e-01 1.716530000000000000e-01 6.930989999999999540e+00 1.312715000000000032e+02 2.293875000000000000e+03
1.499999999999999944e-01 1.716530000000000000e-01 6.966269999999999740e+00 1.312624999999999886e+02 2.293875000000000000e+03
1.509999999999999953e-01 1.716519999999999990e-01 6.988830000000000098e+00 1.312210000000000036e+02 2.293869999999999891e+03
1.519999999999999962e-01 1.716504999999999836e-01 6.998350000000000293e+00 1.311494999999999891e+02 2.293849999999999909e+03
1.529999999999999971e-01 1.716479999999999950e-01 6.995409999999999684e+00 1.310509999999999877e+02 2.293835000000000036e+03
1.539999999999999980e-01 1.716449999999999920e-01 6.981279999999999930e+00 1.309304999999999950e+02 2.293800000000000182e+03
1.549999999999999989e-01 1.716415000000000024e-01 6.957704999999999806e+00 1.307944999999999993e+02 2.293769999999999982e+03
1.559999999999999998e-01 1.716374999999999984e-01 6.926650000000000418e+00 1.306490000000000009e+02 2.293734999999999673e+03
1.570000000000000007e-01 1.716329999999999800e-01 6.890085000000000015e+00 1.304990000000000236e+02 2.293695000000000164e+03
1.580000000000000016e-01 1.716284999999999894e-01 6.849755000000000038e+00 1.303485000000000014e+02 2.293654999999999745e+03
1.590000000000000024e-01 1.716245000000000132e-01 6.807024999999999437e+00 1.302009999999999934e+02 2.293614999999999782e+03
