# t [s], A [cm^2], U [cm/s], P [cPa], c [cm/s]
1.000000000000000021e-03 7.832025000000000237e-01 7.561499999999998778e-03 9.925495000000000800e+01 1.765865000000000009e+03
2.000000000000000042e-03 7.831865000000000077e-01 -6.342809999999999941e-03 9.921529999999999916e+01 1.765849999999999909e+03
3.000000000000000062e-03 7.832500000000000018e-01 9.359874999999999445e-02 9.933275000000000432e+01 1.765880000000000109e+03
4.000000000000000083e-03 7.833069999999999755e-01 1.999649000000000010e-01 9.946965000000000146e+01 1.765904999999999973e+03
5.000000000000000104e-03 7.832609999999999850e-01 1.626530999999999949e-01 9.937335000000000207e+01 1.765885000000000218e+03
6.000000000000000125e-03 7.831725000000000492e-01 5.465300000000000713e-02 9.909685000000000343e+01 1.765829999999999927e+03
7.000000000000000146e-03 7.831074999999999564e-01 -2.822749999999996096e-02 9.879134999999999422e+01 1.765764999999999873e+03
8.000000000000000167e-03 7.829924999999999802e-01 -2.043099999999999916e-01 9.832479999999999620e+01 1.765664999999999964e+03
9.000000000000001055e-03 7.828040000000000553e-01 -5.201799999999999757e-01 9.760419999999999163e+01 1.765514999999999873e+03
1.000000000000000194e-02 7.825405000000000832e-01 -9.747900000000000453e-01 9.658995000000000175e+01 1.765305000000000064e+03
1.099999999999999936e-02 7.821685000000000443e-01 -1.607315000000000049e+00 9.518280000000000030e+01 1.765010000000000218e+03
1.200000000000000025e-02 7.816885000000000083e-01 -2.402235000000000120e+00 9.334364999999999668e+01 1.764619999999999891e+03
1.300000000000000114e-02 7.811714999999999076e-01 -3.215999999999999748e+00 9.122605000000000075e+01 1.764154999999999973e+03
1.400000000000000203e-02 7.807200000000000806e-01 -3.847959999999999603e+00 8.911369999999999436e+01 1.763679999999999836e+03
1.499999999999999944e-02 7.803930000000000033e-01 -4.159389499999999629e+00 8.725329999999999586e+01 1.763235000000000127e+03
1.600000000000000033e-02 7.801804999999999435e-01 -4.129515000000000491e+00 8.573799999999999955e+01 1.762845000000000027e+03
1.700000000000000122e-02 7.800255000000000383e-01 -3.836650000000000116e+00 8.449915000000000020e+01 1.762505000000000109e+03
1.800000000000000211e-02 7.798549999999999649e-01 -3.402474999999999916e+00 8.336889999999999645e+01 1.762190000000000055e+03
1.900000000000000300e-02 7.796160000000000867e-01 -2.934383500000000033e+00 8.216859999999999786e+01 1.761855000000000018e+03
2.000000000000000042e-02 7.792915000000000258e-01 -2.486742999999999704e+00 8.078319999999999368e+01 1.761485000000000127e+03
2.100000000000000130e-02 7.788999999999999257e-01 -2.051080000000000236e+00 7.919825000000000159e+01 1.761079999999999927e+03
2.200000000000000219e-02 7.784839999999999538e-01 -1.575180000000000025e+00 7.748910000000000764e+01 1.760644999999999982e+03
2.299999999999999961e-02 7.780865000000000142e-01 -9.994849999999999568e-01 7.577330000000000609e+01 1.760204999999999927e+03
2.400000000000000050e-02 7.777315000000000200e-01 -2.929900000000000837e-01 7.415094999999999459e+01 1.759775000000000091e+03
2.500000000000000139e-02 7.774155000000000371e-01 5.257050000000000889e-01 7.265885000000000105e+01 1.759369999999999891e+03
2.600000000000000228e-02 7.771090000000000497e-01 1.386905000000000054e+00 7.125194999999999368e+01 1.758985000000000127e+03
2.700000000000000316e-02 7.767654999999999976e-01 2.185014999999999930e+00 6.981289999999999907e+01 1.758594999999999800e+03
2.800000000000000058e-02 7.763370000000000548e-01 2.805015000000000036e+00 6.818569999999999709e+01 1.758174999999999955e+03
2.900000000000000147e-02 7.757884999999999920e-01 3.153215000000000323e+00 6.622319999999999141e+01 1.757690000000000055e+03
3.000000000000000236e-02 7.751099999999999657e-01 3.183854999999999436e+00 6.383605000000000018e+01 1.757130000000000109e+03
3.099999999999999978e-02 7.743219999999999548e-01 2.912340000000000373e+00 6.102660000000000196e+01 1.756474999999999909e+03
3.200000000000000067e-02 7.734715000000000895e-01 2.408939999999999859e+00 5.789414999999999623e+01 1.755750000000000000e+03
3.300000000000000155e-02 7.726189999999999447e-01 1.777614999999999945e+00 5.461225000000000307e+01 1.754985000000000127e+03
3.400000000000000244e-02 7.718199999999999505e-01 1.128414999999999946e+00 5.138819999999999766e+01 1.754220000000000027e+03
3.500000000000000333e-02 7.711234999999999618e-01 5.553799999999995407e-01 4.842239999999999611e+01 1.753505000000000109e+03
3.600000000000000422e-02 7.705564999999999776e-01 1.239650000000001029e-01 4.587800000000000011e+01 1.752869999999999891e+03
3.700000000000000511e-02 7.701329999999999565e-01 -1.312150000000000816e-01 4.386544999999999561e+01 1.752344999999999800e+03
3.799999999999999906e-02 7.698525000000000507e-01 -2.010750000000001148e-01 4.244055000000000177e+01 1.751950000000000045e+03
3.899999999999999994e-02 7.697074999999999889e-01 -9.260000000000001563e-02 4.161400000000000432e+01 1.751694999999999936e+03
4.000000000000000083e-02 7.696864999999999402e-01 1.817280000000000284e-01 4.136659999999999826e+01 1.751570000000000164e+03
4.100000000000000172e-02 7.697825000000000362e-01 6.128419999999999979e-01 4.166594999999999516e+01 1.751579999999999927e+03
4.200000000000000261e-02 7.699894999999999934e-01 1.200145000000000017e+00 4.248064999999999714e+01 1.751715000000000146e+03
4.300000000000000350e-02 7.703075000000000339e-01 1.951814999999999856e+00 4.378820000000000334e+01 1.751974999999999909e+03
4.400000000000000439e-02 7.707375000000000753e-01 2.880804999999999616e+00 4.557469999999999999e+01 1.752349999999999909e+03
4.499999999999999833e-02 7.712795000000000067e-01 3.998520000000000074e+00 4.782965000000000089e+01 1.752845000000000027e+03
4.599999999999999922e-02 7.719314999999999927e-01 5.308519999999999683e+00 5.053730000000000189e+01 1.753445000000000164e+03
4.700000000000000011e-02 7.726835000000000786e-01 6.802400500000000072e+00 5.366944999999999766e+01 1.754144999999999982e+03
4.800000000000000100e-02 7.735225000000000017e-01 8.458182499999999493e+00 5.718049999999999500e+01 1.754949999999999818e+03
4.900000000000000189e-02 7.744290000000000340e-01 1.024230499999999999e+01 6.100749999999999318e+01 1.755835000000000036e+03
5.000000000000000278e-02 7.753820000000000157e-01 1.211295499999999947e+01 6.507335000000000491e+01 1.756779999999999973e+03
5.100000000000000366e-02 7.763595000000000912e-01 1.402491999999999983e+01 6.929309999999999548e+01 1.757779999999999973e+03
5.200000000000000455e-02 7.773404999999999898e-01 1.593444500000000019e+01 7.358185000000000286e+01 1.758804999999999836e+03
5.300000000000000544e-02 7.783090000000000286e-01 1.780282499999999857e+01 7.786140000000000327e+01 1.759840000000000146e+03
5.399999999999999939e-02 7.792529999999999735e-01 1.959939999999999927e+01 8.206659999999999400e+01 1.760864999999999782e+03
5.500000000000000028e-02 7.801624999999999810e-01 2.130214999999999748e+01 8.614869999999999095e+01 1.761875000000000000e+03
5.600000000000000117e-02 7.810354999999999936e-01 2.289760000000000062e+01 9.007644999999999413e+01 1.762855000000000018e+03
5.700000000000000205e-02 7.818709999999999827e-01 2.437965000000000160e+01 9.383525000000000205e+01 1.763804999999999836e+03
5.800000000000000294e-02 7.826714999999999645e-01 2.574790000000000134e+01 9.742404999999999404e+01 1.764719999999999800e+03
5.900000000000000383e-02 7.834415000000000129e-01 2.700605000000000189e+01 1.008532500000000027e+02 1.765594999999999800e+03
6.000000000000000472e-02 7.841844999999999510e-01 2.816055000000000064e+01 1.041411500000000103e+02 1.766434999999999945e+03
6.099999999999999867e-02 7.849064999999999515e-01 2.921909999999999741e+01 1.073093499999999949e+02 1.767255000000000109e+03
6.199999999999999956e-02 7.856130000000000058e-01 3.018990000000000151e+01 1.103810000000000002e+02 1.768045000000000073e+03
6.300000000000000044e-02 7.863080000000000069e-01 3.108024999999999949e+01 1.133785000000000025e+02 1.768815000000000055e+03
6.400000000000000133e-02 7.869930000000000536e-01 3.189594999999999914e+01 1.163155000000000001e+02 1.769569999999999936e+03
6.500000000000000222e-02 7.876699999999999813e-01 3.264045000000000130e+01 1.192044999999999959e+02 1.770320000000000164e+03
6.600000000000000311e-02 7.883379999999999832e-01 3.331465000000000032e+01 1.220465000000000089e+02 1.771045000000000073e+03
6.700000000000000400e-02 7.889939999999999731e-01 3.391655000000000086e+01 1.248354999999999961e+02 1.771764999999999873e+03
6.800000000000000488e-02 7.896330000000000293e-01 3.444204999999999472e+01 1.275569999999999879e+02 1.772464999999999918e+03
6.900000000000000577e-02 7.902504999999999669e-01 3.488530000000000086e+01 1.301924999999999955e+02 1.773144999999999982e+03
7.000000000000000666e-02 7.908399999999999874e-01 3.523989999999999867e+01 1.327185000000000059e+02 1.773804999999999836e+03
7.100000000000000755e-02 7.913959999999999884e-01 3.549974999999999881e+01 1.351084999999999923e+02 1.774424999999999955e+03
7.200000000000000844e-02 7.919129999999999781e-01 3.565959999999999752e+01 1.373394999999999868e+02 1.775014999999999873e+03
7.300000000000000933e-02 7.923860000000000348e-01 3.571600000000000108e+01 1.393884999999999934e+02 1.775559999999999945e+03
7.399999999999999634e-02 7.928120000000000722e-01 3.566724999999999568e+01 1.412395000000000209e+02 1.776059999999999945e+03
7.499999999999999722e-02 7.931889999999999219e-01 3.551344999999999885e+01 1.428779999999999859e+02 1.776500000000000000e+03
7.599999999999999811e-02 7.935155000000000403e-01 3.525650000000000261e+01 1.442969999999999970e+02 1.776894999999999982e+03
7.699999999999999900e-02 7.937914999999999832e-01 3.489995000000000402e+01 1.454929999999999950e+02 1.777230000000000018e+03
7.799999999999999989e-02 7.940164999999999029e-01 3.444874999999999687e+01 1.464675000000000011e+02 1.777519999999999982e+03
7.900000000000000078e-02 7.941934999999999967e-01 3.390934999999999633e+01 1.472255000000000109e+02 1.777744999999999891e+03
8.000000000000000167e-02 7.943244999999999889e-01 3.328960000000000008e+01 1.477785000000000082e+02 1.777920000000000073e+03
8.100000000000000255e-02 7.944130000000000358e-01 3.259870000000000090e+01 1.481394999999999982e+02 1.778050000000000182e+03
8.200000000000000344e-02 7.944620000000000015e-01 3.184730000000000061e+01 1.483255000000000052e+02 1.778130000000000109e+03
8.300000000000000433e-02 7.944784999999999764e-01 3.104724999999999824e+01 1.483575000000000159e+02 1.778170000000000073e+03
8.400000000000000522e-02 7.944660000000000055e-01 3.021130000000000138e+01 1.482574999999999932e+02 1.778175000000000182e+03
8.500000000000000611e-02 7.944309999999999983e-01 2.935275000000000034e+01 1.480509999999999877e+02 1.778150000000000091e+03
8.600000000000000699e-02 7.943795000000000162e-01 2.848509999999999920e+01 1.477620000000000005e+02 1.778099999999999909e+03
8.700000000000000788e-02 7.943169999999999398e-01 2.762095000000000056e+01 1.474170000000000016e+02 1.778029999999999973e+03
8.800000000000000877e-02 7.942480000000000651e-01 2.677185000000000059e+01 1.470395000000000039e+02 1.777950000000000045e+03
8.899999999999999578e-02 7.941780000000000506e-01 2.594740000000000180e+01 1.466490000000000009e+02 1.777860000000000127e+03
8.999999999999999667e-02 7.941089999999999538e-01 2.515494999999999948e+01 1.462634999999999934e+02 1.777769999999999982e+03
9.099999999999999756e-02 7.940439999999999721e-01 2.439920000000000044e+01 1.458950000000000102e+02 1.777680000000000064e+03
9.199999999999999845e-02 7.939840000000000231e-01 2.368224999999999980e+01 1.455509999999999877e+02 1.777590000000000146e+03
9.299999999999999933e-02 7.939279999999999671e-01 2.300355000000000061e+01 1.452344999999999970e+02 1.777509999999999991e+03
9.400000000000000022e-02 7.938760000000000261e-01 2.236025000000000063e+01 1.449435000000000002e+02 1.777434999999999945e+03
9.500000000000000111e-02 7.938255000000000727e-01 2.174754999999999683e+01 1.446705000000000041e+02 1.777360000000000127e+03
9.600000000000000200e-02 7.937739999999999796e-01 2.115909999999999869e+01 1.444074999999999989e+02 1.777284999999999854e+03
9.700000000000000289e-02 7.937184999999999935e-01 2.058745000000000047e+01 1.441424999999999841e+02 1.777214999999999918e+03
9.800000000000000377e-02 7.936570000000000569e-01 2.002465000000000117e+01 1.438620000000000232e+02 1.777139999999999873e+03
9.900000000000000466e-02 7.935849999999999849e-01 1.946274999999999977e+01 1.435529999999999973e+02 1.777059999999999945e+03
1.000000000000000056e-01 7.934999999999999831e-01 1.889395000000000024e+01 1.432019999999999982e+02 1.776974999999999909e+03
1.010000000000000064e-01 7.934004999999999530e-01 1.831125000000000114e+01 1.427984999999999900e+02 1.776869999999999891e+03
1.020000000000000073e-01 7.932844999999999480e-01 1.770885000000000176e+01 1.423315000000000055e+02 1.776755000000000109e+03
1.030000000000000082e-01 7.931509999999999394e-01 1.708234999999999815e+01 1.417944999999999993e+02 1.776630000000000109e+03
1.040000000000000091e-01 7.929990000000000094e-01 1.642920000000000158e+01 1.411854999999999905e+02 1.776485000000000127e+03
1.050000000000000100e-01 7.928304999999999936e-01 1.574889999999999901e+01 1.405039999999999907e+02 1.776320000000000164e+03
1.059999999999999970e-01 7.926465000000000316e-01 1.504294999999999938e+01 1.397549999999999955e+02 1.776139999999999873e+03
1.069999999999999979e-01 7.924495000000000289e-01 1.431488000000000049e+01 1.389459999999999980e+02 1.775950000000000045e+03
1.079999999999999988e-01 7.922430000000000305e-01 1.357020500000000141e+01 1.380900000000000034e+02 1.775740000000000009e+03
1.089999999999999997e-01 7.920314999999999994e-01 1.281599999999999895e+01 1.372019999999999982e+02 1.775525000000000091e+03
1.100000000000000006e-01 7.918190000000000506e-01 1.206060499999999891e+01 1.362994999999999948e+02 1.775309999999999945e+03
1.110000000000000014e-01 7.916094999999999660e-01 1.131334000000000017e+01 1.354025000000000034e+02 1.775090000000000146e+03
1.120000000000000023e-01 7.914090000000000291e-01 1.058374000000000059e+01 1.345289999999999964e+02 1.774869999999999891e+03
1.130000000000000032e-01 7.912215000000000220e-01 9.881194999999999951e+00 1.336999999999999886e+02 1.774659999999999854e+03
1.140000000000000041e-01 7.910505000000001008e-01 9.214555000000000717e+00 1.329329999999999927e+02 1.774470000000000027e+03
1.150000000000000050e-01 7.908994999999999775e-01 8.591689999999999827e+00 1.322429999999999950e+02 1.774289999999999964e+03
1.160000000000000059e-01 7.907710000000000017e-01 8.018879999999999342e+00 1.316440000000000055e+02 1.774134999999999991e+03
1.170000000000000068e-01 7.906670000000000087e-01 7.500935000000000130e+00 1.311434999999999889e+02 1.774000000000000000e+03
1.180000000000000077e-01 7.905870000000000397e-01 7.040599999999999525e+00 1.307469999999999857e+02 1.773884999999999991e+03
1.190000000000000085e-01 7.905314999999999426e-01 6.638774999999999871e+00 1.304555000000000007e+02 1.773800000000000182e+03
1.200000000000000094e-01 7.904995000000000216e-01 6.294439999999999813e+00 1.302655000000000030e+02 1.773735000000000127e+03
1.209999999999999964e-01 7.904884999999999273e-01 6.004805000000000170e+00 1.301694999999999993e+02 1.773695000000000164e+03
1.219999999999999973e-01 7.904949999999999477e-01 5.765604999999999869e+00 1.301580000000000155e+02 1.773679999999999836e+03
1.229999999999999982e-01 7.905159999999999965e-01 5.571350000000000691e+00 1.302185000000000059e+02 1.773679999999999836e+03
1.239999999999999991e-01 7.905489999999999462e-01 5.415739999999999554e+00 1.303354999999999961e+02 1.773695000000000164e+03
1.250000000000000000e-01 7.905899999999999039e-01 5.291980000000000572e+00 1.304954999999999927e+02 1.773719999999999800e+03
1.260000000000000009e-01 7.906355000000000466e-01 5.193154999999999966e+00 1.306820000000000164e+02 1.773755000000000109e+03
1.270000000000000018e-01 7.906815000000000371e-01 5.112499999999999822e+00 1.308815000000000168e+02 1.773795000000000073e+03
1.280000000000000027e-01 7.907264999999999988e-01 5.043680000000000163e+00 1.310805000000000007e+02 1.773839999999999918e+03
1.290000000000000036e-01 7.907675000000000676e-01 4.980935000000000556e+00 1.312665000000000077e+02 1.773885000000000218e+03
1.300000000000000044e-01 7.908025000000000748e-01 4.919270000000000032e+00 1.314314999999999998e+02 1.773920000000000073e+03
1.310000000000000053e-01 7.908300000000000329e-01 4.854454999999999742e+00 1.315670000000000073e+02 1.773950000000000045e+03
1.320000000000000062e-01 7.908490000000000242e-01 4.783139999999999503e+00 1.316684999999999945e+02 1.773974999999999909e+03
1.330000000000000071e-01 7.908585000000000198e-01 4.702785000000000437e+00 1.317314999999999827e+02 1.773994999999999891e+03
1.340000000000000080e-01 7.908600000000000074e-01 4.611695000000000100e+00 1.317549999999999955e+02 1.774005000000000109e+03
1.350000000000000089e-01 7.908524999999999583e-01 4.508944999999999759e+00 1.317390000000000043e+02 1.774005000000000109e+03
1.360000000000000098e-01 7.908364999999999423e-01 4.394330000000000069e+00 1.316854999999999905e+02 1.773994999999999891e+03
1.370000000000000107e-01 7.908129999999999882e-01 4.268299999999999983e+00 1.315964999999999918e+02 1.773974999999999909e+03
1.380000000000000115e-01 7.907824999999999438e-01 4.131840000000000401e+00 1.314759999999999991e+02 1.773950000000000045e+03
1.390000000000000124e-01 7.907465000000000188e-01 3.986405000000000420e+00 1.313284999999999911e+02 1.773920000000000073e+03
1.400000000000000133e-01 7.907064999999999788e-01 3.833759999999999835e+00 1.311580000000000155e+02 1.773880000000000109e+03
1.410000000000000142e-01 7.906625000000000458e-01 3.675860000000000127e+00 1.309694999999999823e+02 1.773835000000000036e+03
1.420000000000000151e-01 7.906159999999999854e-01 3.514730000000000132e+00 1.307674999999999841e+02 1.773789999999999964e+03
1.430000000000000160e-01 7.905685000000000073e-01 3.352335000000000065e+00 1.305564999999999998e+02 1.773740000000000009e+03
1.440000000000000169e-01 7.905195000000000416e-01 3.190479999999999983e+00 1.303389999999999986e+02 1.773690000000000055e+03
1.450000000000000178e-01 7.904705000000000759e-01 3.030690000000000328e+00 1.301185000000000116e+02 1.773634999999999991e+03
1.459999999999999909e-01 7.904214999999999991e-01 2.874194999999999833e+00 1.298969999999999914e+02 1.773579999999999927e+03
1.469999999999999918e-01 7.903725000000000334e-01 2.721899999999999764e+00 1.296754999999999995e+02 1.773529999999999973e+03
1.479999999999999927e-01 7.903234999999999566e-01 2.574355000000000171e+00 1.294535000000000196e+02 1.773474999999999909e+03
1.489999999999999936e-01 7.902739999999999210e-01 2.431840000000000224e+00 1.292309999999999945e+02 1.773414999999999964e+03
1.499999999999999944e-01 7.902244999999999964e-01 2.294385000000000119e+00 1.290074999999999932e+02 1.773359999999999900e+03
1.509999999999999953e-01 7.901739999999999320e-01 2.161909999999999776e+00 1.287810000000000059e+02 1.773304999999999836e+03
1.519999999999999962e-01 7.901214999999999211e-01 2.034279999999999866e+00 1.285504999999999995e+02 1.773250000000000000e+03
1.529999999999999971e-01 7.900685000000000624e-01 1.911415000000000086e+00 1.283145000000000095e+02 1.773190000000000055e+03
1.539999999999999980e-01 7.900129999999999653e-01 1.793374000000000024e+00 1.280724999999999909e+02 1.773130000000000109e+03
1.549999999999999989e-01 7.899564999999999504e-01 1.680449999999999999e+00 1.278234999999999957e+02 1.773065000000000055e+03
1.559999999999999998e-01 7.898985000000000589e-01 1.573178500000000035e+00 1.275690000000000026e+02 1.773005000000000109e+03
1.570000000000000007e-01 7.898389999999999578e-01 1.472364499999999854e+00 1.273100000000000023e+02 1.772940000000000055e+03
1.580000000000000016e-01 7.897795000000000787e-01 1.379024500000000097e+00 1.270485000000000042e+02 1.772875000000000000e+03
1.590000000000000024e-01 7.897199999999999775e-01 1.294347500000000206e+00 1.267870000000000061e+02 1.772805000000000064e+03
