# t [s], A [cm^2], U [cm/s], P [cPa], c [cm/s]
1.000000000000000021e-03 4.633260000000000156e-01 4.890399999999996139e-03 9.917974999999999852e+01 1.640784999999999854e+03
2.000000000000000042e-03 4.633194999999999952e-01 1.253934999999999859e-03 9.915295000000000414e+01 1.640775000000000091e+03
3.000000000000000062e-03 4.633639999999999981e-01 1.128923500000000024e-01 9.927424999999999500e+01 1.640809999999999945e+03
4.000000000000000083e-03 4.633960000000000301e-01 2.036291500000000088e-01 9.938710000000000377e+01 1.640839999999999918e+03
5.000000000000000104e-03 4.633680000000000021e-01 1.562794999999999879e-01 9.929160000000000252e+01 1.640815000000000055e+03
6.000000000000000125e-03 4.633169999999999789e-01 4.523050000000000681e-02 9.903249999999999886e+01 1.640755000000000109e+03
7.000000000000000146e-03 4.632684999999999720e-01 -6.968550000000001132e-02 9.869620000000000459e+01 1.640670000000000073e+03
8.000000000000000167e-03 4.631855000000000278e-01 -2.815400000000000125e-01 9.817920000000000869e+01 1.640539999999999964e+03
9.000000000000001055e-03 4.630540000000000211e-01 -6.302149999999999697e-01 9.739634999999999820e+01 1.640340000000000146e+03
1.000000000000000194e-02 4.628710000000000324e-01 -1.115280000000000049e+00 9.630445000000000277e+01 1.640059999999999945e+03
1.099999999999999936e-02 4.626194999999999613e-01 -1.762929999999999886e+00 9.482689999999999486e+01 1.639674999999999955e+03
1.200000000000000025e-02 4.622954999999999703e-01 -2.561605000000000132e+00 9.292669999999999675e+01 1.639170000000000073e+03
1.300000000000000114e-02 4.619349999999999845e-01 -3.395859999999999879e+00 9.071285000000000309e+01 1.638565000000000055e+03
1.400000000000000203e-02 4.615954999999999919e-01 -4.083426500000000736e+00 8.842770000000000152e+01 1.637920000000000073e+03
1.499999999999999944e-02 4.613234999999999975e-01 -4.470855999999999497e+00 8.632789999999999964e+01 1.637289999999999964e+03
1.600000000000000033e-02 4.611309999999999576e-01 -4.499139999999999695e+00 8.457140000000001123e+01 1.636730000000000018e+03
1.700000000000000122e-02 4.609974999999999490e-01 -4.209690000000000154e+00 8.317275000000000773e+01 1.636244999999999891e+03
1.800000000000000211e-02 4.608845000000000303e-01 -3.709130000000000038e+00 8.202459999999999241e+01 1.635819999999999936e+03
1.900000000000000300e-02 4.607529999999999681e-01 -3.119543499999999803e+00 8.095794999999999675e+01 1.635414999999999964e+03
2.000000000000000042e-02 4.605774999999999730e-01 -2.533596499999999807e+00 7.981295000000000073e+01 1.634994999999999891e+03
2.100000000000000130e-02 4.603530000000000122e-01 -1.988335000000000186e+00 7.849549999999999272e+01 1.634545000000000073e+03
2.200000000000000219e-02 4.600929999999999742e-01 -1.465554999999999941e+00 7.699899999999999523e+01 1.634050000000000182e+03
2.299999999999999961e-02 4.598205000000000209e-01 -9.158700000000001840e-01 7.538705000000000211e+01 1.633519999999999982e+03
2.400000000000000050e-02 4.595555000000000057e-01 -2.927550000000000985e-01 7.374985000000000923e+01 1.632980000000000018e+03
2.500000000000000139e-02 4.593069999999999653e-01 4.192150000000003374e-01 7.215670000000000073e+01 1.632445000000000164e+03
2.600000000000000228e-02 4.590704999999999925e-01 1.191484999999999905e+00 7.062340000000000373e+01 1.631920000000000073e+03
2.700000000000000316e-02 4.588275000000000547e-01 1.955014999999999947e+00 6.910195000000000221e+01 1.631400000000000091e+03
2.800000000000000058e-02 4.585544999999999760e-01 2.616380000000000372e+00 6.749240000000000350e+01 1.630855000000000018e+03
2.900000000000000147e-02 4.582269999999999954e-01 3.080865000000000187e+00 6.567040000000000077e+01 1.630264999999999873e+03
3.000000000000000236e-02 4.578274999999999428e-01 3.276634999999999742e+00 6.352410000000000423e+01 1.629594999999999800e+03
3.099999999999999978e-02 4.573530000000000095e-01 3.173815000000000275e+00 6.099004999999999654e+01 1.628835000000000036e+03
3.200000000000000067e-02 4.568145000000000122e-01 2.792615000000000069e+00 5.807720000000000482e+01 1.627974999999999909e+03
3.300000000000000155e-02 4.562380000000000324e-01 2.198620000000000463e+00 5.487199999999999989e+01 1.627030000000000200e+03
3.400000000000000244e-02 4.556550000000000322e-01 1.487205000000000332e+00 5.152445000000000164e+01 1.626039999999999964e+03
3.500000000000000333e-02 4.551000000000000045e-01 7.636949999999993466e-01 4.822109999999999985e+01 1.625049999999999955e+03
3.600000000000000422e-02 4.546044999999999670e-01 1.250700000000000145e-01 4.515435000000000088e+01 1.624105000000000018e+03
3.700000000000000511e-02 4.541920000000000401e-01 -3.521299999999998320e-01 4.249600000000000222e+01 1.623259999999999991e+03
3.799999999999999906e-02 4.538774999999999893e-01 -6.171199999999998909e-01 4.037935000000000230e+01 1.622554999999999836e+03
3.899999999999999994e-02 4.536669999999999869e-01 -6.439150000000002372e-01 3.889095000000000368e+01 1.622014999999999873e+03
4.000000000000000083e-02 4.535629999999999384e-01 -4.261050000000000670e-01 3.807165000000000532e+01 1.621670000000000073e+03
4.100000000000000172e-02 4.535615000000000063e-01 3.040550000000000197e-02 3.792399999999999949e+01 1.621509999999999991e+03
4.200000000000000261e-02 4.536560000000000037e-01 7.145624999999999893e-01 3.842405000000000115e+01 1.621545000000000073e+03
4.300000000000000350e-02 4.538409999999999944e-01 1.615474999999999994e+00 3.953310000000000457e+01 1.621764999999999873e+03
4.400000000000000439e-02 4.541110000000000424e-01 2.724820000000000242e+00 4.120680000000000121e+01 1.622164999999999964e+03
4.499999999999999833e-02 4.544599999999999751e-01 4.036284999999999457e+00 4.340075000000000216e+01 1.622730000000000018e+03
4.599999999999999922e-02 4.548834999999999962e-01 5.542790000000000106e+00 4.607104999999999961e+01 1.623445000000000164e+03
4.700000000000000011e-02 4.553740000000000565e-01 7.233112000000000208e+00 4.917220000000000368e+01 1.624304999999999836e+03
4.800000000000000100e-02 4.559250000000000247e-01 9.088935499999999834e+00 5.265389999999999304e+01 1.625285000000000082e+03
4.900000000000000189e-02 4.565255000000000285e-01 1.108365000000000045e+01 5.645810000000000173e+01 1.626380000000000109e+03
5.000000000000000278e-02 4.571640000000000148e-01 1.318273499999999920e+01 6.051859999999999928e+01 1.627565000000000055e+03
5.100000000000000366e-02 4.578280000000000127e-01 1.534631500000000059e+01 6.476259999999999195e+01 1.628815000000000055e+03
5.200000000000000455e-02 4.585049999999999959e-01 1.753195499999999996e+01 6.911414999999999509e+01 1.630119999999999891e+03
5.300000000000000544e-02 4.591824999999999379e-01 1.969845000000000113e+01 7.349890000000000612e+01 1.631449999999999818e+03
5.399999999999999939e-02 4.598510000000000097e-01 2.180894999999999939e+01 7.784919999999999618e+01 1.632779999999999973e+03
5.500000000000000028e-02 4.605029999999999957e-01 2.383310000000000173e+01 8.210855000000000814e+01 1.634110000000000127e+03
5.600000000000000117e-02 4.611324999999999452e-01 2.574869999999999948e+01 8.623425000000000296e+01 1.635414999999999964e+03
5.700000000000000205e-02 4.617370000000000085e-01 2.754164999999999708e+01 9.019974999999999454e+01 1.636679999999999836e+03
5.800000000000000294e-02 4.623165000000000191e-01 2.920550000000000068e+01 9.399375000000000568e+01 1.637904999999999973e+03
5.900000000000000383e-02 4.628725000000000200e-01 3.074040000000000106e+01 9.761750000000000682e+01 1.639090000000000146e+03
6.000000000000000472e-02 4.634080000000000421e-01 3.215155000000000030e+01 1.010857499999999902e+02 1.640224999999999909e+03
6.099999999999999867e-02 4.639269999999999783e-01 3.344785000000000252e+01 1.044200000000000017e+02 1.641329999999999927e+03
6.199999999999999956e-02 4.644334999999999991e-01 3.464045000000000130e+01 1.076478500000000054e+02 1.642400000000000091e+03
6.300000000000000044e-02 4.649320000000000119e-01 3.574184999999999945e+01 1.107984999999999900e+02 1.643444999999999936e+03
6.400000000000000133e-02 4.654274999999999940e-01 3.676460000000000150e+01 1.139010000000000105e+02 1.644474999999999909e+03
6.500000000000000222e-02 4.659225000000000172e-01 3.772039999999999793e+01 1.169815000000000111e+02 1.645494999999999891e+03
6.600000000000000311e-02 4.664205000000000156e-01 3.861914999999999765e+01 1.200614999999999952e+02 1.646509999999999991e+03
6.700000000000000400e-02 4.669214999999999893e-01 3.946809999999999974e+01 1.231544999999999845e+02 1.647534999999999854e+03
6.800000000000000488e-02 4.674269999999999814e-01 4.027120000000000033e+01 1.262644999999999982e+02 1.648555000000000064e+03
6.900000000000000577e-02 4.679354999999999487e-01 4.102899999999999636e+01 1.293884999999999934e+02 1.649579999999999927e+03
7.000000000000000666e-02 4.684430000000000538e-01 4.173799999999999955e+01 1.325124999999999886e+02 1.650599999999999909e+03
7.100000000000000755e-02 4.689464999999999328e-01 4.239175000000000182e+01 1.356154999999999973e+02 1.651619999999999891e+03
7.200000000000000844e-02 4.694405000000000383e-01 4.298094999999999999e+01 1.386684999999999945e+02 1.652625000000000000e+03
7.300000000000000933e-02 4.699194999999999900e-01 4.349460000000000548e+01 1.416374999999999886e+02 1.653605000000000018e+03
7.399999999999999634e-02 4.703775000000000039e-01 4.392099999999999937e+01 1.444875000000000114e+02 1.654554999999999836e+03
7.499999999999999722e-02 4.708094999999999919e-01 4.424855000000000160e+01 1.471814999999999998e+02 1.655460000000000036e+03
7.599999999999999811e-02 4.712094999999999478e-01 4.446694999999999709e+01 1.496854999999999905e+02 1.656315000000000055e+03
7.699999999999999900e-02 4.715745000000000076e-01 4.456780000000000541e+01 1.519710000000000036e+02 1.657099999999999909e+03
7.799999999999999989e-02 4.719005000000000005e-01 4.454514999999999958e+01 1.540130000000000052e+02 1.657809999999999945e+03
7.900000000000000078e-02 4.721854999999999802e-01 4.439605000000000246e+01 1.557959999999999923e+02 1.658450000000000045e+03
8.000000000000000167e-02 4.724285000000000290e-01 4.412054999999999438e+01 1.573104999999999905e+02 1.659009999999999991e+03
8.100000000000000255e-02 4.726289999999999658e-01 4.372190000000000509e+01 1.585545000000000186e+02 1.659480000000000018e+03
8.200000000000000344e-02 4.727885000000000004e-01 4.320624999999999716e+01 1.595339999999999918e+02 1.659865000000000009e+03
8.300000000000000433e-02 4.729105000000000114e-01 4.258250000000000313e+01 1.602624999999999886e+02 1.660170000000000073e+03
8.400000000000000522e-02 4.729970000000000008e-01 4.186220000000000141e+01 1.607579999999999814e+02 1.660404999999999973e+03
8.500000000000000611e-02 4.730520000000000280e-01 4.105875000000000341e+01 1.610444999999999993e+02 1.660565000000000055e+03
8.600000000000000699e-02 4.730800000000000005e-01 4.018719999999999715e+01 1.611500000000000057e+02 1.660659999999999854e+03
8.700000000000000788e-02 4.730849999999999778e-01 3.926359999999999673e+01 1.611039999999999850e+02 1.660704999999999927e+03
8.800000000000000877e-02 4.730730000000000213e-01 3.830445000000000277e+01 1.609379999999999882e+02 1.660704999999999927e+03
8.899999999999999578e-02 4.730480000000000240e-01 3.732610000000000383e+01 1.606834999999999809e+02 1.660670000000000073e+03
8.999999999999999667e-02 4.730145000000000044e-01 3.634409999999999741e+01 1.603704999999999927e+02 1.660609999999999900e+03
9.099999999999999756e-02 4.729769999999999808e-01 3.537254999999999683e+01 1.600264999999999986e+02 1.660525000000000091e+03
9.199999999999999845e-02 4.729379999999999695e-01 3.442365000000000208e+01 1.596750000000000114e+02 1.660434999999999945e+03
9.299999999999999933e-02 4.729014999999999747e-01 3.350730000000000075e+01 1.593355000000000246e+02 1.660345000000000027e+03
9.400000000000000022e-02 4.728674999999999962e-01 3.263054999999999950e+01 1.590229999999999961e+02 1.660250000000000000e+03
9.500000000000000111e-02 4.728394999999999682e-01 3.179759999999999920e+01 1.587454999999999927e+02 1.660159999999999854e+03
9.600000000000000200e-02 4.728160000000000140e-01 3.100995000000000346e+01 1.585070000000000050e+02 1.660085000000000036e+03
9.700000000000000289e-02 4.727964999999999529e-01 3.026599999999999824e+01 1.583059999999999832e+02 1.660009999999999991e+03
9.800000000000000377e-02 4.727800000000000336e-01 2.956194999999999951e+01 1.581340000000000146e+02 1.659949999999999818e+03
9.900000000000000466e-02 4.727649999999999908e-01 2.889184999999999803e+01 1.579809999999999945e+02 1.659889999999999873e+03
1.000000000000000056e-01 4.727480000000000571e-01 2.824810000000000088e+01 1.578330000000000268e+02 1.659840000000000146e+03
1.010000000000000064e-01 4.727279999999999816e-01 2.762199999999999989e+01 1.576734999999999900e+02 1.659779999999999973e+03
1.020000000000000073e-01 4.727009999999999823e-01 2.700419999999999732e+01 1.574855000000000018e+02 1.659715000000000146e+03
1.030000000000000082e-01 4.726650000000000018e-01 2.638554999999999851e+01 1.572509999999999764e+02 1.659639999999999873e+03
1.040000000000000091e-01 4.726175000000000237e-01 2.575724999999999909e+01 1.569550000000000125e+02 1.659545000000000073e+03
1.050000000000000100e-01 4.725559999999999761e-01 2.511149999999999949e+01 1.565819999999999936e+02 1.659430000000000064e+03
1.059999999999999970e-01 4.724805000000000255e-01 2.444190000000000040e+01 1.561214999999999975e+02 1.659295000000000073e+03
1.069999999999999979e-01 4.723884999999999890e-01 2.374380000000000024e+01 1.555654999999999859e+02 1.659125000000000000e+03
1.079999999999999988e-01 4.722810000000000064e-01 2.301454999999999984e+01 1.549094999999999800e+02 1.658924999999999955e+03
1.089999999999999997e-01 4.721569999999999934e-01 2.225365000000000038e+01 1.541544999999999845e+02 1.658700000000000045e+03
1.100000000000000006e-01 4.720194999999999808e-01 2.146294999999999931e+01 1.533050000000000068e+02 1.658449999999999818e+03
1.110000000000000014e-01 4.718680000000000097e-01 2.064620000000000033e+01 1.523704999999999927e+02 1.658164999999999964e+03
1.120000000000000023e-01 4.717064999999999730e-01 1.980949999999999989e+01 1.513634999999999877e+02 1.657865000000000009e+03
1.130000000000000032e-01 4.715365000000000251e-01 1.896045000000000158e+01 1.503000000000000114e+02 1.657535000000000082e+03
1.140000000000000041e-01 4.713620000000000587e-01 1.810804999999999865e+01 1.491995000000000005e+02 1.657194999999999936e+03
1.150000000000000050e-01 4.711870000000000225e-01 1.726229999999999976e+01 1.480815000000000055e+02 1.656849999999999909e+03
1.160000000000000059e-01 4.710125000000000006e-01 1.643384999999999962e+01 1.469675000000000011e+02 1.656500000000000000e+03
1.170000000000000068e-01 4.708440000000000403e-01 1.563315000000000055e+01 1.458795000000000073e+02 1.656154999999999973e+03
1.180000000000000077e-01 4.706839999999999913e-01 1.487019000000000091e+01 1.448375000000000057e+02 1.655819999999999936e+03
1.190000000000000085e-01 4.705350000000000366e-01 1.415418000000000021e+01 1.438600000000000136e+02 1.655500000000000000e+03
1.200000000000000094e-01 4.703990000000000116e-01 1.349282000000000181e+01 1.429619999999999891e+02 1.655200000000000045e+03
1.209999999999999964e-01 4.702784999999999882e-01 1.289234499999999883e+01 1.421555000000000177e+02 1.654929999999999836e+03
1.219999999999999973e-01 4.701730000000000076e-01 1.235685999999999929e+01 1.414495000000000005e+02 1.654679999999999836e+03
1.229999999999999982e-01 4.700845000000000162e-01 1.188868499999999884e+01 1.408475000000000250e+02 1.654465000000000146e+03
1.239999999999999991e-01 4.700115000000000265e-01 1.148800500000000113e+01 1.403495000000000061e+02 1.654284999999999854e+03
1.250000000000000000e-01 4.699550000000000116e-01 1.115304000000000073e+01 1.399524999999999864e+02 1.654130000000000109e+03
1.260000000000000009e-01 4.699109999999999676e-01 1.088032000000000110e+01 1.396494999999999891e+02 1.654009999999999991e+03
1.270000000000000018e-01 4.698799999999999644e-01 1.066489499999999957e+01 1.394300000000000068e+02 1.653909999999999854e+03
1.280000000000000027e-01 4.698585000000000123e-01 1.050070499999999996e+01 1.392824999999999989e+02 1.653839999999999918e+03
1.290000000000000036e-01 4.698455000000000270e-01 1.038086500000000001e+01 1.391935000000000002e+02 1.653785000000000082e+03
1.300000000000000044e-01 4.698390000000000066e-01 1.029799000000000042e+01 1.391485000000000127e+02 1.653750000000000000e+03
1.310000000000000053e-01 4.698354999999999615e-01 1.024474000000000018e+01 1.391345000000000027e+02 1.653724999999999909e+03
1.320000000000000062e-01 4.698339999999999739e-01 1.021387000000000000e+01 1.391380000000000052e+02 1.653704999999999927e+03
1.330000000000000071e-01 4.698320000000000274e-01 1.019865000000000066e+01 1.391465000000000032e+02 1.653690000000000055e+03
1.340000000000000080e-01 4.698299999999999699e-01 1.019300499999999943e+01 1.391514999999999986e+02 1.653684999999999945e+03
1.350000000000000089e-01 4.698249999999999371e-01 1.019164999999999921e+01 1.391440000000000055e+02 1.653675000000000182e+03
1.360000000000000098e-01 4.698164999999999702e-01 1.019017499999999998e+01 1.391179999999999950e+02 1.653660000000000082e+03
1.370000000000000107e-01 4.698049999999999726e-01 1.018524500000000010e+01 1.390695000000000050e+02 1.653639999999999873e+03
1.380000000000000115e-01 4.697900000000000409e-01 1.017413999999999952e+01 1.389979999999999905e+02 1.653615000000000009e+03
1.390000000000000124e-01 4.697704999999999798e-01 1.015529000000000082e+01 1.389019999999999868e+02 1.653585000000000036e+03
1.400000000000000133e-01 4.697485000000000133e-01 1.012765500000000074e+01 1.387830000000000155e+02 1.653545000000000073e+03
1.410000000000000142e-01 4.697234999999999605e-01 1.009107000000000021e+01 1.386435000000000173e+02 1.653500000000000000e+03
1.420000000000000151e-01 4.696954999999999325e-01 1.004579999999999984e+01 1.384875000000000114e+02 1.653454999999999927e+03
1.430000000000000160e-01 4.696670000000000567e-01 9.992604999999999293e+00 1.383174999999999955e+02 1.653405000000000200e+03
1.440000000000000169e-01 4.696365000000000123e-01 9.932705000000000339e+00 1.381384999999999934e+02 1.653349999999999909e+03
1.450000000000000178e-01 4.696059999999999679e-01 9.867369999999999308e+00 1.379549999999999841e+02 1.653289999999999964e+03
1.459999999999999909e-01 4.695754999999999790e-01 9.798194999999999766e+00 1.377699999999999818e+02 1.653235000000000127e+03
1.469999999999999918e-01 4.695460000000000189e-01 9.726665000000000560e+00 1.375879999999999939e+02 1.653174999999999955e+03
1.479999999999999927e-01 4.695175000000000320e-01 9.654270000000000351e+00 1.374114999999999895e+02 1.653119999999999891e+03
1.489999999999999936e-01 4.694904999999999773e-01 9.582374999999998977e+00 1.372429999999999950e+02 1.653070000000000164e+03
1.499999999999999944e-01 4.694654999999999800e-01 9.512195000000000178e+00 1.370844999999999914e+02 1.653014999999999873e+03
1.509999999999999953e-01 4.694420000000000259e-01 9.444525000000000503e+00 1.369375000000000000e+02 1.652970000000000027e+03
1.519999999999999962e-01 4.694209999999999772e-01 9.380085000000001116e+00 1.368009999999999877e+02 1.652920000000000073e+03
1.529999999999999971e-01 4.694009999999999572e-01 9.319275000000001086e+00 1.366759999999999877e+02 1.652884999999999991e+03
1.539999999999999980e-01 4.693829999999999947e-01 9.262190000000000367e+00 1.365604999999999905e+02 1.652844999999999800e+03
1.549999999999999989e-01 4.693660000000000054e-01 9.208719999999999573e+00 1.364535000000000196e+02 1.652809999999999945e+03
1.559999999999999998e-01 4.693505000000000038e-01 9.158715000000000828e+00 1.363534999999999968e+02 1.652775000000000091e+03
1.570000000000000007e-01 4.693355000000000166e-01 9.111855000000000260e+00 1.362590000000000146e+02 1.652740000000000009e+03
1.580000000000000016e-01 4.693204999999999738e-01 9.067685000000000883e+00 1.361680000000000064e+02 1.652710000000000036e+03
1.590000000000000024e-01 4.693065000000000153e-01 9.025980000000000558e+00 1.360780000000000030e+02 1.652684999999999945e+03
