# t [s], A [cm^2], U [cm/s], P [cPa], c [cm/s]
1.000000000000000021e-03 6.601559999999999651e-01 4.551050000000000928e-03 1.019260000000000019e+02 1.715345000000000027e+03
2.000000000000000042e-03 6.601515000000000022e-01 1.001575000000000035e-02 1.019035000000000082e+02 1.715340000000000146e+03
3.000000000000000062e-03 6.602269999999998973e-01 1.505590500000000276e-01 1.020670000000000073e+02 1.715369999999999891e+03
4.000000000000000083e-03 6.602544999999999664e-01 2.206159999999999788e-01 1.021529999999999916e+02 1.715389999999999873e+03
5.000000000000000104e-03 6.601920000000000011e-01 1.316315000000000124e-01 1.019664999999999964e+02 1.715359999999999900e+03
6.000000000000000125e-03 6.601179999999999826e-01 9.533000000000013685e-03 1.016310000000000002e+02 1.715295000000000073e+03
7.000000000000000146e-03 6.600264999999999604e-01 -1.558100000000000041e-01 1.011604999999999990e+02 1.715204999999999927e+03
8.000000000000000167e-03 6.598604999999999610e-01 -4.765500000000000291e-01 1.003977500000000020e+02 1.715055000000000064e+03
9.000000000000001055e-03 6.596109999999999474e-01 -9.667549999999999200e-01 9.926654999999999518e+01 1.714840000000000146e+03
1.000000000000000194e-02 6.592624999999999735e-01 -1.640870000000000051e+00 9.769200000000000728e+01 1.714535000000000082e+03
1.099999999999999936e-02 6.587959999999999372e-01 -2.510434999999999750e+00 9.559834999999999638e+01 1.714110000000000127e+03
1.200000000000000025e-02 6.582474999999999854e-01 -3.479935000000000223e+00 9.305740000000000123e+01 1.713590000000000146e+03
1.300000000000000114e-02 6.577049999999999841e-01 -4.344834999999999781e+00 9.033804999999999552e+01 1.713014999999999873e+03
1.400000000000000203e-02 6.572540000000000049e-01 -4.902208499999999525e+00 8.777894999999999470e+01 1.712444999999999936e+03
1.499999999999999944e-02 6.569294999999999440e-01 -5.051918500000000201e+00 8.562115000000000009e+01 1.711934999999999945e+03
1.600000000000000033e-02 6.567089999999999872e-01 -4.821100000000000385e+00 8.392374999999999829e+01 1.711494999999999891e+03
1.700000000000000122e-02 6.565334999999999921e-01 -4.326649999999999885e+00 8.257720000000000482e+01 1.711119999999999891e+03
1.800000000000000211e-02 6.563425000000000509e-01 -3.712759999999999838e+00 8.137864999999999327e+01 1.710775000000000091e+03
1.900000000000000300e-02 6.560930000000000373e-01 -3.091921999999999837e+00 8.012815000000000509e+01 1.710425000000000182e+03
2.000000000000000042e-02 6.557760000000000256e-01 -2.509901999999999855e+00 7.870615000000000805e+01 1.710049999999999955e+03
2.100000000000000130e-02 6.554119999999999946e-01 -1.947110000000000340e+00 7.710210000000000719e+01 1.709644999999999982e+03
2.200000000000000219e-02 6.550350000000000339e-01 -1.351979999999999960e+00 7.538724999999999454e+01 1.709215000000000146e+03
2.299999999999999961e-02 6.546695000000000153e-01 -6.854000000000000092e-01 7.365210000000000434e+01 1.708785000000000082e+03
2.400000000000000050e-02 6.543200000000000127e-01 4.666500000000040060e-02 7.194575000000000387e+01 1.708349999999999909e+03
2.500000000000000139e-02 6.539669999999999650e-01 7.835650000000002890e-01 7.024035000000000650e+01 1.707914999999999964e+03
2.600000000000000228e-02 6.535729999999999595e-01 1.422499999999999876e+00 6.843040000000000589e+01 1.707454999999999927e+03
2.700000000000000316e-02 6.530949999999999811e-01 1.845609999999999751e+00 6.636135000000000161e+01 1.706949999999999818e+03
2.800000000000000058e-02 6.525000000000000799e-01 1.952684999999999782e+00 6.387720000000000198e+01 1.706369999999999891e+03
2.900000000000000147e-02 6.517744999999999234e-01 1.689915000000000500e+00 6.087250000000000227e+01 1.705684999999999945e+03
3.000000000000000236e-02 6.509294999999999387e-01 1.066164999999999807e+00 5.733230000000000359e+01 1.704904999999999973e+03
3.099999999999999978e-02 6.500034999999999563e-01 1.512999999999999901e-01 5.334734999999999872e+01 1.704019999999999982e+03
3.200000000000000067e-02 6.490484999999999172e-01 -9.414349999999993557e-01 4.910070000000000334e+01 1.703079999999999927e+03
3.300000000000000155e-02 6.481219999999999759e-01 -2.081269999999999953e+00 4.483230000000000359e+01 1.702125000000000000e+03
3.400000000000000244e-02 6.472780000000000200e-01 -3.145169999999999799e+00 4.079565000000000197e+01 1.701195000000000164e+03
3.500000000000000333e-02 6.465570000000000483e-01 -4.034919999999999618e+00 3.721925000000000239e+01 1.700349999999999909e+03
3.600000000000000422e-02 6.459855000000001013e-01 -4.685064999999999813e+00 3.427955000000000041e+01 1.699619999999999891e+03
3.700000000000000511e-02 6.455760000000000387e-01 -5.061467500000000008e+00 3.208950000000000102e+01 1.699045000000000073e+03
3.799999999999999906e-02 6.453299999999999592e-01 -5.154490000000000016e+00 3.069989999999999952e+01 1.698634999999999991e+03
3.899999999999999994e-02 6.452404999999999946e-01 -4.969570000000000043e+00 3.011094999999999899e+01 1.698404999999999973e+03
4.000000000000000083e-02 6.452999999999999847e-01 -4.518299999999999983e+00 3.028824999999999790e+01 1.698345000000000027e+03
4.100000000000000172e-02 6.454969999999999875e-01 -3.812536000000000147e+00 3.117900000000000205e+01 1.698445000000000164e+03
4.200000000000000261e-02 6.458215000000000483e-01 -2.862464999999999815e+00 3.272265000000000157e+01 1.698704999999999927e+03
4.300000000000000350e-02 6.462630000000000319e-01 -1.678305000000000380e+00 3.485694999999999766e+01 1.699110000000000127e+03
4.400000000000000439e-02 6.468110000000000248e-01 -2.741349999999997955e-01 3.751754999999999995e+01 1.699634999999999991e+03
4.499999999999999833e-02 6.474515000000000686e-01 1.328279999999999905e+00 4.063499999999999801e+01 1.700279999999999973e+03
4.599999999999999922e-02 6.481669999999999376e-01 3.097140000000000448e+00 4.413125000000000142e+01 1.701014999999999873e+03
4.700000000000000011e-02 6.489385000000000847e-01 4.990535000000000387e+00 4.791819999999999879e+01 1.701829999999999927e+03
4.800000000000000100e-02 6.497444999999999471e-01 6.959059999999999135e+00 5.189924999999999500e+01 1.702704999999999927e+03
4.900000000000000189e-02 6.505635000000000723e-01 8.949529550000001166e+00 5.597350000000000136e+01 1.703615000000000009e+03
5.000000000000000278e-02 6.513740000000000085e-01 1.090980499999999864e+01 6.004229999999999734e+01 1.704534999999999854e+03
5.100000000000000366e-02 6.521595000000000031e-01 1.279311500000000024e+01 6.401624999999999943e+01 1.705454999999999927e+03
5.200000000000000455e-02 6.529054999999999165e-01 1.456148499999999935e+01 6.782120000000000459e+01 1.706349999999999909e+03
5.300000000000000544e-02 6.536049999999999915e-01 1.618750500000000159e+01 7.140335000000000321e+01 1.707204999999999927e+03
5.399999999999999939e-02 6.542529999999999735e-01 1.765520000000000067e+01 7.473080000000000211e+01 1.708009999999999991e+03
5.500000000000000028e-02 6.548499999999999321e-01 1.895915000000000106e+01 7.779390000000000782e+01 1.708769999999999982e+03
5.600000000000000117e-02 6.554009999999999003e-01 2.010314999999999941e+01 8.060304999999999609e+01 1.709474999999999909e+03
5.700000000000000205e-02 6.559125000000000094e-01 2.109830000000000183e+01 8.318529999999999802e+01 1.710130000000000109e+03
5.800000000000000294e-02 6.563924999999999343e-01 2.196110000000000184e+01 8.557984999999999332e+01 1.710744999999999891e+03
5.900000000000000383e-02 6.568515000000000326e-01 2.271174999999999855e+01 8.783400000000000318e+01 1.711324999999999818e+03
6.000000000000000472e-02 6.572999999999999954e-01 2.337229999999999919e+01 8.999830000000000041e+01 1.711880000000000109e+03
6.099999999999999867e-02 6.577459999999999418e-01 2.396490000000000009e+01 9.212255000000000393e+01 1.712424999999999955e+03
6.199999999999999956e-02 6.581995000000000484e-01 2.451019999999999754e+01 9.425175000000000125e+01 1.712965000000000146e+03
6.300000000000000044e-02 6.586659999999999737e-01 2.502615000000000123e+01 9.642255000000000109e+01 1.713509999999999991e+03
6.400000000000000133e-02 6.591489999999999849e-01 2.552604999999999791e+01 9.866049999999999898e+01 1.714059999999999945e+03
6.500000000000000222e-02 6.596509999999999874e-01 2.601829999999999998e+01 1.009779000000000053e+02 1.714625000000000000e+03
6.600000000000000311e-02 6.601684999999999359e-01 2.650534999999999997e+01 1.033719999999999999e+02 1.715210000000000036e+03
6.700000000000000400e-02 6.606974999999999376e-01 2.698385000000000034e+01 1.058275000000000006e+02 1.715809999999999945e+03
6.800000000000000488e-02 6.612309999999999022e-01 2.744545000000000101e+01 1.083160000000000025e+02 1.716414999999999964e+03
6.900000000000000577e-02 6.617604999999999738e-01 2.787780000000000058e+01 1.107980000000000018e+02 1.717019999999999982e+03
7.000000000000000666e-02 6.622755000000000170e-01 2.826569999999999894e+01 1.132279999999999944e+02 1.717610000000000127e+03
7.100000000000000755e-02 6.627669999999999950e-01 2.859275000000000233e+01 1.155575000000000045e+02 1.718184999999999945e+03
7.200000000000000844e-02 6.632240000000000357e-01 2.884280000000000044e+01 1.177369999999999948e+02 1.718724999999999909e+03
7.300000000000000933e-02 6.636389999999999789e-01 2.900110000000000099e+01 1.197229999999999990e+02 1.719230000000000018e+03
7.399999999999999634e-02 6.640034999999999688e-01 2.905535000000000068e+01 1.214765000000000015e+02 1.719684999999999945e+03
7.499999999999999722e-02 6.643120000000000136e-01 2.899660000000000082e+01 1.229675000000000011e+02 1.720079999999999927e+03
7.599999999999999811e-02 6.645630000000000148e-01 2.881949999999999790e+01 1.241754999999999995e+02 1.720414999999999964e+03
7.699999999999999900e-02 6.647530000000000383e-01 2.852295000000000158e+01 1.250919999999999987e+02 1.720680000000000064e+03
7.799999999999999989e-02 6.648844999999999894e-01 2.810985000000000156e+01 1.257169999999999987e+02 1.720884999999999991e+03
7.900000000000000078e-02 6.649599999999999955e-01 2.758704999999999785e+01 1.260619999999999976e+02 1.721009999999999991e+03
8.000000000000000167e-02 6.649834999999999496e-01 2.696515000000000128e+01 1.261479999999999961e+02 1.721085000000000036e+03
8.100000000000000255e-02 6.649614999999999831e-01 2.625780000000000314e+01 1.260014999999999930e+02 1.721099999999999909e+03
8.200000000000000344e-02 6.649009999999999643e-01 2.548110000000000142e+01 1.256580000000000155e+02 1.721059999999999945e+03
8.300000000000000433e-02 6.648104999999999709e-01 2.465310000000000201e+01 1.251555000000000035e+02 1.720985000000000127e+03
8.400000000000000522e-02 6.646970000000000933e-01 2.379260000000000019e+01 1.245354999999999990e+02 1.720869999999999891e+03
8.500000000000000611e-02 6.645695000000000352e-01 2.291870000000000118e+01 1.238389999999999986e+02 1.720730000000000018e+03
8.600000000000000699e-02 6.644364999999999855e-01 2.204930000000000234e+01 1.231055000000000064e+02 1.720579999999999927e+03
8.700000000000000788e-02 6.643034999999999357e-01 2.120090000000000074e+01 1.223714999999999975e+02 1.720425000000000182e+03
8.800000000000000877e-02 6.641779999999999351e-01 2.038724999999999810e+01 1.216680000000000064e+02 1.720259999999999991e+03
8.899999999999999578e-02 6.640634999999999177e-01 1.961925000000000097e+01 1.210204999999999984e+02 1.720115000000000009e+03
8.999999999999999667e-02 6.639630000000000809e-01 1.890425000000000111e+01 1.204459999999999980e+02 1.719974999999999909e+03
9.099999999999999756e-02 6.638785000000000380e-01 1.824589999999999890e+01 1.199544999999999959e+02 1.719849999999999909e+03
9.199999999999999845e-02 6.638089999999999824e-01 1.764434999999999931e+01 1.195490000000000066e+02 1.719744999999999891e+03
9.299999999999999933e-02 6.637545000000000250e-01 1.709600000000000009e+01 1.192240000000000038e+02 1.719655000000000200e+03
9.400000000000000022e-02 6.637115000000000098e-01 1.659469999999999956e+01 1.189679999999999893e+02 1.719575000000000045e+03
9.500000000000000111e-02 6.636755000000000848e-01 1.613145000000000095e+01 1.187644999999999982e+02 1.719514999999999873e+03
9.600000000000000200e-02 6.636435000000000528e-01 1.569560000000000066e+01 1.185930000000000035e+02 1.719465000000000146e+03
9.700000000000000289e-02 6.636104999999999920e-01 1.527544999999999931e+01 1.184300000000000068e+02 1.719414999999999964e+03
9.800000000000000377e-02 6.635710000000000219e-01 1.485890000000000022e+01 1.182520000000000095e+02 1.719365000000000009e+03
9.900000000000000466e-02 6.635215000000000973e-01 1.443410000000000082e+01 1.180364999999999895e+02 1.719305000000000064e+03
1.000000000000000056e-01 6.634580000000001032e-01 1.399050000000000082e+01 1.177614999999999981e+02 1.719234999999999900e+03
1.010000000000000064e-01 6.633765000000000356e-01 1.351905000000000001e+01 1.174104999999999990e+02 1.719154999999999973e+03
1.020000000000000073e-01 6.632759999999999767e-01 1.301309000000000182e+01 1.169705000000000013e+02 1.719054999999999836e+03
1.030000000000000082e-01 6.631549999999999390e-01 1.246848999999999918e+01 1.164344999999999999e+02 1.718934999999999945e+03
1.040000000000000091e-01 6.630139999999999922e-01 1.188408000000000087e+01 1.158004999999999995e+02 1.718795000000000073e+03
1.050000000000000100e-01 6.628545000000000131e-01 1.126154999999999973e+01 1.150734999999999957e+02 1.718630000000000109e+03
1.059999999999999970e-01 6.626790000000000180e-01 1.060570500000000038e+01 1.142639999999999958e+02 1.718449999999999818e+03
1.069999999999999979e-01 6.624909999999999410e-01 9.923804999999999765e+00 1.133889999999999958e+02 1.718250000000000000e+03
1.079999999999999988e-01 6.622965000000000657e-01 9.225514999999999688e+00 1.124679999999999893e+02 1.718045000000000073e+03
1.089999999999999997e-01 6.620995000000000630e-01 8.522254999999999470e+00 1.115260000000000105e+02 1.717829999999999927e+03
1.100000000000000006e-01 6.619055000000000355e-01 7.826565000000000438e+00 1.105885000000000105e+02 1.717610000000000127e+03
1.110000000000000014e-01 6.617204999999999337e-01 7.151444999999999830e+00 1.096829999999999927e+02 1.717394999999999982e+03
1.120000000000000023e-01 6.615500000000000824e-01 6.509850000000000136e+00 1.088365000000000009e+02 1.717190000000000055e+03
1.130000000000000032e-01 6.613985000000000003e-01 5.913660000000000139e+00 1.080734999999999957e+02 1.717005000000000109e+03
1.140000000000000041e-01 6.612694999999999546e-01 5.373359999999999914e+00 1.074149999999999920e+02 1.716840000000000146e+03
1.150000000000000050e-01 6.611675000000000191e-01 4.897405000000000008e+00 1.068785000000000025e+02 1.716695000000000164e+03
1.160000000000000059e-01 6.610929999999999307e-01 4.491835000000000022e+00 1.064745000000000061e+02 1.716585000000000036e+03
1.170000000000000068e-01 6.610475000000000101e-01 4.160034999999999705e+00 1.062109999999999985e+02 1.716505000000000109e+03
1.180000000000000077e-01 6.610309999999999242e-01 3.902664999999999829e+00 1.060870000000000033e+02 1.716454999999999927e+03
1.190000000000000085e-01 6.610405000000000308e-01 3.717734999999999790e+00 1.060974999999999966e+02 1.716434999999999945e+03
1.200000000000000094e-01 6.610754999999999271e-01 3.600814999999999877e+00 1.062319999999999993e+02 1.716444999999999936e+03
1.209999999999999964e-01 6.611305000000000653e-01 3.545350000000000001e+00 1.064759999999999991e+02 1.716480000000000018e+03
1.219999999999999973e-01 6.612029999999999852e-01 3.543129999999999669e+00 1.068114999999999952e+02 1.716535000000000082e+03
1.229999999999999982e-01 6.612890000000000157e-01 3.584724999999999717e+00 1.072175000000000011e+02 1.716615000000000009e+03
1.239999999999999991e-01 6.613824999999999843e-01 3.659964999999999691e+00 1.076734999999999900e+02 1.716704999999999927e+03
1.250000000000000000e-01 6.614809999999999857e-01 3.758464999999999723e+00 1.081564999999999941e+02 1.716805000000000064e+03
1.260000000000000009e-01 6.615790000000000282e-01 3.870029999999999859e+00 1.086469999999999914e+02 1.716914999999999964e+03
1.270000000000000018e-01 6.616735000000000255e-01 3.985094999999999832e+00 1.091250000000000000e+02 1.717015000000000100e+03
1.280000000000000027e-01 6.617615000000000025e-01 4.094994999999999941e+00 1.095749999999999886e+02 1.717119999999999891e+03
1.290000000000000036e-01 6.618399999999999839e-01 4.192280000000000229e+00 1.099830000000000041e+02 1.717215000000000146e+03
1.300000000000000044e-01 6.619074999999999820e-01 4.270855000000000068e+00 1.103375000000000057e+02 1.717299999999999955e+03
1.310000000000000053e-01 6.619625000000000092e-01 4.326134999999999842e+00 1.106330000000000098e+02 1.717369999999999891e+03
1.320000000000000062e-01 6.620049999999999546e-01 4.355039999999999800e+00 1.108644999999999925e+02 1.717434999999999945e+03
1.330000000000000071e-01 6.620344999999999702e-01 4.355990000000000251e+00 1.110310000000000059e+02 1.717480000000000018e+03
1.340000000000000080e-01 6.620519999999999738e-01 4.328854999999999897e+00 1.111349999999999909e+02 1.717514999999999873e+03
1.350000000000000089e-01 6.620580000000000354e-01 4.274774999999999991e+00 1.111809999999999974e+02 1.717534999999999854e+03
1.360000000000000098e-01 6.620550000000000601e-01 4.196039999999999992e+00 1.111754999999999995e+02 1.717539999999999964e+03
1.370000000000000107e-01 6.620429999999999371e-01 4.095839999999999925e+00 1.111255000000000024e+02 1.717545000000000073e+03
1.380000000000000115e-01 6.620255000000000445e-01 3.978069999999999773e+00 1.110400000000000063e+02 1.717529999999999973e+03
1.390000000000000124e-01 6.620030000000000081e-01 3.847069999999999990e+00 1.109284999999999997e+02 1.717509999999999991e+03
1.400000000000000133e-01 6.619785000000000252e-01 3.707380000000000120e+00 1.108004999999999995e+02 1.717490000000000009e+03
1.410000000000000142e-01 6.619530000000000136e-01 3.563485000000000014e+00 1.106640000000000015e+02 1.717465000000000146e+03
1.420000000000000151e-01 6.619280000000000719e-01 3.419620000000000104e+00 1.105270000000000010e+02 1.717434999999999945e+03
1.430000000000000160e-01 6.619049999999999656e-01 3.279510000000000147e+00 1.103960000000000008e+02 1.717405000000000200e+03
1.440000000000000169e-01 6.618844999999999867e-01 3.146284999999999776e+00 1.102754999999999939e+02 1.717380000000000109e+03
1.450000000000000178e-01 6.618669999999999831e-01 3.022314999999999863e+00 1.101690000000000111e+02 1.717355000000000018e+03
1.459999999999999909e-01 6.618524999999999547e-01 2.909175000000000288e+00 1.100775000000000006e+02 1.717335000000000036e+03
1.469999999999999918e-01 6.618410000000000126e-01 2.807630000000000070e+00 1.100005000000000024e+02 1.717315000000000055e+03
1.479999999999999927e-01 6.618319999999999759e-01 2.717694999999999972e+00 1.099375000000000000e+02 1.717300000000000182e+03
1.489999999999999936e-01 6.618245000000000378e-01 2.638700000000000045e+00 1.098839999999999861e+02 1.717285000000000082e+03
1.499999999999999944e-01 6.618174999999999475e-01 2.569459999999999855e+00 1.098359999999999985e+02 1.717275000000000091e+03
1.509999999999999953e-01 6.618104999999999682e-01 2.508379999999999832e+00 1.097890000000000015e+02 1.717264999999999873e+03
1.519999999999999962e-01 6.618020000000000014e-01 2.453644999999999854e+00 1.097385000000000019e+02 1.717244999999999891e+03
1.529999999999999971e-01 6.617914999999999770e-01 2.403360000000000163e+00 1.096794999999999902e+02 1.717235000000000127e+03
1.539999999999999980e-01 6.617779999999999774e-01 2.355710000000000193e+00 1.096080000000000041e+02 1.717215000000000146e+03
1.549999999999999989e-01 6.617595000000000560e-01 2.309060000000000112e+00 1.095200000000000102e+02 1.717195000000000164e+03
1.559999999999999998e-01 6.617374999999999785e-01 2.262080000000000091e+00 1.094130000000000109e+02 1.717170000000000073e+03
1.570000000000000007e-01 6.617115000000000080e-01 2.213784999999999670e+00 1.092860000000000014e+02 1.717139999999999873e+03
1.580000000000000016e-01 6.616805000000000048e-01 2.163599999999999746e+00 1.091380000000000052e+02 1.717105000000000018e+03
1.590000000000000024e-01 6.616459999999999564e-01 2.111360000000000348e+00 1.089705000000000013e+02 1.717069999999999936e+03
