# t [s], A [cm^2], U [cm/s], P [cPa], c [cm/s]
1.000000000000000021e-03 1.514225000000000154e-01 3.350509999999999877e-01 9.886039999999999850e+01 1.983465000000000146e+03
2.000000000000000042e-03 1.513880000000000225e-01 1.890733500000000067e+00 9.560300000000000864e+01 1.983139999999999873e+03
3.000000000000000062e-03 1.512835000000000152e-01 3.792540999999999496e+00 9.123744999999999550e+01 1.982195000000000164e+03
4.000000000000000083e-03 1.511334999999999762e-01 5.912576000000000498e+00 8.648019999999999641e+01 1.980875000000000000e+03
5.000000000000000104e-03 1.509675000000000045e-01 8.186189999999999856e+00 8.215425000000000466e+01 1.979410000000000082e+03
6.000000000000000125e-03 1.508029999999999926e-01 1.046440499999999929e+01 7.857290000000000418e+01 1.977980000000000018e+03
7.000000000000000146e-03 1.506470000000000031e-01 1.255442000000000036e+01 7.555530000000000257e+01 1.976644999999999982e+03
8.000000000000000167e-03 1.505015000000000103e-01 1.435704500000000117e+01 7.285429999999999495e+01 1.975425000000000182e+03
9.000000000000001055e-03 1.503700000000000037e-01 1.589039999999999964e+01 7.046044999999999447e+01 1.974329999999999927e+03
1.000000000000000194e-02 1.502560000000000007e-01 1.719059999999999988e+01 6.844844999999999402e+01 1.973389999999999873e+03
1.099999999999999936e-02 1.501589999999999869e-01 1.827205000000000013e+01 6.681425000000000125e+01 1.972599999999999909e+03
1.200000000000000025e-02 1.500789999999999902e-01 1.914464999999999861e+01 6.550284999999999513e+01 1.971965000000000146e+03
1.300000000000000114e-02 1.500134999999999941e-01 1.981499999999999773e+01 6.443880000000000052e+01 1.971440000000000055e+03
1.400000000000000203e-02 1.499590000000000090e-01 2.028944999999999865e+01 6.352875000000000227e+01 1.971019999999999982e+03
1.499999999999999944e-02 1.499129999999999907e-01 2.060094999999999743e+01 6.272465000000000401e+01 1.970664999999999964e+03
1.600000000000000033e-02 1.498764999999999958e-01 2.083404999999999774e+01 6.211724999999999852e+01 1.970384999999999991e+03
1.700000000000000122e-02 1.498535000000000006e-01 2.110964999999999847e+01 6.194324999999999903e+01 1.970219999999999800e+03
1.800000000000000211e-02 1.498504999999999976e-01 2.153340000000000032e+01 6.246744999999999948e+01 1.970210000000000036e+03
1.900000000000000300e-02 1.498720000000000052e-01 2.214444999999999908e+01 6.381879999999999598e+01 1.970389999999999873e+03
2.000000000000000042e-02 1.499174999999999813e-01 2.289525000000000077e+01 6.588700000000000045e+01 1.970764999999999873e+03
2.100000000000000130e-02 1.499814999999999898e-01 2.367085000000000150e+01 6.833525000000000205e+01 1.971289999999999964e+03
2.200000000000000219e-02 1.500525000000000053e-01 2.433254999999999768e+01 7.070904999999999063e+01 1.971885000000000218e+03
2.299999999999999961e-02 1.501195000000000168e-01 2.476539999999999964e+01 7.258435000000000059e+01 1.972449999999999818e+03
2.400000000000000050e-02 1.501730000000000009e-01 2.491100000000000136e+01 7.369155000000000655e+01 1.972909999999999854e+03
2.500000000000000139e-02 1.502069999999999794e-01 2.477765000000000128e+01 7.397540000000000759e+01 1.973210000000000036e+03
2.600000000000000228e-02 1.502209999999999934e-01 2.442654999999999887e+01 7.357829999999999870e+01 1.973345000000000027e+03
2.700000000000000316e-02 1.502189999999999914e-01 2.394409999999999883e+01 7.276265000000000782e+01 1.973344999999999800e+03
2.800000000000000058e-02 1.502060000000000062e-01 2.340995000000000203e+01 7.180809999999999604e+01 1.973250000000000000e+03
2.900000000000000147e-02 1.501885000000000026e-01 2.287449999999999761e+01 7.092220000000000368e+01 1.973115000000000009e+03
3.000000000000000236e-02 1.501699999999999979e-01 2.235050000000000026e+01 7.019195000000000562e+01 1.972965000000000146e+03
3.099999999999999978e-02 1.501524999999999943e-01 2.181905000000000072e+01 6.958520000000000039e+01 1.972820000000000164e+03
3.200000000000000067e-02 1.501345000000000041e-01 2.124580000000000268e+01 6.899180000000001201e+01 1.972670000000000073e+03
3.300000000000000155e-02 1.501135000000000108e-01 2.060074999999999790e+01 6.828520000000000323e+01 1.972505000000000109e+03
3.400000000000000244e-02 1.500874999999999848e-01 1.987444999999999951e+01 6.738259999999999650e+01 1.972299999999999955e+03
3.500000000000000333e-02 1.500564999999999816e-01 1.908774999999999977e+01 6.628610000000000468e+01 1.972045000000000073e+03
3.600000000000000422e-02 1.500205000000000011e-01 1.829064999999999941e+01 6.509399999999999409e+01 1.971755000000000109e+03
3.700000000000000511e-02 1.499840000000000062e-01 1.755274999999999963e+01 6.398054999999999382e+01 1.971454999999999927e+03
3.799999999999999906e-02 1.499515000000000153e-01 1.694660000000000011e+01 6.315109999999999957e+01 1.971184999999999945e+03
3.899999999999999994e-02 1.499289999999999790e-01 1.653059999999999974e+01 6.278750000000000142e+01 1.970994999999999891e+03
4.000000000000000083e-02 1.499199999999999977e-01 1.633455000000000013e+01 6.299909999999999854e+01 1.970914999999999964e+03
4.100000000000000172e-02 1.499280000000000057e-01 1.635285000000000011e+01 6.379299999999999216e+01 1.970970000000000027e+03
4.200000000000000261e-02 1.499515000000000153e-01 1.654560000000000031e+01 6.506964999999999577e+01 1.971150000000000091e+03
4.300000000000000350e-02 1.499889999999999834e-01 1.684639999999999915e+01 6.664225000000000421e+01 1.971440000000000055e+03
4.400000000000000439e-02 1.500329999999999997e-01 1.717450000000000188e+01 6.827309999999999945e+01 1.971795000000000073e+03
4.499999999999999833e-02 1.500785000000000036e-01 1.744810000000000016e+01 6.971580000000000155e+01 1.972164999999999964e+03
4.599999999999999922e-02 1.501184999999999881e-01 1.759584999999999866e+01 7.075454999999999472e+01 1.972494999999999891e+03
4.700000000000000011e-02 1.501470000000000027e-01 1.756479999999999819e+01 7.123220000000000596e+01 1.972735000000000127e+03
4.800000000000000100e-02 1.501600000000000157e-01 1.732399999999999807e+01 7.106489999999999441e+01 1.972849999999999909e+03
4.900000000000000189e-02 1.501540000000000097e-01 1.686425000000000196e+01 7.024119999999999209e+01 1.972809999999999945e+03
5.000000000000000278e-02 1.501294999999999991e-01 1.619490000000000052e+01 6.881119999999999948e+01 1.972615000000000009e+03
5.100000000000000366e-02 1.500865000000000116e-01 1.533859999999999957e+01 6.686789999999999168e+01 1.972269999999999982e+03
5.200000000000000455e-02 1.500279999999999947e-01 1.432639999999999958e+01 6.452725000000000932e+01 1.971795000000000073e+03
5.300000000000000544e-02 1.499560000000000060e-01 1.319343500000000091e+01 6.191110000000000468e+01 1.971210000000000036e+03
5.399999999999999939e-02 1.498740000000000072e-01 1.197585499999999925e+01 5.913524999999999920e+01 1.970539999999999964e+03
5.500000000000000028e-02 1.497855000000000159e-01 1.070953000000000088e+01 5.630315000000000225e+01 1.969815000000000055e+03
5.600000000000000117e-02 1.496935000000000071e-01 9.429769999999999541e+00 5.350584999999999525e+01 1.969059999999999945e+03
5.700000000000000205e-02 1.496009999999999840e-01 8.172034999999999272e+00 5.082450000000000045e+01 1.968299999999999955e+03
5.800000000000000294e-02 1.495110000000000050e-01 6.972205000000000652e+00 4.833500000000000085e+01 1.967555000000000064e+03
5.900000000000000383e-02 1.494264999999999899e-01 5.867105000000000459e+00 4.611169999999999902e+01 1.966860000000000127e+03
6.000000000000000472e-02 1.493490000000000095e-01 4.894194999999999851e+00 4.422929999999999495e+01 1.966219999999999800e+03
6.099999999999999867e-02 1.492829999999999990e-01 4.090444999999999887e+00 4.276260000000000616e+01 1.965664999999999964e+03
6.199999999999999956e-02 1.492295000000000149e-01 3.490825000000000067e+00 4.178350000000000364e+01 1.965220000000000027e+03
6.300000000000000044e-02 1.491919999999999913e-01 3.126304999999999890e+00 4.135685000000000144e+01 1.964900000000000091e+03
6.400000000000000133e-02 1.491724999999999857e-01 3.021889999999999965e+00 4.153490000000000038e+01 1.964719999999999800e+03
6.500000000000000222e-02 1.491719999999999990e-01 3.194805000000000117e+00 4.235269999999999868e+01 1.964704999999999927e+03
6.600000000000000311e-02 1.491930000000000200e-01 3.653274999999999828e+00 4.382404999999999973e+01 1.964855000000000018e+03
6.700000000000000400e-02 1.492350000000000065e-01 4.395850000000000257e+00 4.593959999999999866e+01 1.965190000000000055e+03
6.800000000000000488e-02 1.492990000000000150e-01 5.411514999999999631e+00 4.866684999999999661e+01 1.965695000000000164e+03
6.900000000000000577e-02 1.493829999999999880e-01 6.680385000000000240e+00 5.195215000000000316e+01 1.966369999999999891e+03
7.000000000000000666e-02 1.494865000000000221e-01 8.174955000000000638e+00 5.572409999999999997e+01 1.967204999999999927e+03
7.100000000000000755e-02 1.496065000000000034e-01 9.861855000000000260e+00 5.989809999999999945e+01 1.968179999999999836e+03
7.200000000000000844e-02 1.497410000000000130e-01 1.170345999999999975e+01 6.438185000000000002e+01 1.969279999999999973e+03
7.300000000000000933e-02 1.498875000000000068e-01 1.366019499999999809e+01 6.908060000000000400e+01 1.970474999999999909e+03
7.399999999999999634e-02 1.500424999999999953e-01 1.569225000000000136e+01 7.390234999999999843e+01 1.971750000000000000e+03
7.499999999999999722e-02 1.502029999999999754e-01 1.776140000000000185e+01 7.876224999999999454e+01 1.973070000000000164e+03
7.599999999999999811e-02 1.503665000000000140e-01 1.983305000000000007e+01 8.358695000000000164e+01 1.974424999999999955e+03
7.699999999999999900e-02 1.505309999999999981e-01 2.187689999999999912e+01 8.831714999999999804e+01 1.975789999999999964e+03
7.799999999999999989e-02 1.506939999999999946e-01 2.386854999999999905e+01 9.290999999999999659e+01 1.977150000000000091e+03
7.900000000000000078e-02 1.508545000000000025e-01 2.578969999999999985e+01 9.733820000000000050e+01 1.978485000000000127e+03
8.000000000000000167e-02 1.510104999999999920e-01 2.762835000000000107e+01 1.015921500000000037e+02 1.979795000000000073e+03
8.100000000000000255e-02 1.511629999999999918e-01 2.937835000000000107e+01 1.056757000000000062e+02 1.981070000000000164e+03
8.200000000000000344e-02 1.513100000000000001e-01 3.103889999999999816e+01 1.096050000000000040e+02 1.982309999999999945e+03
8.300000000000000433e-02 1.514535000000000187e-01 3.261330000000000240e+01 1.134035000000000082e+02 1.983509999999999991e+03
8.400000000000000522e-02 1.515920000000000045e-01 3.410784999999999911e+01 1.171009999999999991e+02 1.984684999999999945e+03
8.500000000000000611e-02 1.517284999999999884e-01 3.553074999999999761e+01 1.207259999999999991e+02 1.985840000000000146e+03
8.600000000000000699e-02 1.518625000000000114e-01 3.689054999999999751e+01 1.243075000000000045e+02 1.986970000000000027e+03
8.700000000000000788e-02 1.519949999999999912e-01 3.819525000000000148e+01 1.278665000000000020e+02 1.988090000000000146e+03
8.800000000000000877e-02 1.521259999999999835e-01 3.945144999999999413e+01 1.314174999999999898e+02 1.989200000000000045e+03
8.899999999999999578e-02 1.522569999999999757e-01 4.066360000000000241e+01 1.349695000000000107e+02 1.990309999999999945e+03
8.999999999999999667e-02 1.523875000000000091e-01 4.183375000000000199e+01 1.385190000000000055e+02 1.991414999999999964e+03
9.099999999999999756e-02 1.525175000000000003e-01 4.296130000000000138e+01 1.420564999999999998e+02 1.992519999999999982e+03
9.199999999999999845e-02 1.526469999999999771e-01 4.404314999999999714e+01 1.455649999999999977e+02 1.993615000000000009e+03
9.299999999999999933e-02 1.527749999999999941e-01 4.507375000000000398e+01 1.490204999999999984e+02 1.994704999999999927e+03
9.400000000000000022e-02 1.529010000000000091e-01 4.604569999999999652e+01 1.523949999999999818e+02 1.995775000000000091e+03
9.500000000000000111e-02 1.530245000000000077e-01 4.695009999999999906e+01 1.556579999999999870e+02 1.996819999999999936e+03
9.600000000000000200e-02 1.531434999999999880e-01 4.777714999999999890e+01 1.587764999999999986e+02 1.997840000000000146e+03
9.700000000000000289e-02 1.532580000000000053e-01 4.851650000000000063e+01 1.617189999999999941e+02 1.998820000000000164e+03
9.800000000000000377e-02 1.533664999999999889e-01 4.915805000000000291e+01 1.644544999999999959e+02 1.999744999999999891e+03
9.900000000000000466e-02 1.534685000000000077e-01 4.969225000000000136e+01 1.669555000000000007e+02 2.000615000000000009e+03
1.000000000000000056e-01 1.535624999999999907e-01 5.011059999999999803e+01 1.691984999999999957e+02 2.001420000000000073e+03
1.010000000000000064e-01 1.536474999999999924e-01 5.040644999999999953e+01 1.711645000000000039e+02 2.002154999999999973e+03
1.020000000000000073e-01 1.537239999999999995e-01 5.057495000000000118e+01 1.728394999999999868e+02 2.002809999999999945e+03
1.030000000000000082e-01 1.537894999999999956e-01 5.061355000000000359e+01 1.742169999999999845e+02 2.003380000000000109e+03
1.040000000000000091e-01 1.538460000000000105e-01 5.052235000000000298e+01 1.752969999999999970e+02 2.003869999999999891e+03
1.050000000000000100e-01 1.538919999999999733e-01 5.030405000000000371e+01 1.760840000000000032e+02 2.004275000000000091e+03
1.059999999999999970e-01 1.539274999999999949e-01 4.996405000000000030e+01 1.765910000000000082e+02 2.004589999999999918e+03
1.069999999999999979e-01 1.539539999999999798e-01 4.951024999999999920e+01 1.768360000000000127e+02 2.004820000000000164e+03
1.079999999999999988e-01 1.539709999999999968e-01 4.895300000000000296e+01 1.768430000000000177e+02 2.004980000000000018e+03
1.089999999999999997e-01 1.539794999999999914e-01 4.830434999999999945e+01 1.766399999999999864e+02 2.005059999999999945e+03
1.100000000000000006e-01 1.539805000000000201e-01 4.757800000000000296e+01 1.762565000000000168e+02 2.005074999999999818e+03
1.110000000000000014e-01 1.539745000000000141e-01 4.678864999999999696e+01 1.757264999999999873e+02 2.005035000000000082e+03
1.120000000000000023e-01 1.539635000000000031e-01 4.595120000000000005e+01 1.750825000000000102e+02 2.004945000000000164e+03
1.130000000000000032e-01 1.539475000000000149e-01 4.508044999999999902e+01 1.743559999999999945e+02 2.004819999999999936e+03
1.140000000000000041e-01 1.539280000000000093e-01 4.419064999999999799e+01 1.735769999999999982e+02 2.004659999999999854e+03
1.150000000000000050e-01 1.539059999999999873e-01 4.329475000000000051e+01 1.727719999999999914e+02 2.004474999999999909e+03
1.160000000000000059e-01 1.538819999999999910e-01 4.240415000000000134e+01 1.719635000000000105e+02 2.004275000000000091e+03
1.170000000000000068e-01 1.538574999999999804e-01 4.152835000000000321e+01 1.711689999999999827e+02 2.004065000000000055e+03
1.180000000000000077e-01 1.538324999999999831e-01 4.067480000000000473e+01 1.704010000000000105e+02 2.003855000000000018e+03
1.190000000000000085e-01 1.538080000000000003e-01 3.984860000000000468e+01 1.696675000000000182e+02 2.003639999999999873e+03
1.200000000000000094e-01 1.537830000000000030e-01 3.905279999999999774e+01 1.689705000000000155e+02 2.003429999999999836e+03
1.209999999999999964e-01 1.537600000000000078e-01 3.828795000000000215e+01 1.683075000000000045e+02 2.003230000000000018e+03
1.219999999999999973e-01 1.537364999999999982e-01 3.755294999999999561e+01 1.676720000000000255e+02 2.003029999999999973e+03
1.229999999999999982e-01 1.537144999999999762e-01 3.684454999999999814e+01 1.670544999999999902e+02 2.002835000000000036e+03
1.239999999999999991e-01 1.536919999999999953e-01 3.615824999999999534e+01 1.664415000000000191e+02 2.002650000000000091e+03
1.250000000000000000e-01 1.536700000000000010e-01 3.548829999999999529e+01 1.658185000000000002e+02 2.002454999999999927e+03
1.260000000000000009e-01 1.536470000000000058e-01 3.482815000000000083e+01 1.651689999999999827e+02 2.002259999999999991e+03
1.270000000000000018e-01 1.536234999999999962e-01 3.417074999999999818e+01 1.644770000000000039e+02 2.002055000000000064e+03
1.280000000000000027e-01 1.535980000000000123e-01 3.350919999999999987e+01 1.637259999999999991e+02 2.001840000000000146e+03
1.290000000000000036e-01 1.535710000000000131e-01 3.283695000000000164e+01 1.629044999999999845e+02 2.001605000000000018e+03
1.300000000000000044e-01 1.535414999999999974e-01 3.214804999999999779e+01 1.619979999999999905e+02 2.001355000000000018e+03
1.310000000000000053e-01 1.535090000000000066e-01 3.143775000000000119e+01 1.609995000000000118e+02 2.001085000000000036e+03
1.320000000000000062e-01 1.534739999999999993e-01 3.070250000000000057e+01 1.599025000000000034e+02 2.000785000000000082e+03
1.330000000000000071e-01 1.534355000000000024e-01 2.994024999999999892e+01 1.587060000000000173e+02 2.000454999999999927e+03
1.340000000000000080e-01 1.533940000000000026e-01 2.915055000000000263e+01 1.574130000000000109e+02 2.000105000000000018e+03
1.350000000000000089e-01 1.533490000000000131e-01 2.833494999999999919e+01 1.560285000000000082e+02 1.999724999999999909e+03
1.360000000000000098e-01 1.533010000000000206e-01 2.749624999999999986e+01 1.545635000000000048e+02 1.999320000000000164e+03
1.370000000000000107e-01 1.532505000000000117e-01 2.663915000000000077e+01 1.530314999999999941e+02 1.998889999999999873e+03
1.380000000000000115e-01 1.531974999999999865e-01 2.576970000000000027e+01 1.514499999999999886e+02 1.998445000000000164e+03
1.390000000000000124e-01 1.531425000000000147e-01 2.489525000000000077e+01 1.498380000000000223e+02 1.997980000000000018e+03
1.400000000000000133e-01 1.530865000000000142e-01 2.402385000000000304e+01 1.482164999999999964e+02 1.997505000000000109e+03
1.410000000000000142e-01 1.530299999999999994e-01 2.316434999999999889e+01 1.466080000000000041e+02 1.997029999999999973e+03
1.420000000000000151e-01 1.529739999999999989e-01 2.232574999999999932e+01 1.450339999999999918e+02 1.996554999999999836e+03
1.430000000000000160e-01 1.529185000000000128e-01 2.151689999999999969e+01 1.435154999999999745e+02 1.996085000000000036e+03
1.440000000000000169e-01 1.528650000000000009e-01 2.074605000000000032e+01 1.420735000000000241e+02 1.995630000000000109e+03
1.450000000000000178e-01 1.528134999999999910e-01 2.002084999999999937e+01 1.407224999999999966e+02 1.995190000000000055e+03
1.459999999999999909e-01 1.527649999999999841e-01 1.934765000000000157e+01 1.394795000000000016e+02 1.994775000000000091e+03
1.469999999999999918e-01 1.527195000000000080e-01 1.873160000000000025e+01 1.383530000000000086e+02 1.994389999999999873e+03
1.479999999999999927e-01 1.526774999999999938e-01 1.817624999999999957e+01 1.373514999999999873e+02 1.994034999999999854e+03
1.489999999999999936e-01 1.526405000000000123e-01 1.768370000000000175e+01 1.364775000000000205e+02 1.993710000000000036e+03
1.499999999999999944e-01 1.526065000000000060e-01 1.725454999999999828e+01 1.357305000000000064e+02 1.993424999999999955e+03
1.509999999999999953e-01 1.525774999999999770e-01 1.688770000000000238e+01 1.351070000000000277e+02 1.993170000000000073e+03
1.519999999999999962e-01 1.525524999999999798e-01 1.658089999999999975e+01 1.346000000000000227e+02 1.992950000000000045e+03
1.529999999999999971e-01 1.525309999999999999e-01 1.633040000000000092e+01 1.342004999999999768e+02 1.992764999999999873e+03
1.539999999999999980e-01 1.525130000000000097e-01 1.613175000000000026e+01 1.338969999999999914e+02 1.992610000000000127e+03
1.549999999999999989e-01 1.524984999999999813e-01 1.597950000000000159e+01 1.336770000000000209e+02 1.992485000000000127e+03
1.559999999999999998e-01 1.524874999999999980e-01 1.586779999999999902e+01 1.335275000000000034e+02 1.992384999999999991e+03
1.570000000000000007e-01 1.524790000000000034e-01 1.579035000000000011e+01 1.334340000000000259e+02 1.992309999999999945e+03
1.580000000000000016e-01 1.524725000000000108e-01 1.574085000000000001e+01 1.333840000000000146e+02 1.992250000000000000e+03
1.590000000000000024e-01 1.524679999999999924e-01 1.571314999999999884e+01 1.333645000000000209e+02 1.992210000000000036e+03
