# t [s], A [cm^2], U [cm/s], P [cPa], c [cm/s]
1.000000000000000021e-03 6.213024999999999798e-01 6.701300000000000312e-03 1.072964999999999947e+02 1.733115000000000009e+03
2.000000000000000042e-03 6.212925000000000253e-01 -4.603300000000001141e-04 1.072650000000000006e+02 1.733105000000000018e+03
3.000000000000000062e-03 6.213504999999999168e-01 1.111247499999999944e-01 1.073975000000000080e+02 1.733134999999999991e+03
4.000000000000000083e-03 6.213904999999999568e-01 2.037705000000000211e-01 1.075185000000000031e+02 1.733164999999999964e+03
5.000000000000000104e-03 6.213500000000000689e-01 1.519603999999999955e-01 1.074055000000000035e+02 1.733144999999999982e+03
6.000000000000000125e-03 6.212845000000000173e-01 4.511049999999999782e-02 1.071295000000000073e+02 1.733085000000000036e+03
7.000000000000000146e-03 6.212244999999999573e-01 -5.979299999999998505e-02 1.067874999999999943e+02 1.733009999999999991e+03
8.000000000000000167e-03 6.211189999999999767e-01 -2.698650000000000215e-01 1.062520000000000095e+02 1.732900000000000091e+03
9.000000000000001055e-03 6.209495000000000431e-01 -6.227700000000000458e-01 1.054350000000000023e+02 1.732724999999999909e+03
1.000000000000000194e-02 6.207095000000000251e-01 -1.127124999999999932e+00 1.042785000000000082e+02 1.732469999999999800e+03
1.099999999999999936e-02 6.203745000000000509e-01 -1.812655000000000127e+00 1.026876000000000033e+02 1.732125000000000000e+03
1.200000000000000025e-02 6.199529999999999763e-01 -2.641439999999999788e+00 1.006544999999999987e+02 1.731670000000000073e+03
1.300000000000000114e-02 6.195060000000000011e-01 -3.461454999999999949e+00 9.834780000000000655e+01 1.731139999999999873e+03
1.400000000000000203e-02 6.191094999999999793e-01 -4.080763499999999766e+00 9.604725000000000534e+01 1.730595000000000027e+03
1.499999999999999944e-02 6.188080000000000247e-01 -4.371423000000000059e+00 9.399320000000000164e+01 1.730069999999999936e+03
1.600000000000000033e-02 6.185954999999999648e-01 -4.315427500000000194e+00 9.228530000000000655e+01 1.729610000000000127e+03
1.700000000000000122e-02 6.184315000000000229e-01 -3.986634999999999707e+00 9.087299999999999045e+01 1.729199999999999818e+03
1.800000000000000211e-02 6.182635000000000769e-01 -3.500928500000000110e+00 8.960755000000000337e+01 1.728815000000000055e+03
1.900000000000000300e-02 6.180505000000000582e-01 -2.963855499999999754e+00 8.832025000000000148e+01 1.728434999999999945e+03
2.000000000000000042e-02 6.177779999999999383e-01 -2.433864499999999875e+00 8.689199999999999591e+01 1.728029999999999973e+03
2.100000000000000130e-02 6.174545000000000172e-01 -1.911544999999999828e+00 8.529165000000000418e+01 1.727579999999999927e+03
2.200000000000000219e-02 6.171094999999999775e-01 -1.356410000000000116e+00 8.357040000000000646e+01 1.727110000000000127e+03
2.299999999999999961e-02 6.167715000000000281e-01 -7.205600000000000893e-01 8.182095000000001050e+01 1.726630000000000109e+03
2.400000000000000050e-02 6.164555000000000451e-01 1.812499999999994671e-02 8.012354999999999450e+01 1.726154999999999973e+03
2.500000000000000139e-02 6.161585000000000534e-01 8.369450000000000500e-01 7.850430000000000064e+01 1.725694999999999936e+03
2.600000000000000228e-02 6.158595000000000041e-01 1.667885000000000062e+00 7.691830000000000211e+01 1.725240000000000009e+03
2.700000000000000316e-02 6.155239999999999601e-01 2.412600000000000300e+00 7.525844999999999629e+01 1.724764999999999873e+03
2.800000000000000058e-02 6.151195000000000412e-01 2.967039999999999900e+00 7.338620000000000232e+01 1.724259999999999991e+03
2.900000000000000147e-02 6.146205000000000140e-01 3.248734999999999928e+00 7.117320000000000846e+01 1.723684999999999945e+03
3.000000000000000236e-02 6.140225000000000266e-01 3.218985000000000429e+00 6.854349999999999454e+01 1.723019999999999982e+03
3.099999999999999978e-02 6.133394999999999264e-01 2.893324999999999481e+00 6.550215000000000032e+01 1.722269999999999982e+03
3.200000000000000067e-02 6.126044999999999963e-01 2.336315000000000364e+00 6.214064999999999372e+01 1.721440000000000055e+03
3.300000000000000155e-02 6.118620000000000170e-01 1.643595000000000361e+00 5.861934999999999718e+01 1.720570000000000164e+03
3.400000000000000244e-02 6.111550000000000038e-01 9.194599999999999440e-01 5.513460000000000605e+01 1.719700000000000045e+03
3.500000000000000333e-02 6.105220000000000091e-01 2.570449999999997459e-01 5.188344999999999629e+01 1.718875000000000000e+03
3.600000000000000422e-02 6.099890000000000034e-01 -2.739950000000002106e-01 4.903490000000000038e+01 1.718125000000000000e+03
3.700000000000000511e-02 6.095714999999999328e-01 -6.309849999999999071e-01 4.671260000000000190e+01 1.717485000000000127e+03
3.799999999999999906e-02 6.092740000000000933e-01 -7.952550000000000452e-01 4.499000000000000199e+01 1.716985000000000127e+03
3.899999999999999994e-02 6.090949999999999420e-01 -7.648550000000000626e-01 4.389525000000000432e+01 1.716634999999999991e+03
4.000000000000000083e-02 6.090290000000000425e-01 -5.459939999999999793e-01 4.342270000000000607e+01 1.716434999999999945e+03
4.100000000000000172e-02 6.090694999999999304e-01 -1.455364999999999853e-01 4.354675000000000296e+01 1.716384999999999991e+03
4.200000000000000261e-02 6.092109999999999470e-01 4.335550000000000237e-01 4.423445000000000249e+01 1.716480000000000018e+03
4.300000000000000350e-02 6.094505000000000061e-01 1.193029999999999813e+00 4.545324999999999704e+01 1.716715000000000146e+03
4.400000000000000439e-02 6.097850000000000215e-01 2.136884999999999923e+00 4.717349999999999710e+01 1.717079999999999927e+03
4.499999999999999833e-02 6.102090000000000014e-01 3.266940000000000399e+00 4.936590000000000344e+01 1.717565000000000055e+03
4.599999999999999922e-02 6.107185000000000530e-01 4.578369999999999607e+00 5.199660000000000082e+01 1.718170000000000073e+03
4.700000000000000011e-02 6.113029999999999298e-01 6.056649999999999423e+00 5.502245000000000630e+01 1.718880000000000109e+03
4.800000000000000100e-02 6.119505000000000638e-01 7.676745000000000374e+00 5.838785000000000025e+01 1.719684999999999945e+03
4.900000000000000189e-02 6.126454999999999540e-01 9.404390000000001137e+00 6.202469999999999573e+01 1.720559999999999945e+03
5.000000000000000278e-02 6.133714999999999584e-01 1.119928499999999971e+01 6.585599999999999454e+01 1.721500000000000000e+03
5.100000000000000366e-02 6.141130000000000200e-01 1.301914499999999997e+01 6.980020000000000380e+01 1.722480000000000018e+03
5.200000000000000455e-02 6.148530000000000939e-01 1.482352000000000025e+01 7.377824999999999989e+01 1.723485000000000127e+03
5.300000000000000544e-02 6.155804999999999749e-01 1.657717999999999847e+01 7.771904999999999575e+01 1.724490000000000009e+03
5.399999999999999939e-02 6.162860000000000005e-01 1.825250000000000128e+01 8.156475000000000364e+01 1.725485000000000127e+03
5.500000000000000028e-02 6.169634999999999980e-01 1.982999999999999829e+01 8.527375000000000682e+01 1.726460000000000036e+03
5.600000000000000117e-02 6.176109999999999101e-01 2.129889999999999972e+01 8.882160000000000366e+01 1.727400000000000091e+03
5.700000000000000205e-02 6.182284999999999586e-01 2.265549999999999997e+01 9.219979999999999620e+01 1.728304999999999836e+03
5.800000000000000294e-02 6.188195000000000778e-01 2.390194999999999936e+01 9.541429999999999723e+01 1.729179999999999836e+03
5.900000000000000383e-02 6.193874999999999797e-01 2.504480000000000217e+01 9.848224999999999341e+01 1.730014999999999873e+03
6.000000000000000472e-02 6.199384999999999479e-01 2.609345000000000070e+01 1.014284999999999997e+02 1.730819999999999936e+03
6.099999999999999867e-02 6.204769999999999452e-01 2.705850000000000222e+01 1.042796500000000037e+02 1.731599999999999909e+03
6.199999999999999956e-02 6.210084999999999633e-01 2.795089999999999719e+01 1.070660000000000025e+02 1.732365000000000009e+03
6.300000000000000044e-02 6.215364999999999363e-01 2.878040000000000020e+01 1.098130000000000024e+02 1.733119999999999891e+03
6.400000000000000133e-02 6.220649999999999791e-01 2.955509999999999948e+01 1.125409999999999968e+02 1.733860000000000127e+03
6.500000000000000222e-02 6.225950000000000095e-01 3.028009999999999735e+01 1.152634999999999934e+02 1.734605000000000018e+03
6.600000000000000311e-02 6.231260000000000687e-01 3.095749999999999602e+01 1.179844999999999970e+02 1.735345000000000027e+03
6.700000000000000400e-02 6.236559999999999881e-01 3.158605000000000018e+01 1.206995000000000005e+02 1.736079999999999927e+03
6.800000000000000488e-02 6.241820000000000146e-01 3.216145000000000209e+01 1.233930000000000007e+02 1.736809999999999945e+03
6.900000000000000577e-02 6.246979999999999755e-01 3.267694999999999794e+01 1.260455000000000041e+02 1.737534999999999854e+03
7.000000000000000666e-02 6.251990000000000602e-01 3.312415000000000020e+01 1.286285000000000025e+02 1.738235000000000127e+03
7.100000000000000755e-02 6.256785000000000263e-01 3.349405000000000143e+01 1.311115000000000066e+02 1.738920000000000073e+03
7.200000000000000844e-02 6.261309999999999931e-01 3.377754999999999797e+01 1.334625000000000057e+02 1.739570000000000164e+03
7.300000000000000933e-02 6.265509999999999691e-01 3.396685000000000088e+01 1.356525000000000034e+02 1.740180000000000064e+03
7.399999999999999634e-02 6.269340000000001023e-01 3.405559999999999832e+01 1.376539999999999964e+02 1.740750000000000000e+03
7.499999999999999722e-02 6.272759999999999447e-01 3.403950000000000387e+01 1.394449999999999932e+02 1.741264999999999873e+03
7.599999999999999811e-02 6.275745000000000351e-01 3.391639999999999588e+01 1.410104999999999791e+02 1.741724999999999909e+03
7.699999999999999900e-02 6.278285000000000116e-01 3.368649999999999523e+01 1.423394999999999868e+02 1.742119999999999891e+03
7.799999999999999989e-02 6.280375000000000263e-01 3.335249999999999915e+01 1.434279999999999973e+02 1.742454999999999927e+03
7.900000000000000078e-02 6.282024999999999970e-01 3.291925000000000523e+01 1.442810000000000059e+02 1.742730000000000018e+03
8.000000000000000167e-02 6.283259999999999401e-01 3.239399999999999835e+01 1.449060000000000059e+02 1.742950000000000045e+03
8.100000000000000255e-02 6.284095000000000653e-01 3.178585000000000349e+01 1.453170000000000073e+02 1.743105000000000018e+03
8.200000000000000344e-02 6.284579999999999611e-01 3.110589999999999833e+01 1.455339999999999918e+02 1.743204999999999927e+03
8.300000000000000433e-02 6.284760000000000346e-01 3.036690000000000111e+01 1.455790000000000077e+02 1.743259999999999991e+03
8.400000000000000522e-02 6.284680000000000266e-01 2.958239999999999981e+01 1.454789999999999850e+02 1.743275000000000091e+03
8.500000000000000611e-02 6.284389999999999699e-01 2.876689999999999969e+01 1.452609999999999957e+02 1.743250000000000000e+03
8.600000000000000699e-02 6.283950000000000369e-01 2.793479999999999919e+01 1.449540000000000077e+02 1.743199999999999818e+03
8.700000000000000788e-02 6.283404999999999685e-01 2.710004999999999953e+01 1.445860000000000127e+02 1.743125000000000000e+03
8.800000000000000877e-02 6.282805000000000195e-01 2.627519999999999811e+01 1.441829999999999927e+02 1.743039999999999964e+03
8.899999999999999578e-02 6.282189999999999719e-01 2.547135000000000105e+01 1.437694999999999936e+02 1.742950000000000045e+03
8.999999999999999667e-02 6.281600000000000517e-01 2.469695000000000107e+01 1.433640000000000043e+02 1.742849999999999909e+03
9.099999999999999756e-02 6.281039999999999957e-01 2.395814999999999984e+01 1.429809999999999945e+02 1.742750000000000000e+03
9.199999999999999845e-02 6.280535000000000423e-01 2.325815000000000055e+01 1.426299999999999955e+02 1.742660000000000082e+03
9.299999999999999933e-02 6.280084999999999695e-01 2.259740000000000038e+01 1.423139999999999930e+02 1.742570000000000164e+03
9.400000000000000022e-02 6.279675000000000118e-01 2.197384999999999877e+01 1.420324999999999989e+02 1.742490000000000009e+03
9.500000000000000111e-02 6.279299999999999882e-01 2.138309999999999889e+01 1.417785000000000082e+02 1.742414999999999964e+03
9.600000000000000200e-02 6.278934999999999933e-01 2.081900000000000261e+01 1.415420000000000016e+02 1.742349999999999909e+03
9.700000000000000289e-02 6.278550000000000519e-01 2.027420000000000044e+01 1.413110000000000070e+02 1.742279999999999973e+03
9.800000000000000377e-02 6.278120000000000367e-01 1.974029999999999774e+01 1.410704999999999814e+02 1.742214999999999918e+03
9.900000000000000466e-02 6.277619999999999312e-01 1.920905000000000129e+01 1.408054999999999950e+02 1.742134999999999991e+03
1.000000000000000056e-01 6.277019999999999822e-01 1.867214999999999847e+01 1.405009999999999764e+02 1.742055000000000064e+03
1.010000000000000064e-01 6.276299999999999102e-01 1.812219999999999942e+01 1.401435000000000173e+02 1.741960000000000036e+03
1.020000000000000073e-01 6.275444999999999496e-01 1.755295000000000272e+01 1.397235000000000014e+02 1.741849999999999909e+03
1.030000000000000082e-01 6.274440000000000017e-01 1.695964999999999989e+01 1.392319999999999993e+02 1.741724999999999909e+03
1.040000000000000091e-01 6.273284999999999556e-01 1.633944999999999936e+01 1.386644999999999754e+02 1.741585000000000036e+03
1.050000000000000100e-01 6.271984999999999921e-01 1.569154999999999944e+01 1.380219999999999914e+02 1.741424999999999955e+03
1.059999999999999970e-01 6.270549999999999180e-01 1.501715000000000089e+01 1.373085000000000093e+02 1.741244999999999891e+03
1.069999999999999979e-01 6.269000000000000128e-01 1.431964999999999932e+01 1.365314999999999941e+02 1.741049999999999955e+03
1.079999999999999988e-01 6.267365000000000297e-01 1.360444499999999834e+01 1.357040000000000077e+02 1.740840000000000146e+03
1.089999999999999997e-01 6.265680000000000138e-01 1.287855000000000061e+01 1.348410000000000082e+02 1.740619999999999891e+03
1.100000000000000006e-01 6.263974999999999405e-01 1.215043999999999969e+01 1.339615000000000009e+02 1.740394999999999982e+03
1.110000000000000014e-01 6.262294999999999945e-01 1.142949499999999929e+01 1.330844999999999914e+02 1.740164999999999964e+03
1.120000000000000023e-01 6.260680000000000689e-01 1.072564999999999991e+01 1.322305000000000064e+02 1.739944999999999936e+03
1.130000000000000032e-01 6.259164999999999868e-01 1.004880999999999958e+01 1.314219999999999970e+02 1.739730000000000018e+03
1.140000000000000041e-01 6.257795000000000440e-01 9.408355000000000246e+00 1.306769999999999925e+02 1.739529999999999973e+03
1.150000000000000050e-01 6.256589999999999652e-01 8.812739999999999796e+00 1.300130000000000052e+02 1.739345000000000027e+03
1.160000000000000059e-01 6.255580000000000584e-01 8.269075000000000841e+00 1.294445000000000050e+02 1.739184999999999945e+03
1.170000000000000068e-01 6.254779999999999784e-01 7.782809999999999562e+00 1.289819999999999993e+02 1.739049999999999955e+03
1.180000000000000077e-01 6.254200000000000870e-01 7.357314999999999827e+00 1.286330000000000098e+02 1.738940000000000055e+03
1.190000000000000085e-01 6.253840000000000510e-01 6.994164999999999743e+00 1.283990000000000009e+02 1.738860000000000127e+03
1.200000000000000094e-01 6.253689999999999527e-01 6.692814999999999515e+00 1.282779999999999916e+02 1.738809999999999945e+03
1.209999999999999964e-01 6.253735000000000266e-01 6.450815000000000410e+00 1.282640000000000100e+02 1.738789999999999964e+03
1.219999999999999973e-01 6.253960000000000630e-01 6.264070000000000249e+00 1.283474999999999966e+02 1.738784999999999854e+03
1.229999999999999982e-01 6.254330000000000167e-01 6.127100000000000435e+00 1.285165000000000077e+02 1.738815000000000055e+03
1.239999999999999991e-01 6.254824999999999413e-01 6.033374999999999488e+00 1.287554999999999836e+02 1.738860000000000127e+03
1.250000000000000000e-01 6.255405000000000548e-01 5.975725000000000620e+00 1.290495000000000232e+02 1.738914999999999964e+03
1.260000000000000009e-01 6.256049999999999667e-01 5.946670000000000122e+00 1.293820000000000050e+02 1.738990000000000009e+03
1.270000000000000018e-01 6.256720000000000059e-01 5.938795000000000712e+00 1.297375000000000114e+02 1.739069999999999936e+03
1.280000000000000027e-01 6.257399999999999629e-01 5.945009999999999906e+00 1.301005000000000109e+02 1.739154999999999973e+03
1.290000000000000036e-01 6.258055000000000145e-01 5.958819999999999339e+00 1.304585000000000150e+02 1.739240000000000009e+03
1.300000000000000044e-01 6.258680000000000909e-01 5.974505000000000621e+00 1.308004999999999995e+02 1.739329999999999927e+03
1.310000000000000053e-01 6.259250000000000647e-01 5.987204999999999444e+00 1.311175000000000068e+02 1.739409999999999854e+03
1.320000000000000062e-01 6.259755000000000180e-01 5.993025000000000269e+00 1.314029999999999916e+02 1.739485000000000127e+03
1.330000000000000071e-01 6.260194999999999510e-01 5.989020000000000010e+00 1.316519999999999868e+02 1.739554999999999836e+03
1.340000000000000080e-01 6.260565000000000158e-01 5.973190000000000666e+00 1.318634999999999877e+02 1.739605000000000018e+03
1.350000000000000089e-01 6.260864999999999903e-01 5.944419999999999149e+00 1.320364999999999895e+02 1.739659999999999854e+03
1.360000000000000098e-01 6.261099999999999444e-01 5.902404999999999902e+00 1.321725000000000136e+02 1.739699999999999818e+03
1.370000000000000107e-01 6.261270000000001001e-01 5.847550000000000026e+00 1.322744999999999891e+02 1.739730000000000018e+03
1.380000000000000115e-01 6.261395000000000710e-01 5.780859999999999665e+00 1.323454999999999870e+02 1.739755000000000109e+03
1.390000000000000124e-01 6.261475000000000790e-01 5.703799999999999315e+00 1.323905000000000030e+02 1.739769999999999982e+03
1.400000000000000133e-01 6.261520000000000419e-01 5.618190000000000239e+00 1.324139999999999873e+02 1.739784999999999854e+03
1.410000000000000142e-01 6.261540000000000994e-01 5.526049999999999685e+00 1.324209999999999923e+02 1.739789999999999964e+03
1.420000000000000151e-01 6.261539999999999884e-01 5.429470000000000240e+00 1.324159999999999968e+02 1.739795000000000073e+03
1.430000000000000160e-01 6.261535000000000295e-01 5.330474999999999852e+00 1.324024999999999750e+02 1.739795000000000073e+03
1.440000000000000169e-01 6.261525000000000007e-01 5.230904999999999916e+00 1.323849999999999909e+02 1.739795000000000073e+03
1.450000000000000178e-01 6.261505000000000543e-01 5.132329999999999615e+00 1.323659999999999854e+02 1.739795000000000073e+03
1.459999999999999909e-01 6.261499999999999844e-01 5.035980000000000345e+00 1.323464999999999918e+02 1.739789999999999964e+03
1.469999999999999918e-01 6.261490000000000666e-01 4.942674999999999486e+00 1.323274999999999864e+02 1.739789999999999964e+03
1.479999999999999927e-01 6.261480000000000379e-01 4.852850000000000108e+00 1.323089999999999975e+02 1.739784999999999854e+03
1.489999999999999936e-01 6.261470000000000091e-01 4.766560000000000130e+00 1.322899999999999920e+02 1.739779999999999973e+03
1.499999999999999944e-01 6.261449999999999516e-01 4.683514999999999873e+00 1.322680000000000007e+02 1.739775000000000091e+03
1.509999999999999953e-01 6.261419999999999764e-01 4.603209999999999802e+00 1.322420000000000186e+02 1.739769999999999982e+03
1.519999999999999962e-01 6.261375000000000135e-01 4.524960000000000093e+00 1.322069999999999936e+02 1.739764999999999873e+03
1.529999999999999971e-01 6.261305000000000343e-01 4.448055000000000092e+00 1.321624999999999943e+02 1.739750000000000000e+03
1.539999999999999980e-01 6.261209999999999276e-01 4.371809999999999974e+00 1.321050000000000182e+02 1.739735000000000127e+03
1.549999999999999989e-01 6.261079999999999979e-01 4.295700000000000074e+00 1.320330000000000155e+02 1.739720000000000027e+03
1.559999999999999998e-01 6.260920000000000929e-01 4.219425000000000203e+00 1.319449999999999932e+02 1.739695000000000164e+03
1.570000000000000007e-01 6.260729999999999906e-01 4.142940000000000289e+00 1.318394999999999868e+02 1.739675000000000182e+03
1.580000000000000016e-01 6.260505000000000653e-01 4.066489999999999938e+00 1.317180000000000177e+02 1.739639999999999873e+03
1.590000000000000024e-01 6.260250000000000536e-01 3.990635000000000154e+00 1.315815000000000055e+02 1.739610000000000127e+03
