# t [s], A [cm^2], U [cm/s], P [cPa], c [cm/s]
1.000000000000000021e-03 1.634599999999999942e-01 2.386949999999999905e-01 9.713040000000000873e+01 1.741835000000000036e+03
2.000000000000000042e-03 1.634375000000000133e-01 1.677603999999999873e+00 9.447509999999999764e+01 1.741644999999999982e+03
3.000000000000000062e-03 1.633379999999999832e-01 3.459734000000000087e+00 9.104425000000000523e+01 1.740839999999999918e+03
4.000000000000000083e-03 1.631825000000000081e-01 5.430206499999999714e+00 8.711684999999999945e+01 1.739605000000000018e+03
5.000000000000000104e-03 1.629964999999999886e-01 7.541844999999999466e+00 8.329140000000001010e+01 1.738150000000000091e+03
6.000000000000000125e-03 1.628024999999999889e-01 9.716585000000000250e+00 7.994814999999999827e+01 1.736634999999999991e+03
7.000000000000000146e-03 1.626120000000000065e-01 1.182760999999999996e+01 7.714900000000000091e+01 1.735170000000000073e+03
8.000000000000000167e-03 1.624315000000000064e-01 1.375234999999999985e+01 7.475154999999999461e+01 1.733800000000000182e+03
9.000000000000001055e-03 1.622624999999999762e-01 1.543591500000000138e+01 7.262459999999998672e+01 1.732534999999999854e+03
1.000000000000000194e-02 1.621094999999999897e-01 1.688779999999999859e+01 7.075444999999999141e+01 1.731405000000000200e+03
1.099999999999999936e-02 1.619744999999999935e-01 1.813129999999999953e+01 6.917349999999999000e+01 1.730414999999999964e+03
1.200000000000000025e-02 1.618580000000000019e-01 1.918005000000000138e+01 6.788269999999999982e+01 1.729575000000000045e+03
1.300000000000000114e-02 1.617600000000000149e-01 2.004335000000000022e+01 6.685210000000000719e+01 1.728869999999999891e+03
1.400000000000000203e-02 1.616790000000000171e-01 2.073004999999999853e+01 6.604064999999999941e+01 1.728300000000000182e+03
1.499999999999999944e-02 1.616130000000000067e-01 2.124705000000000155e+01 6.539779999999998950e+01 1.727835000000000036e+03
1.600000000000000033e-02 1.615580000000000072e-01 2.160495000000000232e+01 6.487234999999999729e+01 1.727460000000000036e+03
1.700000000000000122e-02 1.615139999999999909e-01 2.183249999999999957e+01 6.444595000000001050e+01 1.727164999999999964e+03
1.800000000000000211e-02 1.614800000000000124e-01 2.198479999999999990e+01 6.416734999999999900e+01 1.726949999999999818e+03
1.900000000000000300e-02 1.614595000000000058e-01 2.213504999999999967e+01 6.415125000000000455e+01 1.726819999999999936e+03
2.000000000000000042e-02 1.614550000000000152e-01 2.235204999999999842e+01 6.453360000000000696e+01 1.726809999999999945e+03
2.100000000000000130e-02 1.614714999999999900e-01 2.267579999999999885e+01 6.540630000000000166e+01 1.726944999999999936e+03
2.200000000000000219e-02 1.615099999999999869e-01 2.310385000000000133e+01 6.676630000000000109e+01 1.727235000000000127e+03
2.299999999999999961e-02 1.615679999999999894e-01 2.359270000000000067e+01 6.850065000000000737e+01 1.727659999999999854e+03
2.400000000000000050e-02 1.616404999999999925e-01 2.407235000000000014e+01 7.041105000000000302e+01 1.728200000000000045e+03
2.500000000000000139e-02 1.617199999999999749e-01 2.446645000000000181e+01 7.226409999999999911e+01 1.728784999999999854e+03
2.600000000000000228e-02 1.617974999999999830e-01 2.471269999999999811e+01 7.384789999999999566e+01 1.729365000000000009e+03
2.700000000000000316e-02 1.618664999999999965e-01 2.477580000000000027e+01 7.501805000000000234e+01 1.729884999999999991e+03
2.800000000000000058e-02 1.619214999999999960e-01 2.465259999999999962e+01 7.572169999999999845e+01 1.730309999999999945e+03
2.900000000000000147e-02 1.619614999999999805e-01 2.436779999999999902e+01 7.599569999999999936e+01 1.730615000000000009e+03
3.000000000000000236e-02 1.619864999999999777e-01 2.396340000000000003e+01 7.594319999999999027e+01 1.730815000000000055e+03
3.099999999999999978e-02 1.619995000000000185e-01 2.348600000000000065e+01 7.569745000000000346e+01 1.730929999999999836e+03
3.200000000000000067e-02 1.620044999999999957e-01 2.297455000000000069e+01 7.538439999999999941e+01 1.730980000000000018e+03
3.300000000000000155e-02 1.620055000000000245e-01 2.245325000000000060e+01 7.509399999999999409e+01 1.730990000000000009e+03
3.400000000000000244e-02 1.620034999999999947e-01 2.192885000000000062e+01 7.486605000000000132e+01 1.730984999999999900e+03
3.500000000000000333e-02 1.620019999999999794e-01 2.139395000000000024e+01 7.469169999999999732e+01 1.730974999999999909e+03
3.600000000000000422e-02 1.619995000000000185e-01 2.083310000000000173e+01 7.452795000000000414e+01 1.730960000000000036e+03
3.700000000000000511e-02 1.619944999999999857e-01 2.023069999999999879e+01 7.431855000000000189e+01 1.730930000000000064e+03
3.799999999999999906e-02 1.619865000000000055e-01 1.957809999999999917e+01 7.401635000000000275e+01 1.730875000000000000e+03
3.899999999999999994e-02 1.619740000000000069e-01 1.887890000000000157e+01 7.360134999999999650e+01 1.730784999999999854e+03
4.000000000000000083e-02 1.619565000000000032e-01 1.815024999999999977e+01 7.309065000000001078e+01 1.730670000000000073e+03
4.100000000000000172e-02 1.619359999999999966e-01 1.742200000000000060e+01 7.253819999999998913e+01 1.730525000000000091e+03
4.200000000000000261e-02 1.619145000000000167e-01 1.673140000000000072e+01 7.202620000000000289e+01 1.730369999999999891e+03
4.300000000000000350e-02 1.618954999999999977e-01 1.611724999999999852e+01 7.164840000000000941e+01 1.730235000000000127e+03
4.400000000000000439e-02 1.618824999999999847e-01 1.561250000000000071e+01 7.149160000000000537e+01 1.730134999999999991e+03
4.499999999999999833e-02 1.618779999999999941e-01 1.523864999999999981e+01 7.161775000000000091e+01 1.730095000000000027e+03
4.599999999999999922e-02 1.618850000000000011e-01 1.500185000000000102e+01 7.205100000000000193e+01 1.730134999999999991e+03
4.700000000000000011e-02 1.619035000000000057e-01 1.489175000000000004e+01 7.277249999999999375e+01 1.730264999999999873e+03
4.800000000000000100e-02 1.619329999999999936e-01 1.488349999999999973e+01 7.372249999999999659e+01 1.730474999999999909e+03
4.900000000000000189e-02 1.619714999999999905e-01 1.494105000000000061e+01 7.480930000000000746e+01 1.730744999999999891e+03
5.000000000000000278e-02 1.620159999999999934e-01 1.502214999999999989e+01 7.592244999999999777e+01 1.731059999999999945e+03
5.100000000000000366e-02 1.620610000000000106e-01 1.508365000000000045e+01 7.694720000000000937e+01 1.731389999999999873e+03
5.200000000000000455e-02 1.621039999999999981e-01 1.508595000000000041e+01 7.777899999999999636e+01 1.731700000000000045e+03
5.300000000000000544e-02 1.621394999999999920e-01 1.499680000000000035e+01 7.833360000000000412e+01 1.731960000000000036e+03
5.399999999999999939e-02 1.621650000000000036e-01 1.479299999999999926e+01 7.855450000000000443e+01 1.732150000000000091e+03
5.500000000000000028e-02 1.621770000000000156e-01 1.446144999999999925e+01 7.841464999999999463e+01 1.732244999999999891e+03
5.600000000000000117e-02 1.621750000000000136e-01 1.399830000000000041e+01 7.791519999999999868e+01 1.732235000000000127e+03
5.700000000000000205e-02 1.621584999999999832e-01 1.340800000000000125e+01 7.708050000000000068e+01 1.732114999999999782e+03
5.800000000000000294e-02 1.621269999999999933e-01 1.270110000000000028e+01 7.595220000000000482e+01 1.731894999999999982e+03
5.900000000000000383e-02 1.620829999999999771e-01 1.189255999999999958e+01 7.458230000000000359e+01 1.731574999999999818e+03
6.000000000000000472e-02 1.620270000000000044e-01 1.100008000000000052e+01 7.302740000000000009e+01 1.731174999999999955e+03
6.099999999999999867e-02 1.619619999999999949e-01 1.004284499999999980e+01 7.134399999999999409e+01 1.730700000000000045e+03
6.199999999999999956e-02 1.618894999999999917e-01 9.041025000000001199e+00 6.958599999999999852e+01 1.730175000000000182e+03
6.300000000000000044e-02 1.618120000000000114e-01 8.015235000000000554e+00 6.780355000000000132e+01 1.729610000000000127e+03
6.400000000000000133e-02 1.617319999999999869e-01 6.986560000000000770e+00 6.604300000000000637e+01 1.729025000000000091e+03
6.500000000000000222e-02 1.616515000000000035e-01 5.976649999999999352e+00 6.434810000000000230e+01 1.728430000000000064e+03
6.600000000000000311e-02 1.615719999999999934e-01 5.007804999999999396e+00 6.276095000000000113e+01 1.727855000000000018e+03
6.700000000000000400e-02 1.614964999999999873e-01 4.102895000000000181e+00 6.132294999999999874e+01 1.727295000000000073e+03
6.800000000000000488e-02 1.614260000000000139e-01 3.285105000000000164e+00 6.007535000000000025e+01 1.726784999999999854e+03
6.900000000000000577e-02 1.613640000000000074e-01 2.577397999999999634e+00 5.905890000000000128e+01 1.726319999999999936e+03
7.000000000000000666e-02 1.613110000000000099e-01 2.001866000000000145e+00 5.831284999999999741e+01 1.725925000000000182e+03
7.100000000000000755e-02 1.612704999999999833e-01 1.578859999999999930e+00 5.787340000000000373e+01 1.725619999999999891e+03
7.200000000000000844e-02 1.612425000000000108e-01 1.326111500000000110e+00 5.777219999999999800e+01 1.725410000000000082e+03
7.300000000000000933e-02 1.612299999999999844e-01 1.257845000000000102e+00 5.803410000000000224e+01 1.725300000000000182e+03
7.399999999999999634e-02 1.612330000000000152e-01 1.384084999999999788e+00 5.867555000000000121e+01 1.725315000000000055e+03
7.499999999999999722e-02 1.612540000000000084e-01 1.710069499999999909e+00 5.970329999999999870e+01 1.725450000000000045e+03
7.599999999999999811e-02 1.612919999999999909e-01 2.236015000000000086e+00 6.111390000000000100e+01 1.725720000000000027e+03
7.699999999999999900e-02 1.613479999999999914e-01 2.957040000000000113e+00 6.289329999999999643e+01 1.726110000000000127e+03
7.799999999999999989e-02 1.614214999999999955e-01 3.863404999999999756e+00 6.501775000000000659e+01 1.726630000000000109e+03
7.900000000000000078e-02 1.615110000000000157e-01 4.940999999999999837e+00 6.745470000000000255e+01 1.727275000000000091e+03
8.000000000000000167e-02 1.616155000000000230e-01 6.171949999999999825e+00 7.016454999999999131e+01 1.728025000000000091e+03
8.100000000000000255e-02 1.617345000000000033e-01 7.535409999999999719e+00 7.310269999999999868e+01 1.728884999999999991e+03
8.200000000000000344e-02 1.618644999999999945e-01 9.008525000000000560e+00 7.622129999999999939e+01 1.729829999999999927e+03
8.300000000000000433e-02 1.620050000000000101e-01 1.056716499999999925e+01 7.947190000000000509e+01 1.730849999999999909e+03
8.400000000000000522e-02 1.621529999999999916e-01 1.218696000000000090e+01 8.280715000000000714e+01 1.731929999999999836e+03
8.500000000000000611e-02 1.623064999999999924e-01 1.384403500000000165e+01 8.618260000000000787e+01 1.733054999999999836e+03
8.600000000000000699e-02 1.624639999999999973e-01 1.551585000000000036e+01 8.955850000000000932e+01 1.734215000000000146e+03
8.700000000000000788e-02 1.626230000000000175e-01 1.718195000000000050e+01 9.290090000000000714e+01 1.735384999999999991e+03
8.800000000000000877e-02 1.627824999999999966e-01 1.882410000000000139e+01 9.618229999999999791e+01 1.736565000000000055e+03
8.899999999999999578e-02 1.629410000000000025e-01 2.042705000000000126e+01 9.938315000000000055e+01 1.737740000000000009e+03
8.999999999999999667e-02 1.630975000000000064e-01 2.197849999999999682e+01 1.024893000000000001e+02 1.738900000000000091e+03
9.099999999999999756e-02 1.632500000000000062e-01 2.346914999999999907e+01 1.054947999999999979e+02 1.740039999999999964e+03
9.199999999999999845e-02 1.633999999999999897e-01 2.489260000000000161e+01 1.083990000000000009e+02 1.741154999999999973e+03
9.299999999999999933e-02 1.635455000000000103e-01 2.624504999999999910e+01 1.112065000000000055e+02 1.742250000000000000e+03
9.400000000000000022e-02 1.636880000000000002e-01 2.752505000000000024e+01 1.139249999999999972e+02 1.743320000000000164e+03
9.500000000000000111e-02 1.638264999999999860e-01 2.873275000000000290e+01 1.165649999999999977e+02 1.744360000000000127e+03
9.600000000000000200e-02 1.639619999999999966e-01 2.986999999999999744e+01 1.191390000000000100e+02 1.745380000000000109e+03
9.700000000000000289e-02 1.640940000000000176e-01 3.093914999999999793e+01 1.216585000000000036e+02 1.746375000000000000e+03
9.800000000000000377e-02 1.642239999999999811e-01 3.194310000000000116e+01 1.241325000000000074e+02 1.747360000000000127e+03
9.900000000000000466e-02 1.643519999999999981e-01 3.288470000000000226e+01 1.265709999999999980e+02 1.748324999999999818e+03
1.000000000000000056e-01 1.644774999999999987e-01 3.376644999999999897e+01 1.289784999999999968e+02 1.749280000000000200e+03
1.010000000000000064e-01 1.646019999999999983e-01 3.459024999999999750e+01 1.313575000000000159e+02 1.750220000000000027e+03
1.020000000000000073e-01 1.647250000000000103e-01 3.535710000000000264e+01 1.337069999999999936e+02 1.751150000000000091e+03
1.030000000000000082e-01 1.648465000000000069e-01 3.606719999999999970e+01 1.360235000000000127e+02 1.752074999999999818e+03
1.040000000000000091e-01 1.649654999999999871e-01 3.671970000000000312e+01 1.383000000000000114e+02 1.752980000000000018e+03
1.050000000000000100e-01 1.650829999999999798e-01 3.731309999999999860e+01 1.405260000000000105e+02 1.753875000000000000e+03
1.059999999999999970e-01 1.651984999999999981e-01 3.784489999999999554e+01 1.426904999999999859e+02 1.754755000000000109e+03
1.069999999999999979e-01 1.653104999999999991e-01 3.831194999999999595e+01 1.447805000000000177e+02 1.755610000000000127e+03
1.079999999999999988e-01 1.654194999999999971e-01 3.871084999999999354e+01 1.467824999999999989e+02 1.756440000000000055e+03
1.089999999999999997e-01 1.655240000000000045e-01 3.903775000000000261e+01 1.486820000000000164e+02 1.757240000000000009e+03
1.100000000000000006e-01 1.656239999999999934e-01 3.928889999999999816e+01 1.504644999999999868e+02 1.758000000000000000e+03
1.110000000000000014e-01 1.657184999999999908e-01 3.946045000000000158e+01 1.521179999999999950e+02 1.758730000000000018e+03
1.120000000000000023e-01 1.658074999999999966e-01 3.954909999999999570e+01 1.536304999999999836e+02 1.759414999999999964e+03
1.130000000000000032e-01 1.658894999999999953e-01 3.955190000000000339e+01 1.549909999999999854e+02 1.760039999999999964e+03
1.140000000000000041e-01 1.659645000000000148e-01 3.946665000000000134e+01 1.561910000000000025e+02 1.760625000000000000e+03
1.150000000000000050e-01 1.660324999999999995e-01 3.929189999999999827e+01 1.572249999999999943e+02 1.761144999999999982e+03
1.160000000000000059e-01 1.660920000000000174e-01 3.902705000000000268e+01 1.580875000000000057e+02 1.761610000000000127e+03
1.170000000000000068e-01 1.661440000000000139e-01 3.867289999999999850e+01 1.587785000000000082e+02 1.762014999999999873e+03
1.180000000000000077e-01 1.661874999999999880e-01 3.823085000000000377e+01 1.592975000000000136e+02 1.762355000000000018e+03
1.190000000000000085e-01 1.662235000000000240e-01 3.770395000000000607e+01 1.596490000000000009e+02 1.762634999999999991e+03
1.200000000000000094e-01 1.662509999999999821e-01 3.709605000000000530e+01 1.598389999999999986e+02 1.762849999999999909e+03
1.209999999999999964e-01 1.662700000000000011e-01 3.641235000000000355e+01 1.598750000000000000e+02 1.763009999999999991e+03
1.219999999999999973e-01 1.662819999999999854e-01 3.565925000000000011e+01 1.597674999999999841e+02 1.763110000000000127e+03
1.229999999999999982e-01 1.662865000000000038e-01 3.484369999999999834e+01 1.595305000000000177e+02 1.763155000000000200e+03
1.239999999999999991e-01 1.662845000000000018e-01 3.397390000000000043e+01 1.591769999999999925e+02 1.763144999999999982e+03
1.250000000000000000e-01 1.662760000000000071e-01 3.305845000000000056e+01 1.587219999999999800e+02 1.763085000000000036e+03
1.260000000000000009e-01 1.662629999999999941e-01 3.210645000000000238e+01 1.581834999999999809e+02 1.762994999999999891e+03
1.270000000000000018e-01 1.662445000000000173e-01 3.112709999999999866e+01 1.575749999999999886e+02 1.762860000000000127e+03
1.280000000000000027e-01 1.662224999999999953e-01 3.012954999999999828e+01 1.569145000000000039e+02 1.762694999999999936e+03
1.290000000000000036e-01 1.661964999999999970e-01 2.912284999999999968e+01 1.562164999999999964e+02 1.762505000000000109e+03
1.300000000000000044e-01 1.661684999999999968e-01 2.811540000000000106e+01 1.554950000000000045e+02 1.762295000000000073e+03
1.310000000000000053e-01 1.661385000000000223e-01 2.711495000000000033e+01 1.547635000000000218e+02 1.762069999999999936e+03
1.320000000000000062e-01 1.661070000000000046e-01 2.612834999999999752e+01 1.540310000000000059e+02 1.761835000000000036e+03
1.330000000000000071e-01 1.660750000000000004e-01 2.516149999999999665e+01 1.533075000000000045e+02 1.761585000000000036e+03
1.340000000000000080e-01 1.660424999999999818e-01 2.421910000000000096e+01 1.525985000000000014e+02 1.761339999999999918e+03
1.350000000000000089e-01 1.660105000000000053e-01 2.330489999999999995e+01 1.519089999999999918e+02 1.761089999999999918e+03
1.360000000000000098e-01 1.659785000000000010e-01 2.242114999999999725e+01 1.512404999999999973e+02 1.760845000000000027e+03
1.370000000000000107e-01 1.659464999999999968e-01 2.156925000000000026e+01 1.505924999999999727e+02 1.760605000000000018e+03
1.380000000000000115e-01 1.659154999999999935e-01 2.074929999999999808e+01 1.499625000000000057e+02 1.760365000000000009e+03
1.390000000000000124e-01 1.658850000000000047e-01 1.996045000000000158e+01 1.493474999999999966e+02 1.760130000000000109e+03
1.400000000000000133e-01 1.658540000000000014e-01 1.920084999999999908e+01 1.487404999999999973e+02 1.759900000000000091e+03
1.410000000000000142e-01 1.658239999999999992e-01 1.846795000000000186e+01 1.481365000000000123e+02 1.759660000000000082e+03
1.420000000000000151e-01 1.657939999999999969e-01 1.775864999999999938e+01 1.475275000000000034e+02 1.759430000000000064e+03
1.430000000000000160e-01 1.657635000000000081e-01 1.706920000000000215e+01 1.469055000000000177e+02 1.759194999999999936e+03
1.440000000000000169e-01 1.657325000000000048e-01 1.639574999999999960e+01 1.462624999999999886e+02 1.758954999999999927e+03
1.450000000000000178e-01 1.657000000000000139e-01 1.573420000000000130e+01 1.455910000000000082e+02 1.758710000000000036e+03
1.459999999999999909e-01 1.656664999999999943e-01 1.508060000000000045e+01 1.448834999999999980e+02 1.758450000000000045e+03
1.469999999999999918e-01 1.656314999999999871e-01 1.443125000000000036e+01 1.441340000000000146e+02 1.758180000000000064e+03
1.479999999999999927e-01 1.655944999999999778e-01 1.378275000000000006e+01 1.433374999999999773e+02 1.757900000000000091e+03
1.489999999999999936e-01 1.655554999999999943e-01 1.313220000000000098e+01 1.424894999999999925e+02 1.757599999999999909e+03
1.499999999999999944e-01 1.655139999999999945e-01 1.247735000000000127e+01 1.415874999999999773e+02 1.757285000000000082e+03
1.509999999999999953e-01 1.654700000000000060e-01 1.181670000000000087e+01 1.406320000000000050e+02 1.756954999999999927e+03
1.519999999999999962e-01 1.654235000000000011e-01 1.114952999999999861e+01 1.396225000000000023e+02 1.756599999999999909e+03
1.529999999999999971e-01 1.653744999999999798e-01 1.047598999999999947e+01 1.385625000000000000e+02 1.756224999999999909e+03
1.539999999999999980e-01 1.653229999999999977e-01 9.796945000000000903e+00 1.374560000000000173e+02 1.755840000000000146e+03
1.549999999999999989e-01 1.652700000000000002e-01 9.114250000000000185e+00 1.363089999999999975e+02 1.755434999999999945e+03
1.559999999999999998e-01 1.652144999999999864e-01 8.430429999999999424e+00 1.351295000000000073e+02 1.755014999999999873e+03
1.570000000000000007e-01 1.651575000000000126e-01 7.748765000000000569e+00 1.339259999999999877e+02 1.754585000000000036e+03
1.580000000000000016e-01 1.650989999999999958e-01 7.073154999999999859e+00 1.327085000000000150e+02 1.754144999999999982e+03
1.590000000000000024e-01 1.650395000000000056e-01 6.407954999999999401e+00 1.314870000000000232e+02 1.753690000000000055e+03
