# t [s], A [cm^2], U [cm/s], P [cPa], c [cm/s]
1.000000000000000021e-03 1.448909999999999920e-01 3.354310000000000347e-01 9.205330000000000723e+01 1.925250000000000000e+03
2.000000000000000042e-03 1.448625000000000052e-01 1.800862999999999881e+00 8.901214999999999122e+01 1.924930000000000064e+03
3.000000000000000062e-03 1.447704999999999964e-01 3.575885999999999676e+00 8.502185000000000059e+01 1.923914999999999964e+03
4.000000000000000083e-03 1.446375000000000022e-01 5.545139999999999958e+00 8.070439999999999259e+01 1.922474999999999909e+03
5.000000000000000104e-03 1.444870000000000043e-01 7.654320000000000235e+00 7.678640000000000043e+01 1.920869999999999891e+03
6.000000000000000125e-03 1.443375000000000075e-01 9.775994999999999990e+00 7.355025000000000546e+01 1.919289999999999964e+03
7.000000000000000146e-03 1.441939999999999888e-01 1.174080000000000013e+01 7.084135000000000559e+01 1.917789999999999964e+03
8.000000000000000167e-03 1.440595000000000070e-01 1.345387999999999984e+01 6.842525000000000546e+01 1.916404999999999973e+03
9.000000000000001055e-03 1.439364999999999950e-01 1.492472000000000065e+01 6.626775000000000659e+01 1.915159999999999854e+03
1.000000000000000194e-02 1.438280000000000114e-01 1.618594999999999828e+01 6.443085000000000662e+01 1.914070000000000164e+03
1.099999999999999936e-02 1.437350000000000017e-01 1.725059999999999860e+01 6.291635000000000133e+01 1.913150000000000091e+03
1.200000000000000025e-02 1.436560000000000059e-01 1.812529999999999930e+01 6.167600000000000193e+01 1.912375000000000000e+03
1.300000000000000114e-02 1.435905000000000098e-01 1.881524999999999892e+01 6.064665000000000106e+01 1.911735000000000127e+03
1.400000000000000203e-02 1.435345000000000093e-01 1.932424999999999926e+01 5.975084999999999980e+01 1.911204999999999927e+03
1.499999999999999944e-02 1.434870000000000034e-01 1.967330000000000112e+01 5.893515000000000015e+01 1.910750000000000000e+03
1.600000000000000033e-02 1.434465000000000046e-01 1.992540000000000333e+01 5.824875000000000114e+01 1.910380000000000109e+03
1.700000000000000122e-02 1.434165000000000023e-01 2.018229999999999791e+01 5.787399999999999523e+01 1.910105000000000018e+03
1.800000000000000211e-02 1.434024999999999883e-01 2.054764999999999731e+01 5.805414999999999992e+01 1.909980000000000018e+03
1.900000000000000300e-02 1.434094999999999953e-01 2.107965000000000089e+01 5.895799999999999841e+01 1.910059999999999945e+03
2.000000000000000042e-02 1.434389999999999832e-01 2.176379999999999981e+01 6.056985000000000241e+01 1.910355000000000018e+03
2.100000000000000130e-02 1.434880000000000044e-01 2.251724999999999710e+01 6.266425000000000267e+01 1.910845000000000027e+03
2.200000000000000219e-02 1.435489999999999822e-01 2.322015000000000029e+01 6.487184999999999491e+01 1.911460000000000036e+03
2.299999999999999961e-02 1.436120000000000174e-01 2.375594999999999857e+01 6.679569999999999652e+01 1.912095000000000027e+03
2.400000000000000050e-02 1.436669999999999892e-01 2.404615000000000080e+01 6.812800000000000011e+01 1.912670000000000073e+03
2.500000000000000139e-02 1.437074999999999880e-01 2.406775000000000020e+01 6.872594999999999743e+01 1.913089999999999918e+03
2.600000000000000228e-02 1.437300000000000244e-01 2.385125000000000028e+01 6.862805000000000177e+01 1.913344999999999800e+03
2.700000000000000316e-02 1.437355000000000160e-01 2.346284999999999954e+01 6.801319999999999766e+01 1.913420000000000073e+03
2.800000000000000058e-02 1.437279999999999947e-01 2.297919999999999874e+01 6.712489999999999668e+01 1.913365000000000009e+03
2.900000000000000147e-02 1.437125000000000208e-01 2.246359999999999957e+01 6.618959999999999866e+01 1.913224999999999909e+03
3.000000000000000236e-02 1.436945000000000028e-01 2.195204999999999984e+01 6.535689999999999600e+01 1.913045000000000073e+03
3.099999999999999978e-02 1.436760000000000259e-01 2.144995000000000118e+01 6.467435000000000400e+01 1.912869999999999891e+03
3.200000000000000067e-02 1.436584999999999945e-01 2.093970000000000198e+01 6.409929999999999950e+01 1.912690000000000055e+03
3.300000000000000155e-02 1.436405000000000043e-01 2.039435000000000286e+01 6.353689999999999571e+01 1.912514999999999873e+03
3.400000000000000244e-02 1.436204999999999843e-01 1.979230000000000089e+01 6.288799999999999812e+01 1.912324999999999818e+03
3.500000000000000333e-02 1.435974999999999890e-01 1.912944999999999851e+01 6.209320000000000306e+01 1.912095000000000027e+03
3.600000000000000422e-02 1.435700000000000032e-01 1.842479999999999762e+01 6.116015000000000157e+01 1.911824999999999818e+03
3.700000000000000511e-02 1.435394999999999865e-01 1.771934999999999860e+01 6.016889999999999361e+01 1.911525000000000091e+03
3.799999999999999906e-02 1.435084999999999833e-01 1.706794999999999973e+01 5.925459999999999638e+01 1.911219999999999800e+03
3.899999999999999994e-02 1.434809999999999974e-01 1.652749999999999986e+01 5.857410000000000139e+01 1.910944999999999936e+03
4.000000000000000083e-02 1.434610000000000052e-01 1.614369999999999905e+01 5.826590000000000202e+01 1.910740000000000009e+03
4.100000000000000172e-02 1.434520000000000239e-01 1.594074999999999953e+01 5.841479999999999961e+01 1.910640000000000100e+03
4.200000000000000261e-02 1.434564999999999868e-01 1.591595000000000049e+01 5.902949999999999875e+01 1.910670000000000073e+03
4.300000000000000350e-02 1.434735000000000038e-01 1.603965000000000174e+01 6.003829999999999956e+01 1.910829999999999927e+03
4.400000000000000439e-02 1.435015000000000041e-01 1.626084999999999781e+01 6.130180000000000007e+01 1.911099999999999909e+03
4.499999999999999833e-02 1.435365000000000113e-01 1.651570000000000249e+01 6.263734999999999786e+01 1.911440000000000055e+03
4.599999999999999922e-02 1.435744999999999938e-01 1.673729999999999762e+01 6.385030000000000427e+01 1.911804999999999836e+03
4.700000000000000011e-02 1.436085000000000000e-01 1.686480000000000246e+01 6.476294999999998936e+01 1.912144999999999982e+03
4.800000000000000100e-02 1.436344999999999983e-01 1.685000000000000142e+01 6.523765000000000214e+01 1.912404999999999973e+03
4.900000000000000189e-02 1.436485000000000123e-01 1.666150000000000020e+01 6.519034999999999513e+01 1.912554999999999836e+03
5.000000000000000278e-02 1.436475000000000113e-01 1.628529999999999944e+01 6.459329999999999927e+01 1.912549999999999955e+03
5.100000000000000366e-02 1.436310000000000087e-01 1.572305000000000064e+01 6.346975000000000477e+01 1.912394999999999982e+03
5.200000000000000455e-02 1.435984999999999900e-01 1.498939999999999984e+01 6.188209999999999411e+01 1.912079999999999927e+03
5.300000000000000544e-02 1.435509999999999842e-01 1.410774999999999935e+01 5.991790000000000305e+01 1.911615000000000009e+03
5.399999999999999939e-02 1.434914999999999941e-01 1.310699999999999932e+01 5.767634999999999934e+01 1.911025000000000091e+03
5.500000000000000028e-02 1.434219999999999939e-01 1.201879999999999882e+01 5.525780000000000314e+01 1.910339999999999918e+03
5.600000000000000117e-02 1.433450000000000002e-01 1.087584499999999998e+01 5.275674999999999670e+01 1.909579999999999927e+03
5.700000000000000205e-02 1.432645000000000168e-01 9.711000000000000298e+00 5.025985000000000014e+01 1.908775000000000091e+03
5.800000000000000294e-02 1.431819999999999760e-01 8.557235000000000369e+00 4.784534999999999627e+01 1.907949999999999818e+03
5.900000000000000383e-02 1.431005000000000194e-01 7.447720000000000340e+00 4.558575000000000443e+01 1.907134999999999991e+03
6.000000000000000472e-02 1.430224999999999969e-01 6.415949999999999598e+00 4.354990000000000094e+01 1.906360000000000127e+03
6.099999999999999867e-02 1.429509999999999947e-01 5.495490000000000208e+00 4.180465000000000231e+01 1.905639999999999873e+03
6.199999999999999956e-02 1.428875000000000006e-01 4.719350000000000378e+00 4.041530000000000200e+01 1.905005000000000109e+03
6.300000000000000044e-02 1.428355000000000041e-01 4.118974999999999831e+00 3.944400000000000261e+01 1.904474999999999909e+03
6.400000000000000133e-02 1.427964999999999929e-01 3.722849999999999770e+00 3.894754999999999967e+01 1.904074999999999818e+03
6.500000000000000222e-02 1.427729999999999833e-01 3.554999999999999716e+00 3.897374999999999545e+01 1.903825000000000045e+03
6.600000000000000311e-02 1.427660000000000040e-01 3.633535000000000181e+00 3.955769999999999698e+01 1.903744999999999891e+03
6.700000000000000400e-02 1.427775000000000016e-01 3.969475000000000087e+00 4.071880000000000166e+01 1.903840000000000146e+03
6.800000000000000488e-02 1.428079999999999905e-01 4.566010000000000346e+00 4.245844999999999914e+01 1.904130000000000109e+03
6.900000000000000577e-02 1.428579999999999850e-01 5.418199999999999683e+00 4.475910000000000366e+01 1.904610000000000127e+03
7.000000000000000666e-02 1.429269999999999985e-01 6.513295000000000279e+00 4.758545000000000158e+01 1.905275000000000091e+03
7.100000000000000755e-02 1.430140000000000022e-01 7.831455000000000055e+00 5.088575000000000159e+01 1.906130000000000109e+03
7.200000000000000844e-02 1.431180000000000230e-01 9.346970000000000667e+00 5.459544999999999959e+01 1.907150000000000091e+03
7.300000000000000933e-02 1.432364999999999888e-01 1.102955500000000022e+01 5.864090000000000202e+01 1.908319999999999936e+03
7.399999999999999634e-02 1.433679999999999954e-01 1.284621000000000102e+01 6.294369999999999266e+01 1.909619999999999891e+03
7.499999999999999722e-02 1.435095000000000121e-01 1.476249999999999929e+01 6.742489999999999384e+01 1.911029999999999973e+03
7.599999999999999811e-02 1.436589999999999812e-01 1.674439999999999884e+01 7.200915000000000532e+01 1.912519999999999982e+03
7.699999999999999900e-02 1.438139999999999974e-01 1.875989999999999824e+01 7.662815000000000509e+01 1.914069999999999936e+03
7.799999999999999989e-02 1.439719999999999889e-01 2.077984999999999971e+01 8.122374999999999545e+01 1.915659999999999854e+03
7.900000000000000078e-02 1.441310000000000091e-01 2.277929999999999922e+01 8.574965000000000259e+01 1.917264999999999873e+03
8.000000000000000167e-02 1.442895000000000150e-01 2.473799999999999955e+01 9.017275000000000773e+01 1.918869999999999891e+03
8.100000000000000255e-02 1.444464999999999777e-01 2.664085000000000036e+01 9.447335000000001060e+01 1.920460000000000036e+03
8.200000000000000344e-02 1.446004999999999929e-01 2.847775000000000034e+01 9.864400000000000546e+01 1.922034999999999854e+03
8.300000000000000433e-02 1.447519999999999918e-01 3.024354999999999905e+01 1.026887000000000114e+02 1.923569999999999936e+03
8.400000000000000522e-02 1.449000000000000010e-01 3.193699999999999761e+01 1.066205999999999960e+02 1.925085000000000036e+03
8.500000000000000611e-02 1.450445000000000206e-01 3.356024999999999636e+01 1.104585000000000008e+02 1.926575000000000045e+03
8.600000000000000699e-02 1.451870000000000105e-01 3.511804999999999666e+01 1.142240000000000038e+02 1.928034999999999854e+03
8.700000000000000788e-02 1.453269999999999840e-01 3.661619999999999919e+01 1.179399999999999977e+02 1.929474999999999909e+03
8.800000000000000877e-02 1.454659999999999842e-01 3.806105000000000160e+01 1.216285000000000025e+02 1.930900000000000091e+03
8.899999999999999578e-02 1.456029999999999824e-01 3.945860000000000412e+01 1.253050000000000068e+02 1.932319999999999936e+03
8.999999999999999667e-02 1.457399999999999807e-01 4.081340000000000146e+01 1.289809999999999945e+02 1.933735000000000127e+03
9.099999999999999756e-02 1.458764999999999923e-01 4.212850000000000250e+01 1.326599999999999966e+02 1.935144999999999982e+03
9.199999999999999845e-02 1.460130000000000039e-01 4.340460000000000207e+01 1.363394999999999868e+02 1.936559999999999945e+03
9.299999999999999933e-02 1.461490000000000011e-01 4.464045000000000130e+01 1.400090000000000146e+02 1.937970000000000027e+03
9.400000000000000022e-02 1.462845000000000117e-01 4.583245000000000147e+01 1.436529999999999916e+02 1.939380000000000109e+03
9.500000000000000111e-02 1.464195000000000080e-01 4.697490000000000521e+01 1.472489999999999952e+02 1.940775000000000091e+03
9.600000000000000200e-02 1.465520000000000156e-01 4.806054999999999922e+01 1.507719999999999914e+02 1.942154999999999973e+03
9.700000000000000289e-02 1.466824999999999934e-01 4.908084999999999809e+01 1.541940000000000168e+02 1.943514999999999873e+03
9.800000000000000377e-02 1.468094999999999817e-01 5.002639999999999532e+01 1.574850000000000136e+02 1.944840000000000146e+03
9.900000000000000466e-02 1.469320000000000070e-01 5.088729999999999620e+01 1.606150000000000091e+02 1.946115000000000009e+03
1.000000000000000056e-01 1.470489999999999853e-01 5.165399999999999636e+01 1.635570000000000164e+02 1.947345000000000027e+03
1.010000000000000064e-01 1.471600000000000130e-01 5.231745000000000090e+01 1.662844999999999800e+02 1.948509999999999991e+03
1.020000000000000073e-01 1.472640000000000060e-01 5.286954999999999671e+01 1.687769999999999868e+02 1.949605000000000018e+03
1.030000000000000082e-01 1.473599999999999910e-01 5.330370000000000630e+01 1.710140000000000100e+02 1.950615000000000009e+03
1.040000000000000091e-01 1.474475000000000091e-01 5.361504999999999654e+01 1.729834999999999923e+02 1.951545000000000073e+03
1.050000000000000100e-01 1.475265000000000049e-01 5.380065000000000452e+01 1.746784999999999854e+02 1.952375000000000000e+03
1.059999999999999970e-01 1.475954999999999906e-01 5.385979999999999990e+01 1.760945000000000107e+02 1.953110000000000127e+03
1.069999999999999979e-01 1.476550000000000085e-01 5.379390000000000072e+01 1.772355000000000018e+02 1.953744999999999891e+03
1.079999999999999988e-01 1.477050000000000030e-01 5.360694999999999766e+01 1.781094999999999970e+02 1.954284999999999854e+03
1.089999999999999997e-01 1.477459999999999885e-01 5.330499999999999972e+01 1.787295000000000016e+02 1.954724999999999909e+03
1.100000000000000006e-01 1.477779999999999927e-01 5.289610000000000412e+01 1.791139999999999759e+02 1.955074999999999818e+03
1.110000000000000014e-01 1.478015000000000023e-01 5.239029999999999632e+01 1.792849999999999966e+02 1.955329999999999927e+03
1.120000000000000023e-01 1.478170000000000039e-01 5.179894999999999783e+01 1.792665000000000077e+02 1.955505000000000109e+03
1.130000000000000032e-01 1.478254999999999986e-01 5.113465000000000060e+01 1.790865000000000009e+02 1.955605000000000018e+03
1.140000000000000041e-01 1.478280000000000149e-01 5.041055000000000064e+01 1.787729999999999961e+02 1.955639999999999873e+03
1.150000000000000050e-01 1.478249999999999842e-01 4.963994999999999891e+01 1.783530000000000086e+02 1.955615000000000009e+03
1.160000000000000059e-01 1.478174999999999906e-01 4.883610000000000184e+01 1.778545000000000016e+02 1.955545000000000073e+03
1.170000000000000068e-01 1.478065000000000073e-01 4.801129999999999853e+01 1.773014999999999759e+02 1.955440000000000055e+03
1.180000000000000077e-01 1.477930000000000077e-01 4.717705000000000126e+01 1.767169999999999845e+02 1.955300000000000182e+03
1.190000000000000085e-01 1.477775000000000061e-01 4.634324999999999761e+01 1.761200000000000045e+02 1.955139999999999873e+03
1.200000000000000094e-01 1.477604999999999891e-01 4.551845000000000141e+01 1.755250000000000057e+02 1.954965000000000146e+03
1.209999999999999964e-01 1.477430000000000132e-01 4.470909999999999940e+01 1.749424999999999955e+02 1.954779999999999973e+03
1.219999999999999973e-01 1.477245000000000086e-01 4.392005000000000337e+01 1.743799999999999955e+02 1.954589999999999918e+03
1.229999999999999982e-01 1.477069999999999772e-01 4.315399999999999636e+01 1.738389999999999986e+02 1.954405000000000200e+03
1.239999999999999991e-01 1.476890000000000147e-01 4.241190000000000282e+01 1.733185000000000002e+02 1.954215000000000146e+03
1.250000000000000000e-01 1.476715000000000111e-01 4.169310000000000116e+01 1.728145000000000095e+02 1.954029999999999973e+03
1.260000000000000009e-01 1.476540000000000075e-01 4.099524999999999864e+01 1.723174999999999955e+02 1.953845000000000027e+03
1.270000000000000018e-01 1.476365000000000038e-01 4.031480000000000530e+01 1.718185000000000002e+02 1.953654999999999973e+03
1.280000000000000027e-01 1.476184999999999858e-01 3.964709999999999468e+01 1.713050000000000068e+02 1.953469999999999800e+03
1.290000000000000036e-01 1.476000000000000090e-01 3.898685000000000400e+01 1.707644999999999982e+02 1.953269999999999982e+03
1.300000000000000044e-01 1.475805000000000033e-01 3.832835000000000036e+01 1.701829999999999927e+02 1.953065000000000055e+03
1.310000000000000053e-01 1.475595000000000101e-01 3.766575000000000273e+01 1.695489999999999782e+02 1.952844999999999800e+03
1.320000000000000062e-01 1.475365000000000149e-01 3.699354999999999905e+01 1.688494999999999777e+02 1.952605000000000018e+03
1.330000000000000071e-01 1.475120000000000042e-01 3.630655000000000143e+01 1.680755000000000052e+02 1.952344999999999800e+03
1.340000000000000080e-01 1.474844999999999906e-01 3.560049999999999670e+01 1.672185000000000059e+02 1.952059999999999945e+03
1.350000000000000089e-01 1.474550000000000027e-01 3.487219999999999942e+01 1.662744999999999891e+02 1.951750000000000000e+03
1.360000000000000098e-01 1.474219999999999975e-01 3.411954999999999671e+01 1.652400000000000091e+02 1.951405000000000200e+03
1.370000000000000107e-01 1.473865000000000036e-01 3.334179999999999922e+01 1.641159999999999854e+02 1.951029999999999973e+03
1.380000000000000115e-01 1.473470000000000057e-01 3.253960000000000008e+01 1.629085000000000036e+02 1.950625000000000000e+03
1.390000000000000124e-01 1.473054999999999781e-01 3.171509999999999962e+01 1.616235000000000070e+02 1.950195000000000164e+03
1.400000000000000133e-01 1.472614999999999896e-01 3.087174999999999869e+01 1.602719999999999914e+02 1.949730000000000018e+03
1.410000000000000142e-01 1.472144999999999981e-01 3.001439999999999841e+01 1.588679999999999950e+02 1.949244999999999891e+03
1.420000000000000151e-01 1.471660000000000190e-01 2.914874999999999972e+01 1.574265000000000043e+02 1.948740000000000009e+03
1.430000000000000160e-01 1.471155000000000102e-01 2.828170000000000073e+01 1.559650000000000034e+02 1.948215000000000146e+03
1.440000000000000169e-01 1.470650000000000013e-01 2.742054999999999865e+01 1.545020000000000095e+02 1.947690000000000055e+03
1.450000000000000178e-01 1.470130000000000048e-01 2.657310000000000016e+01 1.530559999999999832e+02 1.947150000000000091e+03
1.459999999999999909e-01 1.469624999999999959e-01 2.574709999999999965e+01 1.516454999999999984e+02 1.946619999999999891e+03
1.469999999999999918e-01 1.469119999999999870e-01 2.495009999999999906e+01 1.502889999999999873e+02 1.946095000000000027e+03
1.479999999999999927e-01 1.468630000000000213e-01 2.418909999999999982e+01 1.490010000000000048e+02 1.945589999999999918e+03
1.489999999999999936e-01 1.468165000000000164e-01 2.347025000000000006e+01 1.477955000000000041e+02 1.945099999999999909e+03
1.499999999999999944e-01 1.467720000000000136e-01 2.279885000000000161e+01 1.466834999999999809e+02 1.944634999999999991e+03
1.509999999999999953e-01 1.467310000000000003e-01 2.217879999999999896e+01 1.456730000000000018e+02 1.944204999999999927e+03
1.519999999999999962e-01 1.466925000000000034e-01 2.161289999999999978e+01 1.447690000000000055e+02 1.943805000000000064e+03
1.529999999999999971e-01 1.466574999999999962e-01 2.110244999999999749e+01 1.439730000000000132e+02 1.943434999999999945e+03
1.539999999999999980e-01 1.466264999999999930e-01 2.064760000000000062e+01 1.432844999999999800e+02 1.943110000000000127e+03
1.549999999999999989e-01 1.465989999999999793e-01 2.024714999999999776e+01 1.426984999999999957e+02 1.942809999999999945e+03
1.559999999999999998e-01 1.465739999999999821e-01 1.989874999999999972e+01 1.422090000000000032e+02 1.942554999999999836e+03
1.570000000000000007e-01 1.465529999999999888e-01 1.959919999999999973e+01 1.418079999999999927e+02 1.942329999999999927e+03
1.580000000000000016e-01 1.465354999999999852e-01 1.934425000000000239e+01 1.414850000000000136e+02 1.942139999999999873e+03
1.590000000000000024e-01 1.465204999999999980e-01 1.912924999999999898e+01 1.412289999999999850e+02 1.941980000000000018e+03
