# t [s], A [cm^2], U [cm/s], P [cPa], c [cm/s]
1.000000000000000021e-03 5.552110000000000101e-01 3.365500000000000436e-03 9.811240000000000805e+01 1.420595000000000027e+03
2.000000000000000042e-03 5.552030000000000021e-01 -8.444449999999998745e-04 9.809600000000000364e+01 1.420590000000000146e+03
3.000000000000000062e-03 5.552329999999999766e-01 5.012105000000000032e-02 9.814039999999999964e+01 1.420605000000000018e+03
4.000000000000000083e-03 5.552839999999999998e-01 1.375099999999999933e-01 9.823984999999998990e+01 1.420630000000000109e+03
5.000000000000000104e-03 5.552945000000000242e-01 1.618875499999999912e-01 9.826939999999999031e+01 1.420639999999999873e+03
6.000000000000000125e-03 5.552589999999999471e-01 1.084550000000000097e-01 9.818094999999999573e+01 1.420625000000000000e+03
7.000000000000000146e-03 5.552139999999999853e-01 3.511950000000002570e-02 9.802080000000000837e+01 1.420589999999999918e+03
8.000000000000000167e-03 5.551700000000000523e-01 -4.181350000000000344e-02 9.781480000000000530e+01 1.420539999999999964e+03
9.000000000000001055e-03 5.550990000000000091e-01 -1.728979999999999961e-01 9.751339999999999009e+01 1.420469999999999800e+03
1.000000000000000194e-02 5.549844999999999917e-01 -3.883349999999999858e-01 9.706770000000000209e+01 1.420365000000000009e+03
1.099999999999999936e-02 5.548239999999999839e-01 -6.907649999999998514e-01 9.645044999999998936e+01 1.420220000000000027e+03
1.200000000000000025e-02 5.546075000000000310e-01 -1.088295000000000012e+00 9.562829999999999586e+01 1.420019999999999982e+03
1.300000000000000114e-02 5.543255000000000265e-01 -1.586544999999999872e+00 9.456810000000000116e+01 1.419760000000000218e+03
1.400000000000000203e-02 5.539849999999999497e-01 -2.158300000000000107e+00 9.327250000000000796e+01 1.419430000000000064e+03
1.499999999999999944e-02 5.536140000000000505e-01 -2.733715000000000117e+00 9.180124999999999602e+01 1.419049999999999955e+03
1.600000000000000033e-02 5.532500000000000195e-01 -3.221944999999999837e+00 9.025695000000000334e+01 1.418634999999999991e+03
1.700000000000000122e-02 5.529249999999999998e-01 -3.544500000000000206e+00 8.874844999999999118e+01 1.418210000000000036e+03
1.800000000000000211e-02 5.526535000000000197e-01 -3.658542999999999878e+00 8.735644999999999527e+01 1.417809999999999945e+03
1.900000000000000300e-02 5.524295000000000178e-01 -3.562681999999999682e+00 8.611560000000000059e+01 1.417424999999999955e+03
2.000000000000000042e-02 5.522359999999999491e-01 -3.288891000000000009e+00 8.501444999999999652e+01 1.417065000000000055e+03
2.100000000000000130e-02 5.520495000000000818e-01 -2.887518500000000099e+00 8.400755000000000905e+01 1.416724999999999909e+03
2.200000000000000219e-02 5.518469999999999764e-01 -2.411067499999999697e+00 8.303425000000000011e+01 1.416394999999999982e+03
2.299999999999999961e-02 5.516155000000000364e-01 -1.900650000000000173e+00 8.203799999999999670e+01 1.416055000000000064e+03
2.400000000000000050e-02 5.513500000000000068e-01 -1.378090000000000037e+00 8.098139999999999361e+01 1.415699999999999818e+03
2.500000000000000139e-02 5.510559999999999903e-01 -8.452549999999998676e-01 7.985300000000000864e+01 1.415329999999999927e+03
2.600000000000000228e-02 5.507440000000000113e-01 -2.902249999999999552e-01 7.866554999999999609e+01 1.414945000000000164e+03
2.700000000000000316e-02 5.504269999999999996e-01 3.025249999999997108e-01 7.744575000000000387e+01 1.414550000000000182e+03
2.800000000000000058e-02 5.501135000000000330e-01 9.418500000000000760e-01 7.622119999999999607e+01 1.414155000000000200e+03
2.900000000000000147e-02 5.498060000000000169e-01 1.622754999999999947e+00 7.500884999999999536e+01 1.413755000000000109e+03
3.000000000000000236e-02 5.494985000000000008e-01 2.323915000000000397e+00 7.380760000000000787e+01 1.413360000000000127e+03
3.099999999999999978e-02 5.491814999999999891e-01 3.009744999999999671e+00 7.259635000000000105e+01 1.412960000000000036e+03
3.200000000000000067e-02 5.488399999999999945e-01 3.636050000000000004e+00 7.133804999999999552e+01 1.412549999999999955e+03
3.300000000000000155e-02 5.484594999999999887e-01 4.157650000000000290e+00 6.998709999999999809e+01 1.412119999999999891e+03
3.400000000000000244e-02 5.480285000000000295e-01 4.536509999999999820e+00 6.849970000000000425e+01 1.411659999999999854e+03
3.500000000000000333e-02 5.475425000000000431e-01 4.748654999999999404e+00 6.684440000000000737e+01 1.411159999999999854e+03
3.600000000000000422e-02 5.470034999999999759e-01 4.788714999999999833e+00 6.501040000000000418e+01 1.410619999999999891e+03
3.700000000000000511e-02 5.464215000000000044e-01 4.670679999999999943e+00 6.301264999999999361e+01 1.410039999999999964e+03
3.799999999999999906e-02 5.458149999999999391e-01 4.425549999999999429e+00 6.089135000000000275e+01 1.409420000000000073e+03
3.899999999999999994e-02 5.452040000000000219e-01 4.096160000000000245e+00 5.870834999999999582e+01 1.408789999999999964e+03
4.000000000000000083e-02 5.446104999999999974e-01 3.730520000000000280e+00 5.653894999999999982e+01 1.408155000000000200e+03
4.100000000000000172e-02 5.440570000000000128e-01 3.375700000000000145e+00 5.446365000000000123e+01 1.407539999999999964e+03
4.200000000000000261e-02 5.435615000000000308e-01 3.073264999999999691e+00 5.255975000000000108e+01 1.406965000000000146e+03
4.300000000000000350e-02 5.431384999999999685e-01 2.856105000000000338e+00 5.089475000000000193e+01 1.406449999999999818e+03
4.400000000000000439e-02 5.427975000000000438e-01 2.747749999999999915e+00 4.952245000000000630e+01 1.406000000000000000e+03
4.499999999999999833e-02 5.425440000000000262e-01 2.762830000000000119e+00 4.848094999999999999e+01 1.405644999999999982e+03
4.599999999999999922e-02 5.423815000000000719e-01 2.908993999999999858e+00 4.779305000000000092e+01 1.405380000000000109e+03
4.700000000000000011e-02 5.423085000000000822e-01 3.189060000000000006e+00 4.746864999999999668e+01 1.405220000000000027e+03
4.800000000000000100e-02 5.423240000000000283e-01 3.603235000000000188e+00 4.750735000000000241e+01 1.405159999999999854e+03
4.900000000000000189e-02 5.424265000000000336e-01 4.150859999999999772e+00 4.790169999999999817e+01 1.405204999999999927e+03
5.000000000000000278e-02 5.426130000000000120e-01 4.831355000000000288e+00 4.863994999999999891e+01 1.405349999999999909e+03
5.100000000000000366e-02 5.428804999999999881e-01 5.644370000000000331e+00 4.970799999999999841e+01 1.405589999999999918e+03
5.200000000000000455e-02 5.432259999999999867e-01 6.589245000000000019e+00 5.109029999999999916e+01 1.405924999999999955e+03
5.300000000000000544e-02 5.436459999999999626e-01 7.663954999999999629e+00 5.276975000000000193e+01 1.406349999999999909e+03
5.399999999999999939e-02 5.441365000000000229e-01 8.864074999999999704e+00 5.472719999999999629e+01 1.406865000000000009e+03
5.500000000000000028e-02 5.446914999999999951e-01 1.018191500000000005e+01 5.694060000000000343e+01 1.407460000000000036e+03
5.600000000000000117e-02 5.453040000000000109e-01 1.160589500000000029e+01 5.938455000000000439e+01 1.408119999999999891e+03
5.700000000000000205e-02 5.459659999999999513e-01 1.312078999999999951e+01 6.202969999999999828e+01 1.408855000000000018e+03
5.800000000000000294e-02 5.466695000000000304e-01 1.470805999999999969e+01 6.484329999999999927e+01 1.409639999999999873e+03
5.900000000000000383e-02 5.474029999999999729e-01 1.634692000000000078e+01 6.779014999999999702e+01 1.410474999999999909e+03
6.000000000000000472e-02 5.481584999999999930e-01 1.801544499999999971e+01 7.083344999999999914e+01 1.411340000000000146e+03
6.099999999999999867e-02 5.489264999999999839e-01 1.969190000000000040e+01 7.393684999999999263e+01 1.412240000000000009e+03
6.199999999999999956e-02 5.496969999999999912e-01 2.135575000000000045e+01 7.706560000000000343e+01 1.413154999999999973e+03
6.300000000000000044e-02 5.504649999999999821e-01 2.298859999999999815e+01 8.018840000000000146e+01 1.414079999999999927e+03
6.400000000000000133e-02 5.512230000000000185e-01 2.457505000000000095e+01 8.327849999999999397e+01 1.415005000000000109e+03
6.500000000000000222e-02 5.519669999999999854e-01 2.610275000000000034e+01 8.631444999999999368e+01 1.415925000000000182e+03
6.600000000000000311e-02 5.526944999999999775e-01 2.756300000000000239e+01 8.928065000000000850e+01 1.416824999999999818e+03
6.700000000000000400e-02 5.534034999999999371e-01 2.894989999999999952e+01 9.216720000000000823e+01 1.417715000000000146e+03
6.800000000000000488e-02 5.540935000000000166e-01 3.026069999999999993e+01 9.496989999999999554e+01 1.418585000000000036e+03
6.900000000000000577e-02 5.547664999999999402e-01 3.149490000000000123e+01 9.768909999999999627e+01 1.419434999999999945e+03
7.000000000000000666e-02 5.554224999999999302e-01 3.265404999999999802e+01 1.003285999999999945e+02 1.420264999999999873e+03
7.100000000000000755e-02 5.560644999999999616e-01 3.374114999999999753e+01 1.028967999999999989e+02 1.421079999999999927e+03
7.200000000000000844e-02 5.566945000000000920e-01 3.476014999999999588e+01 1.054022500000000093e+02 1.421869999999999891e+03
7.300000000000000933e-02 5.573155000000000747e-01 3.571555000000000035e+01 1.078549999999999898e+02 1.422654999999999973e+03
7.399999999999999634e-02 5.579290000000000083e-01 3.661195000000000022e+01 1.102659999999999911e+02 1.423420000000000073e+03
7.499999999999999722e-02 5.585375000000000201e-01 3.745369999999999777e+01 1.126440000000000055e+02 1.424174999999999955e+03
7.599999999999999811e-02 5.591420000000000279e-01 3.824445000000000050e+01 1.149975000000000023e+02 1.424924999999999955e+03
7.699999999999999900e-02 5.597440000000000193e-01 3.898709999999999809e+01 1.173310000000000031e+02 1.425670000000000073e+03
7.799999999999999989e-02 5.603430000000000355e-01 3.968325000000000102e+01 1.196479999999999961e+02 1.426409999999999854e+03
7.900000000000000078e-02 5.609390000000000764e-01 4.033344999999999914e+01 1.219475000000000051e+02 1.427140000000000100e+03
8.000000000000000167e-02 5.615299999999999736e-01 4.093684999999999974e+01 1.242259999999999991e+02 1.427869999999999891e+03
8.100000000000000255e-02 5.621140000000000025e-01 4.149124999999999375e+01 1.264770000000000039e+02 1.428585000000000036e+03
8.200000000000000344e-02 5.626875000000000071e-01 4.199360000000000070e+01 1.286904999999999859e+02 1.429295000000000073e+03
8.300000000000000433e-02 5.632489999999999997e-01 4.243994999999999607e+01 1.308549999999999898e+02 1.429990000000000009e+03
8.400000000000000522e-02 5.637935000000000585e-01 4.282580000000000098e+01 1.329574999999999818e+02 1.430670000000000073e+03
8.500000000000000611e-02 5.643175000000000274e-01 4.314639999999999986e+01 1.349830000000000041e+02 1.431324999999999818e+03
8.600000000000000699e-02 5.648180000000000422e-01 4.339719999999999800e+01 1.369180000000000064e+02 1.431950000000000045e+03
8.700000000000000788e-02 5.652905000000000291e-01 4.357380000000000564e+01 1.387470000000000141e+02 1.432555000000000064e+03
8.800000000000000877e-02 5.657330000000000414e-01 4.367265000000000441e+01 1.404585000000000150e+02 1.433125000000000000e+03
8.899999999999999578e-02 5.661424999999999930e-01 4.369115000000000038e+01 1.420394999999999754e+02 1.433654999999999973e+03
8.999999999999999667e-02 5.665164999999999784e-01 4.362744999999999607e+01 1.434825000000000159e+02 1.434144999999999982e+03
9.099999999999999756e-02 5.668539999999999690e-01 4.348104999999999620e+01 1.447789999999999964e+02 1.434594999999999800e+03
9.199999999999999845e-02 5.671539999999999360e-01 4.325254999999999939e+01 1.459259999999999877e+02 1.434994999999999891e+03
9.299999999999999933e-02 5.674160000000000315e-01 4.294379999999999598e+01 1.469219999999999970e+02 1.435355000000000018e+03
9.400000000000000022e-02 5.676410000000000622e-01 4.255795000000000528e+01 1.477675000000000125e+02 1.435664999999999964e+03
9.500000000000000111e-02 5.678294999999999870e-01 4.209909999999999997e+01 1.484660000000000082e+02 1.435934999999999945e+03
9.600000000000000200e-02 5.679834999999999745e-01 4.157264999999999588e+01 1.490240000000000009e+02 1.436154999999999973e+03
9.700000000000000289e-02 5.681055000000000410e-01 4.098489999999999611e+01 1.494499999999999886e+02 1.436339999999999918e+03
9.800000000000000377e-02 5.681970000000000631e-01 4.034290000000000020e+01 1.497540000000000191e+02 1.436480000000000018e+03
9.900000000000000466e-02 5.682620000000000449e-01 3.965444999999999709e+01 1.499479999999999791e+02 1.436590000000000146e+03
1.000000000000000056e-01 5.683025000000000437e-01 3.892790000000000106e+01 1.500439999999999827e+02 1.436659999999999854e+03
1.010000000000000064e-01 5.683234999999999815e-01 3.817175000000000296e+01 1.500564999999999998e+02 1.436704999999999927e+03
1.020000000000000073e-01 5.683274999999999855e-01 3.739459999999999695e+01 1.499995000000000118e+02 1.436724999999999909e+03
1.030000000000000082e-01 5.683175000000000310e-01 3.660490000000000066e+01 1.498859999999999957e+02 1.436719999999999800e+03
1.040000000000000091e-01 5.682975000000000110e-01 3.581069999999999709e+01 1.497305000000000064e+02 1.436699999999999818e+03
1.050000000000000100e-01 5.682705000000000117e-01 3.501939999999999742e+01 1.495464999999999804e+02 1.436664999999999964e+03
1.059999999999999970e-01 5.682380000000000209e-01 3.423760000000000048e+01 1.493435000000000059e+02 1.436625000000000000e+03
1.069999999999999979e-01 5.682040000000000424e-01 3.347074999999999534e+01 1.491329999999999814e+02 1.436570000000000164e+03
1.079999999999999988e-01 5.681690000000000351e-01 3.272335000000000349e+01 1.489225000000000136e+02 1.436519999999999982e+03
1.089999999999999997e-01 5.681350000000000566e-01 3.199835000000000207e+01 1.487185000000000059e+02 1.436465000000000146e+03
1.100000000000000006e-01 5.681019999999999959e-01 3.129769999999999897e+01 1.485244999999999891e+02 1.436409999999999854e+03
1.110000000000000014e-01 5.680709999999999926e-01 3.062185000000000201e+01 1.483424999999999727e+02 1.436355000000000018e+03
1.120000000000000023e-01 5.680419999999999359e-01 2.997010000000000218e+01 1.481725000000000136e+02 1.436304999999999836e+03
1.130000000000000032e-01 5.680129999999999901e-01 2.934069999999999823e+01 1.480130000000000052e+02 1.436250000000000000e+03
1.140000000000000041e-01 5.679840000000000444e-01 2.873089999999999833e+01 1.478594999999999970e+02 1.436204999999999927e+03
1.150000000000000050e-01 5.679539999999999589e-01 2.813719999999999999e+01 1.477074999999999818e+02 1.436155000000000200e+03
1.160000000000000059e-01 5.679199999999999804e-01 2.755550000000000210e+01 1.475504999999999995e+02 1.436099999999999909e+03
1.170000000000000068e-01 5.678824999999999568e-01 2.698160000000000025e+01 1.473824999999999932e+02 1.436045000000000073e+03
1.180000000000000077e-01 5.678374999999999950e-01 2.641084999999999994e+01 1.471959999999999980e+02 1.435985000000000127e+03
1.190000000000000085e-01 5.677849999999999842e-01 2.583895000000000053e+01 1.469855000000000018e+02 1.435920000000000073e+03
1.200000000000000094e-01 5.677235000000000475e-01 2.526169999999999760e+01 1.467439999999999998e+02 1.435845000000000027e+03
1.209999999999999964e-01 5.676520000000000454e-01 2.467555000000000121e+01 1.464664999999999964e+02 1.435759999999999991e+03
1.219999999999999973e-01 5.675684999999999203e-01 2.407734999999999914e+01 1.461479999999999961e+02 1.435664999999999964e+03
1.229999999999999982e-01 5.674734999999999641e-01 2.346480000000000032e+01 1.457864999999999895e+02 1.435559999999999945e+03
1.239999999999999991e-01 5.673669999999999547e-01 2.283624999999999972e+01 1.453790000000000191e+02 1.435440000000000055e+03
1.250000000000000000e-01 5.672485000000000444e-01 2.219109999999999872e+01 1.449254999999999995e+02 1.435309999999999945e+03
1.260000000000000009e-01 5.671180000000000110e-01 2.152945000000000064e+01 1.444275000000000091e+02 1.435164999999999964e+03
1.270000000000000018e-01 5.669779999999999820e-01 2.085229999999999961e+01 1.438880000000000052e+02 1.435005000000000109e+03
1.280000000000000027e-01 5.668275000000000396e-01 2.016159999999999997e+01 1.433095000000000141e+02 1.434835000000000036e+03
1.290000000000000036e-01 5.666700000000000070e-01 1.946010000000000062e+01 1.426990000000000123e+02 1.434654999999999973e+03
1.300000000000000044e-01 5.665065000000000239e-01 1.875110000000000099e+01 1.420620000000000118e+02 1.434470000000000027e+03
1.310000000000000053e-01 5.663390000000000368e-01 1.803869999999999862e+01 1.414064999999999941e+02 1.434275000000000091e+03
1.320000000000000062e-01 5.661700000000000621e-01 1.732734999999999914e+01 1.407404999999999973e+02 1.434074999999999818e+03
1.330000000000000071e-01 5.660009999999999764e-01 1.662190000000000012e+01 1.400720000000000027e+02 1.433875000000000000e+03
1.340000000000000080e-01 5.658345000000000180e-01 1.592755000000000010e+01 1.394099999999999966e+02 1.433670000000000073e+03
1.350000000000000089e-01 5.656729999999999814e-01 1.524919999999999831e+01 1.387640000000000100e+02 1.433474999999999909e+03
1.360000000000000098e-01 5.655185000000000350e-01 1.459199500000000072e+01 1.381410000000000196e+02 1.433284999999999854e+03
1.370000000000000107e-01 5.653725000000000556e-01 1.396066000000000074e+01 1.375504999999999995e+02 1.433099999999999909e+03
1.380000000000000115e-01 5.652375000000000593e-01 1.335950500000000041e+01 1.369985000000000070e+02 1.432920000000000073e+03
1.390000000000000124e-01 5.651140000000000052e-01 1.279239000000000104e+01 1.364915000000000020e+02 1.432759999999999991e+03
1.400000000000000133e-01 5.650034999999999918e-01 1.226243000000000016e+01 1.360345000000000084e+02 1.432605000000000018e+03
1.410000000000000142e-01 5.649070000000000480e-01 1.177210000000000001e+01 1.356315000000000168e+02 1.432470000000000027e+03
1.420000000000000151e-01 5.648244999999999516e-01 1.132303500000000085e+01 1.352845000000000084e+02 1.432349999999999909e+03
1.430000000000000160e-01 5.647564999999999946e-01 1.091609000000000052e+01 1.349939999999999998e+02 1.432250000000000000e+03
1.440000000000000169e-01 5.647029999999999550e-01 1.055126500000000078e+01 1.347599999999999909e+02 1.432159999999999854e+03
1.450000000000000178e-01 5.646619999999999973e-01 1.022776999999999958e+01 1.345805000000000007e+02 1.432090000000000146e+03
1.459999999999999909e-01 5.646340000000000803e-01 9.944065000000000154e+00 1.344519999999999982e+02 1.432029999999999973e+03
1.469999999999999918e-01 5.646170000000000355e-01 9.697960000000000136e+00 1.343704999999999927e+02 1.431990000000000009e+03
1.479999999999999927e-01 5.646099999999999453e-01 9.486724999999999852e+00 1.343315000000000055e+02 1.431965000000000146e+03
1.489999999999999936e-01 5.646115000000000439e-01 9.307180000000000675e+00 1.343285000000000196e+02 1.431944999999999936e+03
1.499999999999999944e-01 5.646195000000000519e-01 9.155744999999999578e+00 1.343555000000000064e+02 1.431940000000000055e+03
1.509999999999999953e-01 5.646324999999999816e-01 9.028745000000000687e+00 1.344055000000000177e+02 1.431940000000000055e+03
1.519999999999999962e-01 5.646495000000000264e-01 8.922354999999999592e+00 1.344735000000000014e+02 1.431950000000000045e+03
1.529999999999999971e-01 5.646689999999999765e-01 8.832930000000001058e+00 1.345520000000000209e+02 1.431960000000000036e+03
1.539999999999999980e-01 5.646885000000000376e-01 8.756804999999999950e+00 1.346355000000000075e+02 1.431980000000000018e+03
1.549999999999999989e-01 5.647079999999999878e-01 8.690654999999999575e+00 1.347189999999999941e+02 1.431994999999999891e+03
1.559999999999999998e-01 5.647254999999999914e-01 8.631450000000000955e+00 1.347975000000000136e+02 1.432009999999999991e+03
1.570000000000000007e-01 5.647409999999999375e-01 8.576509999999998968e+00 1.348675000000000068e+02 1.432025000000000091e+03
1.580000000000000016e-01 5.647530000000000605e-01 8.523585000000000633e+00 1.349265000000000043e+02 1.432039999999999964e+03
1.590000000000000024e-01 5.647619999999999862e-01 8.470794999999998964e+00 1.349714999999999918e+02 1.432054999999999836e+03
