# t [s], A [cm^2], U [cm/s], P [cPa], c [cm/s]
1.000000000000000021e-03 1.448340000000000183e-01 3.488539999999999974e-01 9.833379999999999654e+01 1.808775000000000091e+03
2.000000000000000042e-03 1.448025000000000007e-01 1.976047500000000179e+00 9.522659999999999059e+01 1.808485000000000127e+03
3.000000000000000062e-03 1.446955000000000047e-01 3.949259000000000075e+00 9.114074999999999704e+01 1.807549999999999955e+03
4.000000000000000083e-03 1.445394999999999874e-01 6.127154500000000503e+00 8.665315000000001078e+01 1.806204999999999927e+03
5.000000000000000104e-03 1.443615000000000037e-01 8.452379999999999782e+00 8.251689999999999259e+01 1.804690000000000055e+03
6.000000000000000125e-03 1.441830000000000056e-01 1.079975499999999933e+01 7.907429999999999382e+01 1.803190000000000055e+03
7.000000000000000146e-03 1.440130000000000021e-01 1.299333999999999989e+01 7.622974999999999568e+01 1.801769999999999982e+03
8.000000000000000167e-03 1.438535000000000230e-01 1.491289499999999890e+01 7.374195000000000277e+01 1.800465000000000146e+03
9.000000000000001055e-03 1.437080000000000024e-01 1.655035000000000167e+01 7.152969999999999118e+01 1.799289999999999964e+03
1.000000000000000194e-02 1.435799999999999854e-01 1.794275000000000020e+01 6.964600000000000080e+01 1.798269999999999982e+03
1.099999999999999936e-02 1.434705000000000008e-01 1.911139999999999972e+01 6.811069999999999425e+01 1.797400000000000091e+03
1.200000000000000025e-02 1.433785000000000198e-01 2.006824999999999903e+01 6.688689999999999714e+01 1.796679999999999836e+03
1.300000000000000114e-02 1.433035000000000003e-01 2.082744999999999891e+01 6.592664999999999509e+01 1.796099999999999909e+03
1.400000000000000203e-02 1.432430000000000092e-01 2.139995000000000047e+01 6.517305000000000348e+01 1.795639999999999873e+03
1.499999999999999944e-02 1.431935000000000013e-01 2.179749999999999943e+01 6.455995000000000061e+01 1.795275000000000091e+03
1.600000000000000033e-02 1.431534999999999891e-01 2.205550000000000210e+01 6.406295000000000073e+01 1.794980000000000018e+03
1.700000000000000122e-02 1.431240000000000012e-01 2.224954999999999927e+01 6.376089999999999947e+01 1.794769999999999982e+03
1.800000000000000211e-02 1.431080000000000130e-01 2.248059999999999903e+01 6.383375000000000199e+01 1.794664999999999964e+03
1.900000000000000300e-02 1.431109999999999882e-01 2.283635000000000304e+01 6.447795000000000698e+01 1.794710000000000036e+03
2.000000000000000042e-02 1.431370000000000142e-01 2.335190000000000055e+01 6.579174999999999329e+01 1.794920000000000073e+03
2.100000000000000130e-02 1.431854999999999933e-01 2.399249999999999972e+01 6.769950000000000045e+01 1.795315000000000055e+03
2.200000000000000219e-02 1.432530000000000192e-01 2.466530000000000200e+01 6.995195000000001073e+01 1.795855000000000018e+03
2.299999999999999961e-02 1.433294999999999986e-01 2.525079999999999814e+01 7.219534999999999059e+01 1.796465000000000146e+03
2.400000000000000050e-02 1.434044999999999903e-01 2.564020000000000010e+01 7.407540000000000191e+01 1.797079999999999927e+03
2.500000000000000139e-02 1.434679999999999844e-01 2.576590000000000202e+01 7.533414999999999395e+01 1.797599999999999909e+03
2.600000000000000228e-02 1.435140000000000027e-01 2.561544999999999916e+01 7.587064999999999770e+01 1.797990000000000009e+03
2.700000000000000316e-02 1.435394999999999865e-01 2.522840000000000060e+01 7.574925000000000352e+01 1.798219999999999800e+03
2.800000000000000058e-02 1.435470000000000079e-01 2.467784999999999940e+01 7.515930000000000177e+01 1.798295000000000073e+03
2.900000000000000147e-02 1.435405000000000153e-01 2.404545000000000243e+01 7.434444999999999482e+01 1.798255000000000109e+03
3.000000000000000236e-02 1.435265000000000013e-01 2.339804999999999779e+01 7.352754999999999086e+01 1.798155000000000200e+03
3.099999999999999978e-02 1.435104999999999853e-01 2.277345000000000041e+01 7.285444999999999993e+01 1.798034999999999854e+03
3.200000000000000067e-02 1.434950000000000114e-01 2.217705000000000126e+01 7.237035000000000196e+01 1.797914999999999964e+03
3.300000000000000155e-02 1.434829999999999994e-01 2.158895000000000053e+01 7.203000000000000114e+01 1.797820000000000164e+03
3.400000000000000244e-02 1.434715000000000018e-01 2.097719999999999985e+01 7.173189999999999600e+01 1.797730000000000018e+03
3.500000000000000333e-02 1.434590000000000032e-01 2.031360000000000099e+01 7.136455000000000837e+01 1.797634999999999991e+03
3.600000000000000422e-02 1.434429999999999872e-01 1.958590000000000231e+01 7.084914999999999452e+01 1.797509999999999991e+03
3.700000000000000511e-02 1.434225000000000083e-01 1.880559999999999832e+01 7.016974999999999341e+01 1.797345000000000027e+03
3.799999999999999906e-02 1.433975000000000111e-01 1.800870000000000104e+01 6.938354999999999961e+01 1.797154999999999973e+03
3.899999999999999994e-02 1.433699999999999974e-01 1.724924999999999997e+01 6.861025000000000773e+01 1.796940000000000055e+03
4.000000000000000083e-02 1.433450000000000002e-01 1.658840000000000003e+01 6.800419999999999732e+01 1.796740000000000009e+03
4.100000000000000172e-02 1.433264999999999956e-01 1.608060000000000045e+01 6.771659999999999968e+01 1.796589999999999918e+03
4.200000000000000261e-02 1.433185000000000153e-01 1.576215000000000011e+01 6.785890000000000555e+01 1.796525000000000091e+03
4.300000000000000350e-02 1.433254999999999946e-01 1.564240000000000030e+01 6.847450000000000614e+01 1.796565000000000055e+03
4.400000000000000439e-02 1.433470000000000022e-01 1.570185000000000031e+01 6.952715000000000600e+01 1.796724999999999909e+03
4.499999999999999833e-02 1.433824999999999961e-01 1.589509999999999934e+01 7.090540000000000020e+01 1.796994999999999891e+03
4.599999999999999922e-02 1.434279999999999999e-01 1.615800000000000125e+01 7.244140000000000157e+01 1.797349999999999909e+03
4.700000000000000011e-02 1.434785000000000088e-01 1.641785000000000139e+01 7.393870000000001141e+01 1.797744999999999891e+03
4.800000000000000100e-02 1.435279999999999889e-01 1.660320000000000107e+01 7.520244999999999891e+01 1.798139999999999873e+03
4.900000000000000189e-02 1.435704999999999898e-01 1.665240000000000009e+01 7.606555000000000177e+01 1.798474999999999909e+03
5.000000000000000278e-02 1.436000000000000054e-01 1.651959999999999695e+01 7.640805000000000291e+01 1.798710000000000036e+03
5.100000000000000366e-02 1.436125000000000040e-01 1.617770000000000152e+01 7.616639999999999588e+01 1.798825000000000045e+03
5.200000000000000455e-02 1.436064999999999980e-01 1.561830000000000140e+01 7.533365000000000578e+01 1.798779999999999973e+03
5.300000000000000544e-02 1.435810000000000142e-01 1.484939999999999927e+01 7.395159999999999911e+01 1.798579999999999927e+03
5.399999999999999939e-02 1.435354999999999825e-01 1.389210000000000100e+01 7.209850000000000136e+01 1.798230000000000018e+03
5.500000000000000028e-02 1.434730000000000172e-01 1.277628499999999967e+01 6.987460000000000093e+01 1.797740000000000009e+03
5.600000000000000117e-02 1.433965000000000101e-01 1.153703000000000145e+01 6.738929999999999154e+01 1.797139999999999873e+03
5.700000000000000205e-02 1.433095000000000063e-01 1.021196499999999929e+01 6.475050000000000239e+01 1.796450000000000045e+03
5.800000000000000294e-02 1.432140000000000080e-01 8.839050000000000296e+00 6.205865000000000009e+01 1.795694999999999936e+03
5.900000000000000383e-02 1.431149999999999922e-01 7.456109999999999793e+00 5.940409999999999968e+01 1.794910000000000082e+03
6.000000000000000472e-02 1.430154999999999899e-01 6.100190000000000445e+00 5.686704999999999899e+01 1.794119999999999891e+03
6.099999999999999867e-02 1.429185000000000039e-01 4.807980000000000587e+00 5.452004999999999768e+01 1.793340000000000146e+03
6.199999999999999956e-02 1.428269999999999817e-01 3.615679500000000157e+00 5.243004999999999427e+01 1.792610000000000127e+03
6.300000000000000044e-02 1.427430000000000088e-01 2.558900500000000022e+00 5.066055000000000064e+01 1.791934999999999945e+03
6.400000000000000133e-02 1.426705000000000056e-01 1.672088000000000019e+00 4.927200000000000557e+01 1.791349999999999909e+03
6.500000000000000222e-02 1.426109999999999878e-01 9.875465000000001048e-01 4.832125000000000625e+01 1.790869999999999891e+03
6.600000000000000311e-02 1.425669999999999993e-01 5.341314999999999813e-01 4.785905000000000342e+01 1.790510000000000218e+03
6.700000000000000400e-02 1.425414999999999877e-01 3.357824999999999838e-01 4.792770000000000152e+01 1.790295000000000073e+03
6.800000000000000488e-02 1.425355000000000094e-01 4.101160000000000361e-01 4.855715000000000003e+01 1.790230000000000018e+03
6.900000000000000577e-02 1.425500000000000100e-01 7.672400499999999512e-01 4.976219999999999999e+01 1.790329999999999927e+03
7.000000000000000666e-02 1.425859999999999905e-01 1.408989300000000000e+00 5.154075000000000273e+01 1.790595000000000027e+03
7.100000000000000755e-02 1.426445000000000074e-01 2.328674499999999981e+00 5.387255000000000393e+01 1.791039999999999964e+03
7.200000000000000844e-02 1.427240000000000175e-01 3.511351499999999959e+00 5.672005000000000052e+01 1.791655000000000200e+03
7.300000000000000933e-02 1.428230000000000055e-01 4.934594999999999843e+00 6.003005000000000280e+01 1.792430000000000064e+03
7.399999999999999634e-02 1.429409999999999847e-01 6.569654999999999134e+00 6.373669999999999902e+01 1.793355000000000018e+03
7.499999999999999722e-02 1.430754999999999943e-01 8.382870000000000488e+00 6.776500000000000057e+01 1.794409999999999854e+03
7.599999999999999811e-02 1.432229999999999892e-01 1.033727000000000018e+01 7.203504999999999825e+01 1.795579999999999927e+03
7.699999999999999900e-02 1.433820000000000094e-01 1.239407500000000084e+01 7.646550000000000580e+01 1.796844999999999800e+03
7.799999999999999989e-02 1.435489999999999822e-01 1.451440500000000000e+01 8.097765000000001123e+01 1.798174999999999955e+03
7.900000000000000078e-02 1.437209999999999877e-01 1.666060000000000230e+01 8.549830000000000041e+01 1.799545000000000073e+03
8.000000000000000167e-02 1.438955000000000095e-01 1.879749999999999943e+01 8.996264999999999645e+01 1.800945000000000164e+03
8.100000000000000255e-02 1.440704999999999902e-01 2.089365000000000094e+01 9.431624999999999659e+01 1.802349999999999909e+03
8.200000000000000344e-02 1.442430000000000101e-01 2.292224999999999824e+01 9.851630000000000109e+01 1.803735000000000127e+03
8.300000000000000433e-02 1.444110000000000116e-01 2.486155000000000115e+01 1.025337499999999977e+02 1.805105000000000018e+03
8.400000000000000522e-02 1.445739999999999803e-01 2.669565000000000055e+01 1.063512499999999932e+02 1.806430000000000064e+03
8.500000000000000611e-02 1.447315000000000129e-01 2.841434999999999889e+01 1.099639999999999986e+02 1.807704999999999927e+03
8.600000000000000699e-02 1.448820000000000108e-01 3.001299999999999812e+01 1.133810000000000002e+02 1.808929999999999836e+03
8.700000000000000788e-02 1.450259999999999883e-01 3.149214999999999876e+01 1.166179999999999950e+02 1.810109999999999900e+03
8.800000000000000877e-02 1.451635000000000009e-01 3.285665000000000191e+01 1.197000000000000028e+02 1.811239999999999782e+03
8.899999999999999578e-02 1.452959999999999807e-01 3.411475000000000080e+01 1.226564999999999941e+02 1.812324999999999818e+03
8.999999999999999667e-02 1.454234999999999833e-01 3.527720000000000056e+01 1.255195000000000078e+02 1.813375000000000000e+03
9.099999999999999756e-02 1.455470000000000097e-01 3.635594999999999999e+01 1.283209999999999980e+02 1.814400000000000091e+03
9.199999999999999845e-02 1.456685000000000063e-01 3.736315000000000452e+01 1.310900000000000034e+02 1.815394999999999982e+03
9.299999999999999933e-02 1.457884999999999875e-01 3.831005000000000393e+01 1.338489999999999895e+02 1.816384999999999991e+03
9.400000000000000022e-02 1.459070000000000089e-01 3.920655000000000001e+01 1.366159999999999854e+02 1.817365000000000009e+03
9.500000000000000111e-02 1.460255000000000025e-01 4.005989999999999895e+01 1.394014999999999986e+02 1.818344999999999800e+03
9.600000000000000200e-02 1.461439999999999961e-01 4.087505000000000166e+01 1.422065000000000055e+02 1.819325000000000045e+03
9.700000000000000289e-02 1.462630000000000041e-01 4.165380000000000393e+01 1.450244999999999891e+02 1.820304999999999836e+03
9.800000000000000377e-02 1.463820000000000121e-01 4.239524999999999721e+01 1.478430000000000177e+02 1.821284999999999854e+03
9.900000000000000466e-02 1.465009999999999923e-01 4.309560000000000457e+01 1.506425000000000125e+02 1.822265000000000100e+03
1.000000000000000056e-01 1.466179999999999983e-01 4.374895000000000067e+01 1.533985000000000127e+02 1.823240000000000009e+03
1.010000000000000064e-01 1.467340000000000033e-01 4.434735000000000582e+01 1.560829999999999984e+02 1.824195000000000164e+03
1.020000000000000073e-01 1.468475000000000197e-01 4.488145000000000095e+01 1.586659999999999968e+02 1.825134999999999991e+03
1.030000000000000082e-01 1.469564999999999899e-01 4.534140000000000015e+01 1.611179999999999950e+02 1.826034999999999854e+03
1.040000000000000091e-01 1.470604999999999829e-01 4.571679999999999922e+01 1.634089999999999918e+02 1.826900000000000091e+03
1.050000000000000100e-01 1.471589999999999843e-01 4.599784999999999968e+01 1.655130000000000052e+02 1.827719999999999800e+03
1.059999999999999970e-01 1.472505000000000064e-01 4.617555000000000121e+01 1.674055000000000177e+02 1.828480000000000018e+03
1.069999999999999979e-01 1.473335000000000061e-01 4.624219999999999686e+01 1.690670000000000073e+02 1.829174999999999955e+03
1.079999999999999988e-01 1.474080000000000112e-01 4.619185000000000230e+01 1.704830000000000041e+02 1.829795000000000073e+03
1.089999999999999997e-01 1.474730000000000207e-01 4.602055000000000007e+01 1.716435000000000173e+02 1.830349999999999909e+03
1.100000000000000006e-01 1.475285000000000069e-01 4.572664999999999935e+01 1.725444999999999993e+02 1.830815000000000055e+03
1.110000000000000014e-01 1.475744999999999973e-01 4.531095000000000539e+01 1.731875000000000000e+02 1.831200000000000045e+03
1.120000000000000023e-01 1.476100000000000190e-01 4.477649999999999864e+01 1.735794999999999959e+02 1.831505000000000109e+03
1.130000000000000032e-01 1.476354999999999751e-01 4.412884999999999991e+01 1.737314999999999827e+02 1.831730000000000018e+03
1.140000000000000041e-01 1.476514999999999911e-01 4.337605000000000643e+01 1.736605000000000132e+02 1.831869999999999891e+03
1.150000000000000050e-01 1.476580000000000115e-01 4.252790000000000248e+01 1.733880000000000052e+02 1.831940000000000055e+03
1.160000000000000059e-01 1.476569999999999827e-01 4.159600000000000364e+01 1.729360000000000070e+02 1.831940000000000055e+03
1.170000000000000068e-01 1.476480000000000015e-01 4.059344999999999715e+01 1.723315000000000055e+02 1.831869999999999891e+03
1.180000000000000077e-01 1.476324999999999998e-01 3.953425000000000011e+01 1.716020000000000039e+02 1.831750000000000000e+03
1.190000000000000085e-01 1.476115000000000066e-01 3.843290000000000362e+01 1.707764999999999986e+02 1.831585000000000036e+03
1.200000000000000094e-01 1.475859999999999950e-01 3.730405000000000371e+01 1.698824999999999932e+02 1.831375000000000000e+03
1.209999999999999964e-01 1.475565000000000071e-01 3.616190000000000282e+01 1.689459999999999980e+02 1.831144999999999982e+03
1.219999999999999973e-01 1.475249999999999895e-01 3.501980000000000359e+01 1.679929999999999950e+02 1.830880000000000109e+03
1.229999999999999982e-01 1.474914999999999976e-01 3.389010000000000389e+01 1.670434999999999945e+02 1.830610000000000127e+03
1.239999999999999991e-01 1.474574999999999914e-01 3.278340000000000032e+01 1.661154999999999973e+02 1.830329999999999927e+03
1.250000000000000000e-01 1.474229999999999985e-01 3.170870000000000033e+01 1.652250000000000227e+02 1.830049999999999955e+03
1.260000000000000009e-01 1.473900000000000210e-01 3.067300000000000182e+01 1.643804999999999836e+02 1.829769999999999982e+03
1.270000000000000018e-01 1.473575000000000024e-01 2.968120000000000402e+01 1.635885000000000105e+02 1.829500000000000000e+03
1.280000000000000027e-01 1.473260000000000125e-01 2.873620000000000019e+01 1.628509999999999991e+02 1.829240000000000009e+03
1.290000000000000036e-01 1.472964999999999969e-01 2.783859999999999957e+01 1.621659999999999968e+02 1.828990000000000009e+03
1.300000000000000044e-01 1.472684999999999966e-01 2.698734999999999928e+01 1.615269999999999868e+02 1.828755000000000109e+03
1.310000000000000053e-01 1.472420000000000118e-01 2.617940000000000111e+01 1.609254999999999995e+02 1.828529999999999973e+03
1.320000000000000062e-01 1.472160000000000135e-01 2.541040000000000276e+01 1.603495000000000061e+02 1.828315000000000055e+03
1.330000000000000071e-01 1.471915000000000029e-01 2.467460000000000164e+01 1.597855000000000132e+02 1.828105000000000018e+03
1.340000000000000080e-01 1.471669999999999923e-01 2.396529999999999916e+01 1.592194999999999823e+02 1.827900000000000091e+03
1.350000000000000089e-01 1.471425000000000094e-01 2.327524999999999977e+01 1.586355000000000075e+02 1.827700000000000045e+03
1.360000000000000098e-01 1.471179999999999988e-01 2.259705000000000297e+01 1.580180000000000007e+02 1.827485000000000127e+03
1.370000000000000107e-01 1.470914999999999861e-01 2.192314999999999969e+01 1.573534999999999968e+02 1.827264999999999873e+03
1.380000000000000115e-01 1.470635000000000137e-01 2.124660000000000082e+01 1.566279999999999859e+02 1.827035000000000082e+03
1.390000000000000124e-01 1.470334999999999837e-01 2.056114999999999782e+01 1.558315000000000055e+02 1.826779999999999973e+03
1.400000000000000133e-01 1.470009999999999928e-01 1.986144999999999783e+01 1.549555000000000007e+02 1.826509999999999991e+03
1.410000000000000142e-01 1.469655000000000267e-01 1.914349999999999952e+01 1.539945000000000164e+02 1.826224999999999909e+03
1.420000000000000151e-01 1.469270000000000020e-01 1.840455000000000041e+01 1.529459999999999980e+02 1.825904999999999973e+03
1.430000000000000160e-01 1.468849999999999878e-01 1.764349999999999952e+01 1.518110000000000070e+02 1.825554999999999836e+03
1.440000000000000169e-01 1.468399999999999983e-01 1.686074999999999946e+01 1.505939999999999941e+02 1.825184999999999945e+03
1.450000000000000178e-01 1.467924999999999924e-01 1.605825000000000102e+01 1.493029999999999973e+02 1.824789999999999964e+03
1.459999999999999909e-01 1.467410000000000103e-01 1.523959999999999937e+01 1.479490000000000123e+02 1.824375000000000000e+03
1.469999999999999918e-01 1.466874999999999984e-01 1.440959999999999930e+01 1.465440000000000111e+02 1.823934999999999945e+03
1.479999999999999927e-01 1.466319999999999846e-01 1.357444999999999879e+01 1.451045000000000016e+02 1.823480000000000018e+03
1.489999999999999936e-01 1.465744999999999965e-01 1.274109999999999943e+01 1.436474999999999795e+02 1.823009999999999991e+03
1.499999999999999944e-01 1.465170000000000083e-01 1.191732000000000014e+01 1.421910000000000025e+02 1.822529999999999973e+03
1.509999999999999953e-01 1.464590000000000058e-01 1.111141500000000093e+01 1.407545000000000073e+02 1.822054999999999836e+03
1.519999999999999962e-01 1.464010000000000034e-01 1.033160999999999952e+01 1.393555000000000064e+02 1.821579999999999927e+03
1.529999999999999971e-01 1.463440000000000019e-01 9.586014999999999731e+00 1.380109999999999957e+02 1.821110000000000127e+03
1.539999999999999980e-01 1.462890000000000024e-01 8.882099999999999440e+00 1.367384999999999877e+02 1.820655000000000200e+03
1.549999999999999989e-01 1.462364999999999915e-01 8.226760000000000517e+00 1.355500000000000114e+02 1.820230000000000018e+03
1.559999999999999998e-01 1.461870000000000114e-01 7.625704999999999956e+00 1.344574999999999818e+02 1.819815000000000055e+03
1.570000000000000007e-01 1.461405000000000065e-01 7.083515000000000228e+00 1.334699999999999989e+02 1.819434999999999945e+03
1.580000000000000016e-01 1.460980000000000056e-01 6.603424999999999656e+00 1.325919999999999845e+02 1.819079999999999927e+03
1.590000000000000024e-01 1.460595000000000088e-01 6.187260000000000204e+00 1.318265000000000100e+02 1.818759999999999991e+03
