# t [s], A [cm^2], U [cm/s], P [cPa], c [cm/s]
1.000000000000000021e-03 5.452175000000000216e-01 3.672349999999997838e-03 1.033880000000000052e+02 1.436650000000000091e+03
2.000000000000000042e-03 5.452090000000000547e-01 -5.766549999999999194e-04 1.033689999999999998e+02 1.436644999999999982e+03
3.000000000000000062e-03 5.452489999999999837e-01 7.039535000000000931e-02 1.034335000000000093e+02 1.436664999999999964e+03
4.000000000000000083e-03 5.452995000000000481e-01 1.619642000000000026e-01 1.035390000000000015e+02 1.436695000000000164e+03
5.000000000000000104e-03 5.452970000000000317e-01 1.662750000000000061e-01 1.035399999999999920e+02 1.436700000000000045e+03
6.000000000000000125e-03 5.452500000000000124e-01 8.990650000000000031e-02 1.034035000000000082e+02 1.436670000000000073e+03
7.000000000000000146e-03 5.452000000000000179e-01 3.445499999999990237e-03 1.031955000000000098e+02 1.436625000000000000e+03
8.000000000000000167e-03 5.451405000000000278e-01 -1.067335000000000367e-01 1.029134999999999991e+02 1.436559999999999945e+03
9.000000000000001055e-03 5.450389999999999402e-01 -3.031899999999999595e-01 1.024844999999999970e+02 1.436464999999999918e+03
1.000000000000000194e-02 5.448855000000000226e-01 -6.019399999999999196e-01 1.018640000000000043e+02 1.436325000000000045e+03
1.099999999999999936e-02 5.446759999999999380e-01 -1.001270000000000104e+00 1.010224999999999937e+02 1.436130000000000109e+03
1.200000000000000025e-02 5.443995000000000362e-01 -1.511649999999999938e+00 9.991859999999999786e+01 1.435865000000000009e+03
1.300000000000000114e-02 5.440479999999999761e-01 -2.126815000000000122e+00 9.852710000000000434e+01 1.435530000000000200e+03
1.400000000000000203e-02 5.436429999999999874e-01 -2.789100000000000357e+00 9.688329999999999131e+01 1.435125000000000000e+03
1.499999999999999944e-02 5.432259999999999867e-01 -3.394724999999999770e+00 9.509629999999999939e+01 1.434664999999999964e+03
1.600000000000000033e-02 5.428425000000000056e-01 -3.833554999999999602e+00 9.330924999999999159e+01 1.434190000000000055e+03
1.700000000000000122e-02 5.425200000000000022e-01 -4.029796499999999781e+00 9.164924999999999500e+01 1.433730000000000018e+03
1.800000000000000211e-02 5.422635000000000094e-01 -3.961552999999999436e+00 9.018874999999999886e+01 1.433299999999999955e+03
1.900000000000000300e-02 5.420549999999999535e-01 -3.657645000000000035e+00 8.893434999999999491e+01 1.432905000000000200e+03
2.000000000000000042e-02 5.418674999999999464e-01 -3.180293700000000001e+00 8.783680000000001087e+01 1.432539999999999964e+03
2.100000000000000130e-02 5.416699999999999848e-01 -2.602519500000000097e+00 8.681510000000000105e+01 1.432190000000000055e+03
2.200000000000000219e-02 5.414415000000000200e-01 -1.986939999999999928e+00 8.578485000000000582e+01 1.431845000000000027e+03
2.299999999999999961e-02 5.411710000000000687e-01 -1.371120000000000116e+00 8.468330000000000268e+01 1.431485000000000127e+03
2.400000000000000050e-02 5.408625000000000238e-01 -7.634150000000001768e-01 8.348460000000000036e+01 1.431099999999999909e+03
2.500000000000000139e-02 5.405290000000000372e-01 -1.498099999999999987e-01 8.219904999999999973e+01 1.430700000000000045e+03
2.600000000000000228e-02 5.401875000000000426e-01 4.918900000000001604e-01 8.086099999999999000e+01 1.430284999999999854e+03
2.700000000000000316e-02 5.398495000000000932e-01 1.176749999999999741e+00 7.950934999999999775e+01 1.429860000000000127e+03
2.800000000000000058e-02 5.395189999999999708e-01 1.901639999999999997e+00 7.816989999999999839e+01 1.429440000000000055e+03
2.900000000000000147e-02 5.391909999999999759e-01 2.641079999999999650e+00 7.684350000000000591e+01 1.429025000000000091e+03
3.000000000000000236e-02 5.388509999999999689e-01 3.349899999999999878e+00 7.550280000000000769e+01 1.428599999999999909e+03
3.099999999999999978e-02 5.384809999999999874e-01 3.971110000000000362e+00 7.409764999999998736e+01 1.428159999999999854e+03
3.200000000000000067e-02 5.380624999999999991e-01 4.446550000000000225e+00 7.256589999999999918e+01 1.427694999999999936e+03
3.300000000000000155e-02 5.375809999999999755e-01 4.728565000000000573e+00 7.084799999999999898e+01 1.427195000000000164e+03
3.400000000000000244e-02 5.370304999999999662e-01 4.789294999999999192e+00 6.890255000000000507e+01 1.426634999999999991e+03
3.500000000000000333e-02 5.364145000000000163e-01 4.626699999999999591e+00 6.671809999999999263e+01 1.426025000000000091e+03
3.600000000000000422e-02 5.357480000000000020e-01 4.265435000000000088e+00 6.431945000000000334e+01 1.425355000000000018e+03
3.700000000000000511e-02 5.350534999999999597e-01 3.752350000000000296e+00 6.176700000000000301e+01 1.424655000000000200e+03
3.799999999999999906e-02 5.343590000000000284e-01 3.148725000000000218e+00 5.914950000000000330e+01 1.423930000000000064e+03
3.899999999999999994e-02 5.336935000000000429e-01 2.521095000000000308e+00 5.657260000000000133e+01 1.423210000000000036e+03
4.000000000000000083e-02 5.330835000000000434e-01 1.932804999999999662e+00 5.414629999999999654e+01 1.422519999999999982e+03
4.100000000000000172e-02 5.325520000000000254e-01 1.437779999999999614e+00 5.197315000000000396e+01 1.421884999999999991e+03
4.200000000000000261e-02 5.321150000000000047e-01 1.077170000000000183e+00 5.013994999999999891e+01 1.421329999999999927e+03
4.300000000000000350e-02 5.317844999999999933e-01 8.786749999999998728e-01 4.871184999999999832e+01 1.420875000000000000e+03
4.400000000000000439e-02 5.315644999999999953e-01 8.579399999999999249e-01 4.773130000000000450e+01 1.420529999999999973e+03
4.499999999999999833e-02 5.314575000000000271e-01 1.021224999999999827e+00 4.721909999999999741e+01 1.420304999999999836e+03
4.599999999999999922e-02 5.314609999999999612e-01 1.368611500000000092e+00 4.717804999999999893e+01 1.420210000000000036e+03
4.700000000000000011e-02 5.315710000000000157e-01 1.896829499999999946e+00 4.759744999999999493e+01 1.420240000000000009e+03
4.800000000000000100e-02 5.317834999999999646e-01 2.601313314999999626e+00 4.845765000000000100e+01 1.420394999999999982e+03
4.900000000000000189e-02 5.320924999999999683e-01 3.477128500000000066e+00 4.973359999999999559e+01 1.420670000000000073e+03
5.000000000000000278e-02 5.324929999999999941e-01 4.518794499999999381e+00 5.139719999999999800e+01 1.421054999999999836e+03
5.100000000000000366e-02 5.329774999999999929e-01 5.719358999999999860e+00 5.341835000000000377e+01 1.421550000000000182e+03
5.200000000000000455e-02 5.335400000000000142e-01 7.069046999999999414e+00 5.576440000000000197e+01 1.422140000000000100e+03
5.300000000000000544e-02 5.341715000000000213e-01 8.554216999999999516e+00 5.839985000000000070e+01 1.422820000000000164e+03
5.399999999999999939e-02 5.348625000000000185e-01 1.015665999999999869e+01 6.128535000000000110e+01 1.423575000000000045e+03
5.500000000000000028e-02 5.356020000000000225e-01 1.185369999999999990e+01 6.437774999999999181e+01 1.424400000000000091e+03
5.600000000000000117e-02 5.363775000000000626e-01 1.361888500000000057e+01 6.763024999999998954e+01 1.425275000000000091e+03
5.700000000000000205e-02 5.371770000000000156e-01 1.542337000000000025e+01 7.099370000000000402e+01 1.426195000000000164e+03
5.800000000000000294e-02 5.379880000000000217e-01 1.723745500000000064e+01 7.441864999999999952e+01 1.427144999999999982e+03
5.900000000000000383e-02 5.387990000000000279e-01 1.903237999999999985e+01 7.785710000000000264e+01 1.428109999999999900e+03
6.000000000000000472e-02 5.395999999999999686e-01 2.078180000000000049e+01 8.126490000000001146e+01 1.429085000000000036e+03
6.099999999999999867e-02 5.403824999999999878e-01 2.246304999999999907e+01 8.460375000000000512e+01 1.430039999999999964e+03
6.199999999999999956e-02 5.411405000000000243e-01 2.405805000000000149e+01 8.784260000000000446e+01 1.430990000000000009e+03
6.300000000000000044e-02 5.418689999999999340e-01 2.555365000000000109e+01 9.095895000000000152e+01 1.431909999999999854e+03
6.400000000000000133e-02 5.425664999999999516e-01 2.694144999999999968e+01 9.393855000000000643e+01 1.432800000000000182e+03
6.500000000000000222e-02 5.432325000000000070e-01 2.821764999999999901e+01 9.677524999999999977e+01 1.433655000000000200e+03
6.600000000000000311e-02 5.438684999999999770e-01 2.938260000000000005e+01 9.947094999999998777e+01 1.434480000000000018e+03
6.700000000000000400e-02 5.444769999999999888e-01 3.043965000000000032e+01 1.020340999999999951e+02 1.435269999999999982e+03
6.800000000000000488e-02 5.450610000000000177e-01 3.139509999999999934e+01 1.044770000000000039e+02 1.436029999999999973e+03
6.900000000000000577e-02 5.456254999999999855e-01 3.225695000000000334e+01 1.068164999999999907e+02 1.436759999999999991e+03
7.000000000000000666e-02 5.461739999999999373e-01 3.303454999999999586e+01 1.090715000000000003e+02 1.437460000000000036e+03
7.100000000000000755e-02 5.467109999999999470e-01 3.373789999999999623e+01 1.112620000000000005e+02 1.438150000000000091e+03
7.200000000000000844e-02 5.472414999999999363e-01 3.437709999999999866e+01 1.134064999999999941e+02 1.438819999999999936e+03
7.300000000000000933e-02 5.477680000000000327e-01 3.496144999999999925e+01 1.155219999999999914e+02 1.439480000000000018e+03
7.399999999999999634e-02 5.482939999999999481e-01 3.549949999999999761e+01 1.176229999999999905e+02 1.440130000000000109e+03
7.499999999999999722e-02 5.488210000000000033e-01 3.599800000000000466e+01 1.197199999999999989e+02 1.440779999999999973e+03
7.599999999999999811e-02 5.493510000000000337e-01 3.646189999999999998e+01 1.218199999999999932e+02 1.441430000000000064e+03
7.699999999999999900e-02 5.498815000000000230e-01 3.689400000000000546e+01 1.239225000000000136e+02 1.442075000000000045e+03
7.799999999999999989e-02 5.504130000000000411e-01 3.729449999999999932e+01 1.260240000000000009e+02 1.442719999999999800e+03
7.900000000000000078e-02 5.509410000000000140e-01 3.766169999999999618e+01 1.281165000000000020e+02 1.443365000000000009e+03
8.000000000000000167e-02 5.514630000000000365e-01 3.799164999999999992e+01 1.301864999999999952e+02 1.444000000000000000e+03
8.100000000000000255e-02 5.519739999999999647e-01 3.827864999999999895e+01 1.322160000000000082e+02 1.444625000000000000e+03
8.200000000000000344e-02 5.524694999999999467e-01 3.851604999999999990e+01 1.341870000000000118e+02 1.445230000000000018e+03
8.300000000000000433e-02 5.529429999999999623e-01 3.869629999999999370e+01 1.360779999999999745e+02 1.445825000000000045e+03
8.400000000000000522e-02 5.533909999999999663e-01 3.881184999999999974e+01 1.378665000000000020e+02 1.446384999999999991e+03
8.500000000000000611e-02 5.538075000000000081e-01 3.885559999999999548e+01 1.395330000000000155e+02 1.446914999999999964e+03
8.600000000000000699e-02 5.541884999999999728e-01 3.882104999999999961e+01 1.410575000000000045e+02 1.447400000000000091e+03
8.700000000000000788e-02 5.545305000000000373e-01 3.870329999999999870e+01 1.424245000000000232e+02 1.447855000000000018e+03
8.800000000000000877e-02 5.548305000000000042e-01 3.849875000000000114e+01 1.436209999999999809e+02 1.448255000000000109e+03
8.899999999999999578e-02 5.550865000000000382e-01 3.820560000000000400e+01 1.446370000000000005e+02 1.448599999999999909e+03
8.999999999999999667e-02 5.552979999999999583e-01 3.782399999999999807e+01 1.454695000000000107e+02 1.448900000000000091e+03
9.099999999999999756e-02 5.554649999999999865e-01 3.735580000000000211e+01 1.461159999999999854e+02 1.449139999999999873e+03
9.199999999999999845e-02 5.555885000000000407e-01 3.680494999999999806e+01 1.465810000000000173e+02 1.449335000000000036e+03
9.299999999999999933e-02 5.556710000000000260e-01 3.617699999999999960e+01 1.468720000000000141e+02 1.449474999999999909e+03
9.400000000000000022e-02 5.557149999999999590e-01 3.547905000000000086e+01 1.470000000000000000e+02 1.449565000000000055e+03
9.500000000000000111e-02 5.557229999999999670e-01 3.471970000000000312e+01 1.469784999999999968e+02 1.449605000000000018e+03
9.600000000000000200e-02 5.557005000000000416e-01 3.390854999999999819e+01 1.468254999999999768e+02 1.449610000000000127e+03
9.700000000000000289e-02 5.556514999999999649e-01 3.305604999999999905e+01 1.465575000000000045e+02 1.449575000000000045e+03
9.800000000000000377e-02 5.555799999999999628e-01 3.217320000000000135e+01 1.461965000000000146e+02 1.449505000000000109e+03
9.900000000000000466e-02 5.554919999999999858e-01 3.127109999999999701e+01 1.457609999999999957e+02 1.449414999999999964e+03
1.000000000000000056e-01 5.553905000000000092e-01 3.036069999999999780e+01 1.452724999999999795e+02 1.449300000000000182e+03
1.010000000000000064e-01 5.552819999999999423e-01 2.945254999999999868e+01 1.447500000000000000e+02 1.449170000000000073e+03
1.020000000000000073e-01 5.551690000000000236e-01 2.855620000000000047e+01 1.442119999999999891e+02 1.449029999999999973e+03
1.030000000000000082e-01 5.550570000000000226e-01 2.768019999999999925e+01 1.436744999999999948e+02 1.448884999999999991e+03
1.040000000000000091e-01 5.549474999999999270e-01 2.683174999999999955e+01 1.431525000000000034e+02 1.448740000000000009e+03
1.050000000000000100e-01 5.548435000000000450e-01 2.601620000000000132e+01 1.426564999999999941e+02 1.448599999999999909e+03
1.059999999999999970e-01 5.547474999999999490e-01 2.523750000000000071e+01 1.421954999999999814e+02 1.448465000000000146e+03
1.069999999999999979e-01 5.546590000000000131e-01 2.449765000000000015e+01 1.417744999999999891e+02 1.448335000000000036e+03
1.079999999999999988e-01 5.545795000000000030e-01 2.379684999999999917e+01 1.413965000000000032e+02 1.448215000000000146e+03
1.089999999999999997e-01 5.545085000000000708e-01 2.313370000000000104e+01 1.410595000000000141e+02 1.448105000000000018e+03
1.100000000000000006e-01 5.544445000000000068e-01 2.250515000000000043e+01 1.407605000000000075e+02 1.448005000000000109e+03
1.110000000000000014e-01 5.543865000000000043e-01 2.190690000000000026e+01 1.404934999999999832e+02 1.447920000000000073e+03
1.120000000000000023e-01 5.543320000000000469e-01 2.133364999999999867e+01 1.402510000000000048e+02 1.447835000000000036e+03
1.130000000000000032e-01 5.542789999999999662e-01 2.077920000000000300e+01 1.400224999999999795e+02 1.447755000000000109e+03
1.140000000000000041e-01 5.542245000000000088e-01 2.023689999999999856e+01 1.397990000000000066e+02 1.447680000000000064e+03
1.150000000000000050e-01 5.541669999999999652e-01 1.969999999999999929e+01 1.395690000000000168e+02 1.447605000000000018e+03
1.160000000000000059e-01 5.541035000000000821e-01 1.916190000000000282e+01 1.393220000000000027e+02 1.447525000000000091e+03
1.170000000000000068e-01 5.540325000000000388e-01 1.861639999999999873e+01 1.390484999999999900e+02 1.447440000000000055e+03
1.180000000000000077e-01 5.539515000000000411e-01 1.805790000000000006e+01 1.387400000000000091e+02 1.447345000000000027e+03
1.190000000000000085e-01 5.538594999999999491e-01 1.748179999999999978e+01 1.383879999999999768e+02 1.447240000000000009e+03
1.200000000000000094e-01 5.537549999999999972e-01 1.688455000000000084e+01 1.379884999999999877e+02 1.447130000000000109e+03
1.209999999999999964e-01 5.536370000000000458e-01 1.626389999999999958e+01 1.375380000000000109e+02 1.447000000000000000e+03
1.219999999999999973e-01 5.535069999999999713e-01 1.561885000000000012e+01 1.370349999999999966e+02 1.446860000000000127e+03
1.229999999999999982e-01 5.533654999999999546e-01 1.494964999999999833e+01 1.364805000000000064e+02 1.446700000000000045e+03
1.239999999999999991e-01 5.532120000000000370e-01 1.425812000000000168e+01 1.358785000000000025e+02 1.446534999999999854e+03
1.250000000000000000e-01 5.530494999999999717e-01 1.354713500000000082e+01 1.352350000000000136e+02 1.446355000000000018e+03
1.260000000000000009e-01 5.528800000000000381e-01 1.282092499999999902e+01 1.345570000000000164e+02 1.446164999999999964e+03
1.270000000000000018e-01 5.527055000000000717e-01 1.208465499999999970e+01 1.338539999999999850e+02 1.445965000000000146e+03
1.280000000000000027e-01 5.525280000000000191e-01 1.134429499999999891e+01 1.331365000000000123e+02 1.445759999999999991e+03
1.290000000000000036e-01 5.523514999999999953e-01 1.060659000000000063e+01 1.324150000000000205e+02 1.445549999999999955e+03
1.300000000000000044e-01 5.521785000000000165e-01 9.878519999999999968e+00 1.317030000000000030e+02 1.445344999999999800e+03
1.310000000000000053e-01 5.520119999999999472e-01 9.167284999999999684e+00 1.310120000000000005e+02 1.445140000000000100e+03
1.320000000000000062e-01 5.518545000000000256e-01 8.480005000000000237e+00 1.303534999999999968e+02 1.444945000000000164e+03
1.330000000000000071e-01 5.517090000000000050e-01 7.823399999999999466e+00 1.297390000000000043e+02 1.444764999999999873e+03
1.340000000000000080e-01 5.515769999999999840e-01 7.203585000000000349e+00 1.291779999999999973e+02 1.444590000000000146e+03
1.350000000000000089e-01 5.514615000000000489e-01 6.625935000000000130e+00 1.286790000000000020e+02 1.444434999999999945e+03
1.360000000000000098e-01 5.513630000000000475e-01 6.094770000000000465e+00 1.282489999999999952e+02 1.444295000000000073e+03
1.370000000000000107e-01 5.512825000000000086e-01 5.613350000000000506e+00 1.278925000000000125e+02 1.444175000000000182e+03
1.380000000000000115e-01 5.512209999999999610e-01 5.183735000000000426e+00 1.276115000000000066e+02 1.444075000000000045e+03
1.390000000000000124e-01 5.511774999999999869e-01 4.806745000000000267e+00 1.274074999999999989e+02 1.444000000000000000e+03
1.400000000000000133e-01 5.511520000000000863e-01 4.481975000000000264e+00 1.272775000000000034e+02 1.443940000000000055e+03
1.410000000000000142e-01 5.511430000000000495e-01 4.207849999999999646e+00 1.272180000000000035e+02 1.443905000000000200e+03
1.420000000000000151e-01 5.511494999999999589e-01 3.981749999999999901e+00 1.272240000000000038e+02 1.443884999999999991e+03
1.430000000000000160e-01 5.511684999999999501e-01 3.800099999999999589e+00 1.272884999999999991e+02 1.443884999999999991e+03
1.440000000000000169e-01 5.511989999999999945e-01 3.658584999999999976e+00 1.274025000000000034e+02 1.443900000000000091e+03
1.450000000000000178e-01 5.512384999999999646e-01 3.552305000000000046e+00 1.275574999999999903e+02 1.443925000000000182e+03
1.459999999999999909e-01 5.512844999999999551e-01 3.475964999999999971e+00 1.277429999999999950e+02 1.443970000000000027e+03
1.469999999999999918e-01 5.513354999999999784e-01 3.424090000000000078e+00 1.279505000000000052e+02 1.444009999999999991e+03
1.479999999999999927e-01 5.513874999999999194e-01 3.391180000000000305e+00 1.281689999999999827e+02 1.444065000000000055e+03
1.489999999999999936e-01 5.514400000000000412e-01 3.371889999999999610e+00 1.283899999999999864e+02 1.444115000000000009e+03
1.499999999999999944e-01 5.514904999999999946e-01 3.361184999999999867e+00 1.286059999999999945e+02 1.444170000000000073e+03
1.509999999999999953e-01 5.515369999999999440e-01 3.354445000000000121e+00 1.288079999999999927e+02 1.444224999999999909e+03
1.519999999999999962e-01 5.515790000000000415e-01 3.347560000000000091e+00 1.289915000000000020e+02 1.444275000000000091e+03
1.529999999999999971e-01 5.516140000000000487e-01 3.337010000000000254e+00 1.291499999999999773e+02 1.444319999999999936e+03
1.539999999999999980e-01 5.516429999999999945e-01 3.319900000000000073e+00 1.292805000000000177e+02 1.444359999999999900e+03
1.549999999999999989e-01 5.516645000000000021e-01 3.293974999999999653e+00 1.293804999999999836e+02 1.444389999999999873e+03
1.559999999999999998e-01 5.516780000000000017e-01 3.257600000000000051e+00 1.294485000000000241e+02 1.444414999999999964e+03
1.570000000000000007e-01 5.516845000000000221e-01 3.209749999999999659e+00 1.294840000000000089e+02 1.444424999999999955e+03
1.580000000000000016e-01 5.516834999999999933e-01 3.149964999999999904e+00 1.294879999999999995e+02 1.444429999999999836e+03
1.590000000000000024e-01 5.516760000000000552e-01 3.078280000000000349e+00 1.294619999999999891e+02 1.444434999999999945e+03
