# t [s], A [cm^2], U [cm/s], P [cPa], c [cm/s]
1.000000000000000021e-03 4.770065000000000000e-01 4.125400000000001288e-03 1.009499999999999886e+02 1.523519999999999982e+03
2.000000000000000042e-03 4.769990000000000063e-01 -1.388100000000000184e-03 1.009300000000000068e+02 1.523519999999999982e+03
3.000000000000000062e-03 4.770274999999999377e-01 5.869060000000000249e-02 1.009894999999999925e+02 1.523529999999999973e+03
4.000000000000000083e-03 4.770685000000000064e-01 1.482918500000000028e-01 1.010995000000000061e+02 1.523565000000000055e+03
5.000000000000000104e-03 4.770710000000000228e-01 1.629774999999999974e-01 1.011159999999999997e+02 1.523575000000000045e+03
6.000000000000000125e-03 4.770360000000000156e-01 9.783150000000000179e-02 1.009969999999999999e+02 1.523549999999999955e+03
7.000000000000000146e-03 4.769995000000000207e-01 2.380450000000000621e-02 1.008119999999999976e+02 1.523500000000000000e+03
8.000000000000000167e-03 4.769600000000000506e-01 -6.201149999999999718e-02 1.005699999999999932e+02 1.523440000000000055e+03
9.000000000000001055e-03 4.768924999999999970e-01 -2.183815000000000062e-01 1.002052500000000066e+02 1.523349999999999909e+03
1.000000000000000194e-02 4.767879999999999896e-01 -4.672850000000000614e-01 9.966839999999999122e+01 1.523215000000000146e+03
1.099999999999999936e-02 4.766400000000000081e-01 -8.154449999999998644e-01 9.892484999999999218e+01 1.523025000000000091e+03
1.200000000000000025e-02 4.764384999999999870e-01 -1.278349999999999875e+00 9.792520000000000380e+01 1.522765000000000100e+03
1.300000000000000114e-02 4.761794999999999778e-01 -1.849095000000000155e+00 9.664419999999999789e+01 1.522424999999999955e+03
1.400000000000000203e-02 4.758824999999999861e-01 -2.467624999999999957e+00 9.512334999999998786e+01 1.522014999999999873e+03
1.499999999999999944e-02 4.755804999999999616e-01 -3.033085000000000253e+00 9.347384999999999877e+01 1.521549999999999955e+03
1.600000000000000033e-02 4.753085000000000226e-01 -3.445810999999999957e+00 9.183154999999999291e+01 1.521075000000000045e+03
1.700000000000000122e-02 4.750820000000000043e-01 -3.644046499999999966e+00 9.030549999999999500e+01 1.520610000000000127e+03
1.800000000000000211e-02 4.748994999999999744e-01 -3.617031299999999838e+00 8.894740000000000180e+01 1.520170000000000073e+03
1.900000000000000300e-02 4.747449999999999726e-01 -3.396975049999999996e+00 8.774764999999999304e+01 1.519759999999999991e+03
2.000000000000000042e-02 4.745964999999999767e-01 -3.039917050000000120e+00 8.665180000000000859e+01 1.519375000000000000e+03
2.100000000000000130e-02 4.744329999999999936e-01 -2.604615000000000347e+00 8.558615000000000350e+01 1.518990000000000009e+03
2.200000000000000219e-02 4.742425000000000113e-01 -2.135394999999999932e+00 8.448335000000000150e+01 1.518595000000000027e+03
2.299999999999999961e-02 4.740209999999999702e-01 -1.652815000000000367e+00 8.330254999999999654e+01 1.518184999999999945e+03
2.400000000000000050e-02 4.737755000000000161e-01 -1.153790000000000093e+00 8.203684999999998695e+01 1.517750000000000000e+03
2.500000000000000139e-02 4.735179999999999945e-01 -6.201449999999997242e-01 8.070885000000001241e+01 1.517299999999999955e+03
2.600000000000000228e-02 4.732595000000000551e-01 -3.165000000000040004e-02 7.935614999999999952e+01 1.516840000000000146e+03
2.700000000000000316e-02 4.730075000000000252e-01 6.215950000000001197e-01 7.801399999999999579e+01 1.516375000000000000e+03
2.800000000000000058e-02 4.727630000000000443e-01 1.331409999999999982e+00 7.670054999999999268e+01 1.515920000000000073e+03
2.900000000000000147e-02 4.725194999999999812e-01 2.069860000000000255e+00 7.540925000000000011e+01 1.515464999999999918e+03
3.000000000000000236e-02 4.722659999999999636e-01 2.793364999999999654e+00 7.410869999999999891e+01 1.515014999999999873e+03
3.099999999999999978e-02 4.719885000000000330e-01 3.450735000000000330e+00 7.274965000000000259e+01 1.514539999999999964e+03
3.200000000000000067e-02 4.716749999999999554e-01 3.993249999999999744e+00 7.127725000000000932e+01 1.514050000000000182e+03
3.300000000000000155e-02 4.713180000000000147e-01 4.384565000000000268e+00 6.964494999999999436e+01 1.513514999999999873e+03
3.400000000000000244e-02 4.709160000000000013e-01 4.607849999999999113e+00 6.782744999999999891e+01 1.512934999999999945e+03
3.500000000000000333e-02 4.704765000000000197e-01 4.669335000000000235e+00 6.582974999999999000e+01 1.512309999999999945e+03
3.600000000000000422e-02 4.700119999999999854e-01 4.596719999999999473e+00 6.368939999999999912e+01 1.511655000000000200e+03
3.700000000000000511e-02 4.695409999999999862e-01 4.433345000000000091e+00 6.147220000000000084e+01 1.510965000000000146e+03
3.799999999999999906e-02 4.690834999999999866e-01 4.230444999999999567e+00 5.926344999999999885e+01 1.510285000000000082e+03
3.899999999999999994e-02 4.686590000000000478e-01 4.039144999999999541e+00 5.715614999999999668e+01 1.509615000000000009e+03
4.000000000000000083e-02 4.682834999999999637e-01 3.904444999999999943e+00 5.524034999999999940e+01 1.509005000000000109e+03
4.100000000000000172e-02 4.679699999999999971e-01 3.861285000000000078e+00 5.359440000000000026e+01 1.508454999999999927e+03
4.200000000000000261e-02 4.677255000000000162e-01 3.933855000000000324e+00 5.228000000000000114e+01 1.507994999999999891e+03
4.300000000000000350e-02 4.675559999999999716e-01 4.136431499999999595e+00 5.134005000000000507e+01 1.507639999999999873e+03
4.400000000000000439e-02 4.674629999999999619e-01 4.475970000000000226e+00 5.080010000000000048e+01 1.507404999999999973e+03
4.499999999999999833e-02 4.674460000000000282e-01 4.954990000000000450e+00 5.067105000000000103e+01 1.507289999999999964e+03
4.599999999999999922e-02 4.675039999999999751e-01 5.574284999999999712e+00 5.095354999999999990e+01 1.507295000000000073e+03
4.700000000000000011e-02 4.676365000000000105e-01 6.334839999999999804e+00 5.164164999999999850e+01 1.507429999999999836e+03
4.800000000000000100e-02 4.678420000000000356e-01 7.238540000000000418e+00 5.272594999999999743e+01 1.507684999999999945e+03
4.900000000000000189e-02 4.681195000000000217e-01 8.287860000000000227e+00 5.419550000000000267e+01 1.508059999999999945e+03
5.000000000000000278e-02 4.684670000000000223e-01 9.484619999999999607e+00 5.603754999999999598e+01 1.508559999999999945e+03
5.100000000000000366e-02 4.688829999999999942e-01 1.082840500000000006e+01 5.823724999999999596e+01 1.509164999999999964e+03
5.200000000000000455e-02 4.693634999999999891e-01 1.231501000000000090e+01 6.077570000000000050e+01 1.509890000000000100e+03
5.300000000000000544e-02 4.699029999999999596e-01 1.393541499999999900e+01 6.362890000000000157e+01 1.510710000000000036e+03
5.399999999999999939e-02 4.704955000000000109e-01 1.567537000000000091e+01 6.676690000000000680e+01 1.511630000000000109e+03
5.500000000000000028e-02 4.711345000000000116e-01 1.751597499999999741e+01 7.015380000000000393e+01 1.512634999999999991e+03
5.600000000000000117e-02 4.718094999999999928e-01 1.943454999999999799e+01 7.374854999999999450e+01 1.513710000000000036e+03
5.700000000000000205e-02 4.725120000000000431e-01 2.140620000000000189e+01 7.750659999999999172e+01 1.514844999999999800e+03
5.800000000000000294e-02 4.732345000000000024e-01 2.340530000000000044e+01 8.138224999999999909e+01 1.516030000000000200e+03
5.900000000000000383e-02 4.739665000000000128e-01 2.540715000000000146e+01 8.533035000000000991e+01 1.517250000000000000e+03
6.000000000000000472e-02 4.747025000000000272e-01 2.738900000000000290e+01 8.931000000000000227e+01 1.518494999999999891e+03
6.099999999999999867e-02 4.754349999999999965e-01 2.933149999999999835e+01 9.328369999999999607e+01 1.519750000000000000e+03
6.199999999999999956e-02 4.761604999999999865e-01 3.121865000000000023e+01 9.722184999999998922e+01 1.521009999999999991e+03
6.300000000000000044e-02 4.768744999999999790e-01 3.303839999999999577e+01 1.011013000000000090e+02 1.522255000000000109e+03
6.400000000000000133e-02 4.775749999999999718e-01 3.478209999999999980e+01 1.049051499999999919e+02 1.523490000000000009e+03
6.500000000000000222e-02 4.782619999999999649e-01 3.644435000000000002e+01 1.086245499999999993e+02 1.524710000000000036e+03
6.600000000000000311e-02 4.789349999999999996e-01 3.802245000000000630e+01 1.122556000000000012e+02 1.525905000000000200e+03
6.700000000000000400e-02 4.795940000000000203e-01 3.951554999999999751e+01 1.157995000000000090e+02 1.527079999999999927e+03
6.800000000000000488e-02 4.802405000000000146e-01 4.092450000000000188e+01 1.192605000000000075e+02 1.528230000000000018e+03
6.900000000000000577e-02 4.808759999999999701e-01 4.225084999999999980e+01 1.226444999999999936e+02 1.529369999999999891e+03
7.000000000000000666e-02 4.815015000000000267e-01 4.349679999999999325e+01 1.259594999999999914e+02 1.530474999999999909e+03
7.100000000000000755e-02 4.821179999999999910e-01 4.466424999999999557e+01 1.292124999999999773e+02 1.531569999999999936e+03
7.200000000000000844e-02 4.827259999999999884e-01 4.575480000000000302e+01 1.324079999999999870e+02 1.532650000000000091e+03
7.300000000000000933e-02 4.833254999999999635e-01 4.676944999999999908e+01 1.355504999999999995e+02 1.533715000000000146e+03
7.399999999999999634e-02 4.839160000000000128e-01 4.770810000000000173e+01 1.386405000000000030e+02 1.534759999999999991e+03
7.499999999999999722e-02 4.844975000000000254e-01 4.856974999999999909e+01 1.416744999999999948e+02 1.535789999999999964e+03
7.599999999999999811e-02 4.850679999999999992e-01 4.935250000000000625e+01 1.446469999999999914e+02 1.536799999999999955e+03
7.699999999999999900e-02 4.856249999999999734e-01 5.005360000000000298e+01 1.475494999999999948e+02 1.537789999999999964e+03
7.799999999999999989e-02 4.861664999999999459e-01 5.066960000000000264e+01 1.503700000000000045e+02 1.538759999999999991e+03
7.900000000000000078e-02 4.866900000000000115e-01 5.119680000000000319e+01 1.530960000000000036e+02 1.539695000000000164e+03
8.000000000000000167e-02 4.871925000000000283e-01 5.163155000000000427e+01 1.557130000000000223e+02 1.540599999999999909e+03
8.100000000000000255e-02 4.876705000000000068e-01 5.197050000000000125e+01 1.582065000000000055e+02 1.541470000000000027e+03
8.200000000000000344e-02 4.881229999999999736e-01 5.221074999999999733e+01 1.605625000000000000e+02 1.542299999999999955e+03
8.300000000000000433e-02 4.885470000000000645e-01 5.235060000000000002e+01 1.627690000000000055e+02 1.543075000000000045e+03
8.400000000000000522e-02 4.889405000000000001e-01 5.238885000000000502e+01 1.648145000000000095e+02 1.543809999999999945e+03
8.500000000000000611e-02 4.893020000000000147e-01 5.232580000000000098e+01 1.666910000000000025e+02 1.544485000000000127e+03
8.600000000000000699e-02 4.896310000000000384e-01 5.216259999999999764e+01 1.683924999999999841e+02 1.545110000000000127e+03
8.700000000000000788e-02 4.899274999999999602e-01 5.190189999999999770e+01 1.699155000000000086e+02 1.545670000000000073e+03
8.800000000000000877e-02 4.901904999999999735e-01 5.154715000000000202e+01 1.712599999999999909e+02 1.546179999999999836e+03
8.899999999999999578e-02 4.904209999999999958e-01 5.110304999999999609e+01 1.724284999999999854e+02 1.546630000000000109e+03
8.999999999999999667e-02 4.906205000000000149e-01 5.057545000000000357e+01 1.734250000000000114e+02 1.547019999999999982e+03
9.099999999999999756e-02 4.907894999999999897e-01 4.997109999999999985e+01 1.742574999999999932e+02 1.547365000000000009e+03
9.199999999999999845e-02 4.909299999999999775e-01 4.929755000000000109e+01 1.749354999999999905e+02 1.547644999999999982e+03
9.299999999999999933e-02 4.910449999999999537e-01 4.856334999999999980e+01 1.754705000000000155e+02 1.547884999999999991e+03
9.400000000000000022e-02 4.911360000000000170e-01 4.777729999999999677e+01 1.758745000000000118e+02 1.548075000000000045e+03
9.500000000000000111e-02 4.912054999999999616e-01 4.694910000000000139e+01 1.761625000000000227e+02 1.548220000000000027e+03
9.600000000000000200e-02 4.912570000000000547e-01 4.608825000000000216e+01 1.763494999999999777e+02 1.548329999999999927e+03
9.700000000000000289e-02 4.912929999999999797e-01 4.520444999999999425e+01 1.764505000000000052e+02 1.548410000000000082e+03
9.800000000000000377e-02 4.913160000000000305e-01 4.430705000000000382e+01 1.764815000000000111e+02 1.548460000000000036e+03
9.900000000000000466e-02 4.913284999999999458e-01 4.340489999999999782e+01 1.764555000000000007e+02 1.548480000000000018e+03
1.000000000000000056e-01 4.913339999999999930e-01 4.250589999999999691e+01 1.763880000000000052e+02 1.548490000000000009e+03
1.010000000000000064e-01 4.913330000000000197e-01 4.161695000000000277e+01 1.762895000000000039e+02 1.548480000000000018e+03
1.020000000000000073e-01 4.913284999999999458e-01 4.074360000000000070e+01 1.761709999999999923e+02 1.548465000000000146e+03
1.030000000000000082e-01 4.913210000000000077e-01 3.989015000000000555e+01 1.760405000000000086e+02 1.548434999999999945e+03
1.040000000000000091e-01 4.913109999999999977e-01 3.905915000000000248e+01 1.759019999999999868e+02 1.548400000000000091e+03
1.050000000000000100e-01 4.912990000000000412e-01 3.825175000000000125e+01 1.757599999999999909e+02 1.548364999999999782e+03
1.059999999999999970e-01 4.912850000000000272e-01 3.746779999999999688e+01 1.756145000000000209e+02 1.548320000000000164e+03
1.069999999999999979e-01 4.912689999999999557e-01 3.670560000000000400e+01 1.754635000000000105e+02 1.548269999999999982e+03
1.079999999999999988e-01 4.912495000000000056e-01 3.596255000000000024e+01 1.753025000000000091e+02 1.548220000000000027e+03
1.089999999999999997e-01 4.912254999999999816e-01 3.523525000000000063e+01 1.751274999999999977e+02 1.548164999999999964e+03
1.100000000000000006e-01 4.911959999999999660e-01 3.451940000000000452e+01 1.749309999999999832e+02 1.548099999999999909e+03
1.110000000000000014e-01 4.911590000000000122e-01 3.381069999999999709e+01 1.747065000000000055e+02 1.548029999999999973e+03
1.120000000000000023e-01 4.911145000000000094e-01 3.310444999999999993e+01 1.744459999999999980e+02 1.547945000000000164e+03
1.130000000000000032e-01 4.910605000000000109e-01 3.239639999999999986e+01 1.741434999999999889e+02 1.547849999999999909e+03
1.140000000000000041e-01 4.909959999999999880e-01 3.168234999999999957e+01 1.737925000000000182e+02 1.547735000000000127e+03
1.150000000000000050e-01 4.909200000000000230e-01 3.095884999999999820e+01 1.733870000000000005e+02 1.547609999999999900e+03
1.160000000000000059e-01 4.908320000000000460e-01 3.022305000000000064e+01 1.729234999999999900e+02 1.547470000000000027e+03
1.170000000000000068e-01 4.907320000000000015e-01 2.947289999999999921e+01 1.723994999999999891e+02 1.547305000000000064e+03
1.180000000000000077e-01 4.906200000000000006e-01 2.870714999999999861e+01 1.718129999999999882e+02 1.547119999999999891e+03
1.190000000000000085e-01 4.904965000000000019e-01 2.792559999999999931e+01 1.711664999999999850e+02 1.546920000000000073e+03
1.200000000000000094e-01 4.903615000000000057e-01 2.712890000000000157e+01 1.704624999999999773e+02 1.546704999999999927e+03
1.209999999999999964e-01 4.902170000000000138e-01 2.631855000000000189e+01 1.697030000000000030e+02 1.546465000000000146e+03
1.219999999999999973e-01 4.900634999999999852e-01 2.549699999999999989e+01 1.688954999999999984e+02 1.546210000000000036e+03
1.229999999999999982e-01 4.899020000000000041e-01 2.466754999999999853e+01 1.680464999999999804e+02 1.545944999999999936e+03
1.239999999999999991e-01 4.897354999999999903e-01 2.383405000000000129e+01 1.671630000000000109e+02 1.545664999999999964e+03
1.250000000000000000e-01 4.895644999999999580e-01 2.300094999999999956e+01 1.662560000000000002e+02 1.545380000000000109e+03
1.260000000000000009e-01 4.893914999999999793e-01 2.217325000000000301e+01 1.653329999999999984e+02 1.545079999999999927e+03
1.270000000000000018e-01 4.892175000000000273e-01 2.135604999999999976e+01 1.644045000000000130e+02 1.544785000000000082e+03
1.280000000000000027e-01 4.890455000000000219e-01 2.055470000000000041e+01 1.634809999999999945e+02 1.544485000000000127e+03
1.290000000000000036e-01 4.888770000000000060e-01 1.977454999999999785e+01 1.625720000000000027e+02 1.544184999999999945e+03
1.300000000000000044e-01 4.887135000000000229e-01 1.902060000000000173e+01 1.616854999999999905e+02 1.543890000000000100e+03
1.310000000000000053e-01 4.885559999999999903e-01 1.829769999999999897e+01 1.608319999999999936e+02 1.543610000000000127e+03
1.320000000000000062e-01 4.884065000000000212e-01 1.760994999999999777e+01 1.600169999999999959e+02 1.543335000000000036e+03
1.330000000000000071e-01 4.882664999999999922e-01 1.696114999999999995e+01 1.592485000000000070e+02 1.543074999999999818e+03
1.340000000000000080e-01 4.881354999999999444e-01 1.635405000000000086e+01 1.585310000000000059e+02 1.542829999999999927e+03
1.350000000000000089e-01 4.880154999999999910e-01 1.579090000000000060e+01 1.578670000000000186e+02 1.542595000000000027e+03
1.360000000000000098e-01 4.879054999999999920e-01 1.527289999999999992e+01 1.572595000000000027e+02 1.542380000000000109e+03
1.370000000000000107e-01 4.878065000000000317e-01 1.480049999999999955e+01 1.567090000000000032e+02 1.542184999999999945e+03
1.380000000000000115e-01 4.877170000000000116e-01 1.437334999999999852e+01 1.562139999999999986e+02 1.542005000000000109e+03
1.390000000000000124e-01 4.876374999999999460e-01 1.399009999999999820e+01 1.557725000000000080e+02 1.541845000000000027e+03
1.400000000000000133e-01 4.875669999999999726e-01 1.364894999999999925e+01 1.553805000000000121e+02 1.541690000000000055e+03
1.410000000000000142e-01 4.875039999999999929e-01 1.334730000000000061e+01 1.550339999999999918e+02 1.541559999999999945e+03
1.420000000000000151e-01 4.874484999999999513e-01 1.308215000000000039e+01 1.547274999999999920e+02 1.541440000000000055e+03
1.430000000000000160e-01 4.873979999999999979e-01 1.285009499999999960e+01 1.544549999999999841e+02 1.541329999999999927e+03
1.440000000000000169e-01 4.873524999999999663e-01 1.264753499999999953e+01 1.542104999999999961e+02 1.541240000000000009e+03
1.450000000000000178e-01 4.873100000000000209e-01 1.247075500000000048e+01 1.539884999999999877e+02 1.541144999999999982e+03
1.459999999999999909e-01 4.872705000000000508e-01 1.231608500000000106e+01 1.537819999999999823e+02 1.541065000000000055e+03
1.469999999999999918e-01 4.872315000000000396e-01 1.217991500000000116e+01 1.535854999999999961e+02 1.540990000000000009e+03
1.479999999999999927e-01 4.871935000000000016e-01 1.205891499999999894e+01 1.533954999999999984e+02 1.540914999999999964e+03
1.489999999999999936e-01 4.871560000000000334e-01 1.195008999999999943e+01 1.532065000000000055e+02 1.540844999999999800e+03
1.499999999999999944e-01 4.871174999999999811e-01 1.185073500000000024e+01 1.530149999999999864e+02 1.540769999999999982e+03
1.509999999999999953e-01 4.870774999999999966e-01 1.175846500000000106e+01 1.528199999999999932e+02 1.540700000000000045e+03
1.519999999999999962e-01 4.870370000000000532e-01 1.167141499999999965e+01 1.526175000000000068e+02 1.540625000000000000e+03
1.529999999999999971e-01 4.869944999999999968e-01 1.158800499999999900e+01 1.524080000000000155e+02 1.540555000000000064e+03
1.539999999999999980e-01 4.869499999999999940e-01 1.150700499999999948e+01 1.521910000000000025e+02 1.540480000000000018e+03
1.549999999999999989e-01 4.869050000000000322e-01 1.142761999999999922e+01 1.519664999999999964e+02 1.540404999999999973e+03
1.559999999999999998e-01 4.868590000000000417e-01 1.134933499999999995e+01 1.517359999999999900e+02 1.540325000000000045e+03
1.570000000000000007e-01 4.868119999999999670e-01 1.127184499999999900e+01 1.515004999999999882e+02 1.540244999999999891e+03
1.580000000000000016e-01 4.867650000000000032e-01 1.119513999999999854e+01 1.512609999999999957e+02 1.540164999999999964e+03
1.590000000000000024e-01 4.867170000000000107e-01 1.111935499999999877e+01 1.510199999999999818e+02 1.540079999999999927e+03
