# t [s], A [cm^2], U [cm/s], P [cPa], c [cm/s]
1.000000000000000021e-03 5.966390000000000304e-01 3.181949999999995893e-03 9.838750000000000284e+01 1.374744999999999891e+03
2.000000000000000042e-03 5.966325000000000101e-01 2.126485000000000007e-03 9.837765000000000271e+01 1.374740000000000009e+03
3.000000000000000062e-03 5.966450000000000919e-01 1.926050000000000331e-02 9.839039999999999964e+01 1.374750000000000000e+03
4.000000000000000083e-03 5.966930000000000289e-01 8.742350000000000121e-02 9.846725000000000705e+01 1.374769999999999982e+03
5.000000000000000104e-03 5.967240000000000322e-01 1.357606000000000090e-01 9.852774999999999750e+01 1.374799999999999955e+03
6.000000000000000125e-03 5.967135000000000078e-01 1.253810000000000202e-01 9.851179999999999382e+01 1.374795000000000073e+03
7.000000000000000146e-03 5.966749999999999554e-01 7.355950000000001376e-02 9.842095000000000482e+01 1.374769999999999982e+03
8.000000000000000167e-03 5.966389999999999194e-01 2.372250000000000747e-02 9.829805000000000348e+01 1.374735000000000127e+03
9.000000000000001055e-03 5.966025000000000356e-01 -3.058850000000001845e-02 9.814544999999999675e+01 1.374695000000000164e+03
1.000000000000000194e-02 5.965430000000000454e-01 -1.259804999999999953e-01 9.792699999999999250e+01 1.374634999999999991e+03
1.099999999999999936e-02 5.964500000000000357e-01 -2.808334999999999582e-01 9.761304999999998699e+01 1.374550000000000182e+03
1.200000000000000025e-02 5.963205000000000311e-01 -5.003050000000001107e-01 9.718309999999999604e+01 1.374424999999999955e+03
1.300000000000000114e-02 5.961440000000000072e-01 -7.935300000000000686e-01 9.661025000000000773e+01 1.374265000000000100e+03
1.400000000000000203e-02 5.959129999999999150e-01 -1.166224999999999845e+00 9.586879999999999313e+01 1.374045000000000073e+03
1.499999999999999944e-02 5.956314999999999804e-01 -1.601764999999999883e+00 9.495555000000000234e+01 1.373775000000000091e+03
1.600000000000000033e-02 5.953184999999999727e-01 -2.054879999999999818e+00 9.390264999999999418e+01 1.373460000000000036e+03
1.700000000000000122e-02 5.950039999999999774e-01 -2.464030000000000165e+00 9.277044999999999675e+01 1.373110000000000127e+03
1.800000000000000211e-02 5.947109999999999896e-01 -2.771959999999999980e+00 9.162669999999999959e+01 1.372740000000000009e+03
1.900000000000000300e-02 5.944549999999999557e-01 -2.941434500000000174e+00 9.052600000000001046e+01 1.372375000000000000e+03
2.000000000000000042e-02 5.942340000000000400e-01 -2.960993000000000208e+00 8.949809999999999377e+01 1.372009999999999991e+03
2.100000000000000130e-02 5.940385000000000248e-01 -2.841909499999999866e+00 8.854569999999999652e+01 1.371664999999999964e+03
2.200000000000000219e-02 5.938520000000000465e-01 -2.610260000000000247e+00 8.764994999999998981e+01 1.371325000000000045e+03
2.299999999999999961e-02 5.936580000000000190e-01 -2.297610000000000152e+00 8.677989999999999782e+01 1.370984999999999900e+03
2.400000000000000050e-02 5.934430000000000538e-01 -1.932705000000000339e+00 8.590244999999998754e+01 1.370644999999999982e+03
2.500000000000000139e-02 5.932010000000000893e-01 -1.535680000000000156e+00 8.499120000000000630e+01 1.370289999999999964e+03
2.600000000000000228e-02 5.929320000000000146e-01 -1.115479999999999805e+00 8.403270000000000550e+01 1.369924999999999955e+03
2.700000000000000316e-02 5.926405000000000145e-01 -6.707600000000000229e-01 8.302740000000000009e+01 1.369534999999999854e+03
2.800000000000000058e-02 5.923374999999999613e-01 -1.936400000000002564e-01 8.198789999999999623e+01 1.369144999999999982e+03
2.900000000000000147e-02 5.920305000000000151e-01 3.250600000000001266e-01 8.093350000000000932e+01 1.368740000000000009e+03
3.000000000000000236e-02 5.917270000000000030e-01 8.905149999999997235e-01 7.988354999999999961e+01 1.368335000000000036e+03
3.099999999999999978e-02 5.914304999999999701e-01 1.500129999999999963e+00 7.885174999999999557e+01 1.367929999999999836e+03
3.200000000000000067e-02 5.911385000000000112e-01 2.141890000000000072e+00 7.784215000000000373e+01 1.367535000000000082e+03
3.300000000000000155e-02 5.908455000000000235e-01 2.794929999999999914e+00 7.684759999999999991e+01 1.367139999999999873e+03
3.400000000000000244e-02 5.905424999999999702e-01 3.432010000000000005e+00 7.585094999999999743e+01 1.366750000000000000e+03
3.500000000000000333e-02 5.902195000000000080e-01 4.023249999999999993e+00 7.482849999999999113e+01 1.366349999999999909e+03
3.600000000000000422e-02 5.898674999999999891e-01 4.540385000000000559e+00 7.375440000000000396e+01 1.365940000000000055e+03
3.700000000000000511e-02 5.894810000000000327e-01 4.961014999999999731e+00 7.260604999999999620e+01 1.365514999999999873e+03
3.799999999999999906e-02 5.890580000000000815e-01 5.271609999999999907e+00 7.136910000000000309e+01 1.365059999999999945e+03
3.899999999999999994e-02 5.886019999999999586e-01 5.469594999999999985e+00 7.004105000000001269e+01 1.364585000000000036e+03
4.000000000000000083e-02 5.881214999999999637e-01 5.563155000000000072e+00 6.863294999999999391e+01 1.364089999999999918e+03
4.100000000000000172e-02 5.876280000000000392e-01 5.569605000000000139e+00 6.716875000000000284e+01 1.363575000000000045e+03
4.200000000000000261e-02 5.871359999999999912e-01 5.512480000000000047e+00 6.568295000000000528e+01 1.363059999999999945e+03
4.300000000000000350e-02 5.866595000000000004e-01 5.418149999999999800e+00 6.421659999999999968e+01 1.362545000000000073e+03
4.400000000000000439e-02 5.862135000000000540e-01 5.312739999999999796e+00 6.281304999999999694e+01 1.362045000000000073e+03
4.499999999999999833e-02 5.858094999999999830e-01 5.219479999999999897e+00 6.151429999999999865e+01 1.361579999999999927e+03
4.599999999999999922e-02 5.854565000000000463e-01 5.157490000000000130e+00 6.035755000000000337e+01 1.361155000000000200e+03
4.700000000000000011e-02 5.851619999999999600e-01 5.140955499999999567e+00 5.937359999999999616e+01 1.360780000000000200e+03
4.800000000000000100e-02 5.849290000000000322e-01 5.179886500000000282e+00 5.858590000000000231e+01 1.360474999999999909e+03
4.900000000000000189e-02 5.847609999999999753e-01 5.280580000000000496e+00 5.801059999999999661e+01 1.360235000000000127e+03
5.000000000000000278e-02 5.846584999999999699e-01 5.447079999999999700e+00 5.765780000000000172e+01 1.360065000000000055e+03
5.100000000000000366e-02 5.846219999999999750e-01 5.682235000000000369e+00 5.753230000000000643e+01 1.359974999999999909e+03
5.200000000000000455e-02 5.846510000000000318e-01 5.988669999999999938e+00 5.763575000000000159e+01 1.359954999999999927e+03
5.300000000000000544e-02 5.847459999999999880e-01 6.369394999999999918e+00 5.796744999999999948e+01 1.360014999999999873e+03
5.399999999999999939e-02 5.849060000000000370e-01 6.827965000000000728e+00 5.852535000000000309e+01 1.360159999999999854e+03
5.500000000000000028e-02 5.851315000000000266e-01 7.368209999999999482e+00 5.930669999999999931e+01 1.360380000000000109e+03
5.600000000000000117e-02 5.854219999999999979e-01 7.993730000000000224e+00 6.030789999999999651e+01 1.360680000000000064e+03
5.700000000000000205e-02 5.857760000000000744e-01 8.706994999999999152e+00 6.152400000000000091e+01 1.361049999999999955e+03
5.800000000000000294e-02 5.861920000000000464e-01 9.508950000000000458e+00 6.294839999999999947e+01 1.361500000000000000e+03
5.900000000000000383e-02 5.866664999999999797e-01 1.039794999999999980e+01 6.457204999999999018e+01 1.362019999999999982e+03
6.000000000000000472e-02 5.871969999999999690e-01 1.136993000000000009e+01 6.638304999999999723e+01 1.362605000000000018e+03
6.099999999999999867e-02 5.877760000000000762e-01 1.241787000000000063e+01 6.836625000000000796e+01 1.363259999999999991e+03
6.199999999999999956e-02 5.884000000000000341e-01 1.353228000000000009e+01 7.050354999999998995e+01 1.363964999999999918e+03
6.300000000000000044e-02 5.890599999999999170e-01 1.470159999999999911e+01 7.277419999999999334e+01 1.364724999999999909e+03
6.400000000000000133e-02 5.897499999999999964e-01 1.591275999999999868e+01 7.515520000000000778e+01 1.365529999999999973e+03
6.500000000000000222e-02 5.904625000000000012e-01 1.715198999999999785e+01 7.762260000000000559e+01 1.366369999999999891e+03
6.600000000000000311e-02 5.911889999999999645e-01 1.840525000000000233e+01 8.015200000000000102e+01 1.367235000000000127e+03
6.700000000000000400e-02 5.919240000000000057e-01 1.965910000000000224e+01 8.271965000000000146e+01 1.368130000000000109e+03
6.800000000000000488e-02 5.926614999999999522e-01 2.090139999999999887e+01 8.530334999999999468e+01 1.369029999999999973e+03
6.900000000000000577e-02 5.933954999999999647e-01 2.212120000000000175e+01 8.788325000000000387e+01 1.369944999999999936e+03
7.000000000000000666e-02 5.941220000000000390e-01 2.330930000000000035e+01 9.044230000000000302e+01 1.370855000000000018e+03
7.100000000000000755e-02 5.948379999999999779e-01 2.445814999999999984e+01 9.296594999999999231e+01 1.371759999999999991e+03
7.200000000000000844e-02 5.955405000000000282e-01 2.556204999999999927e+01 9.544294999999999618e+01 1.372654999999999973e+03
7.300000000000000933e-02 5.962290000000000090e-01 2.661674999999999969e+01 9.786599999999999966e+01 1.373539999999999964e+03
7.399999999999999634e-02 5.969014999999999738e-01 2.761930000000000263e+01 1.002299500000000023e+02 1.374404999999999973e+03
7.499999999999999722e-02 5.975580000000000336e-01 2.856789999999999807e+01 1.025306999999999960e+02 1.375255000000000109e+03
7.599999999999999811e-02 5.981984999999999664e-01 2.946144999999999925e+01 1.047680500000000023e+02 1.376085000000000036e+03
7.699999999999999900e-02 5.988229999999999942e-01 3.029959999999999809e+01 1.069425499999999971e+02 1.376900000000000091e+03
7.799999999999999989e-02 5.994325000000000347e-01 3.108234999999999815e+01 1.090554999999999950e+02 1.377690000000000055e+03
7.900000000000000078e-02 6.000269999999999770e-01 3.180969999999999942e+01 1.111080000000000041e+02 1.378465000000000146e+03
8.000000000000000167e-02 6.006070000000000020e-01 3.248189999999999600e+01 1.131024999999999920e+02 1.379215000000000146e+03
8.100000000000000255e-02 6.011720000000000397e-01 3.309895000000000209e+01 1.150405000000000086e+02 1.379950000000000045e+03
8.200000000000000344e-02 6.017224999999999380e-01 3.366075000000000017e+01 1.169224999999999994e+02 1.380664999999999964e+03
8.300000000000000433e-02 6.022585000000000299e-01 3.416694999999999993e+01 1.187485000000000070e+02 1.381365000000000009e+03
8.400000000000000522e-02 6.027784999999999949e-01 3.461684999999999945e+01 1.205185000000000031e+02 1.382039999999999964e+03
8.500000000000000611e-02 6.032824999999999438e-01 3.500974999999999682e+01 1.222295000000000016e+02 1.382695000000000164e+03
8.600000000000000699e-02 6.037690000000000001e-01 3.534454999999999814e+01 1.238795000000000073e+02 1.383335000000000036e+03
8.700000000000000788e-02 6.042365000000000652e-01 3.562030000000000030e+01 1.254645000000000010e+02 1.383949999999999818e+03
8.800000000000000877e-02 6.046839999999999993e-01 3.583599999999999852e+01 1.269800000000000040e+02 1.384539999999999964e+03
8.899999999999999578e-02 6.051109999999999545e-01 3.599069999999999681e+01 1.284225000000000136e+02 1.385099999999999909e+03
8.999999999999999667e-02 6.055144999999999555e-01 3.608379999999999654e+01 1.297870000000000061e+02 1.385640000000000100e+03
9.099999999999999756e-02 6.058935000000000848e-01 3.611495000000000033e+01 1.310690000000000168e+02 1.386144999999999982e+03
9.199999999999999845e-02 6.062480000000000091e-01 3.608414999999999395e+01 1.322644999999999982e+02 1.386625000000000000e+03
9.299999999999999933e-02 6.065760000000000041e-01 3.599179999999999779e+01 1.333700000000000045e+02 1.387075000000000045e+03
9.400000000000000022e-02 6.068780000000000285e-01 3.583890000000000242e+01 1.343820000000000050e+02 1.387490000000000009e+03
9.500000000000000111e-02 6.071520000000000250e-01 3.562669999999999959e+01 1.352984999999999900e+02 1.387865000000000009e+03
9.600000000000000200e-02 6.073984999999999523e-01 3.535694999999999766e+01 1.361189999999999998e+02 1.388210000000000036e+03
9.700000000000000289e-02 6.076175000000000326e-01 3.503180000000000405e+01 1.368419999999999845e+02 1.388519999999999982e+03
9.800000000000000377e-02 6.078090000000000437e-01 3.465384999999999849e+01 1.374685000000000059e+02 1.388795000000000073e+03
9.900000000000000466e-02 6.079740000000000144e-01 3.422594999999999743e+01 1.380000000000000000e+02 1.389034999999999854e+03
1.000000000000000056e-01 6.081119999999999859e-01 3.375130000000000052e+01 1.384385000000000048e+02 1.389240000000000009e+03
1.010000000000000064e-01 6.082244999999999457e-01 3.323340000000000316e+01 1.387864999999999895e+02 1.389409999999999854e+03
1.020000000000000073e-01 6.083130000000001036e-01 3.267605000000000359e+01 1.390480000000000018e+02 1.389549999999999955e+03
1.030000000000000082e-01 6.083775000000000155e-01 3.208339999999999748e+01 1.392264999999999873e+02 1.389654999999999973e+03
1.040000000000000091e-01 6.084205000000000307e-01 3.145969999999999800e+01 1.393285000000000196e+02 1.389730000000000018e+03
1.050000000000000100e-01 6.084424999999999972e-01 3.080955000000000155e+01 1.393584999999999923e+02 1.389775000000000091e+03
1.059999999999999970e-01 6.084465000000000012e-01 3.013754999999999740e+01 1.393214999999999861e+02 1.389799999999999955e+03
1.069999999999999979e-01 6.084339999999999193e-01 2.944869999999999877e+01 1.392259999999999991e+02 1.389795000000000073e+03
1.079999999999999988e-01 6.084060000000000024e-01 2.874774999999999636e+01 1.390780000000000030e+02 1.389769999999999982e+03
1.089999999999999997e-01 6.083659999999999624e-01 2.803954999999999842e+01 1.388845000000000027e+02 1.389724999999999909e+03
1.100000000000000006e-01 6.083144999999999802e-01 2.732884999999999920e+01 1.386525000000000034e+02 1.389664999999999964e+03
1.110000000000000014e-01 6.082544999999999202e-01 2.662010000000000076e+01 1.383894999999999982e+02 1.389590000000000146e+03
1.120000000000000023e-01 6.081864999999999633e-01 2.591744999999999877e+01 1.381014999999999873e+02 1.389500000000000000e+03
1.130000000000000032e-01 6.081140000000000434e-01 2.522460000000000235e+01 1.377959999999999923e+02 1.389409999999999854e+03
1.140000000000000041e-01 6.080380000000000784e-01 2.454455000000000098e+01 1.374780000000000086e+02 1.389299999999999955e+03
1.150000000000000050e-01 6.079590000000000272e-01 2.387995000000000090e+01 1.371530000000000200e+02 1.389190000000000055e+03
1.160000000000000059e-01 6.078784999999999883e-01 2.323250000000000171e+01 1.368249999999999886e+02 1.389075000000000045e+03
1.170000000000000068e-01 6.077974999999999905e-01 2.260329999999999728e+01 1.364975000000000023e+02 1.388960000000000036e+03
1.180000000000000077e-01 6.077159999999999229e-01 2.199275000000000091e+01 1.361719999999999970e+02 1.388845000000000027e+03
1.190000000000000085e-01 6.076340000000000074e-01 2.140054999999999907e+01 1.358514999999999873e+02 1.388719999999999800e+03
1.200000000000000094e-01 6.075524999999999398e-01 2.082569999999999766e+01 1.355344999999999800e+02 1.388605000000000018e+03
1.209999999999999964e-01 6.074705000000000243e-01 2.026664999999999850e+01 1.352214999999999918e+02 1.388485000000000127e+03
1.219999999999999973e-01 6.073869999999998992e-01 1.972145000000000081e+01 1.349110000000000014e+02 1.388369999999999891e+03
1.229999999999999982e-01 6.073024999999999674e-01 1.918769999999999953e+01 1.346014999999999873e+02 1.388250000000000000e+03
1.239999999999999991e-01 6.072155000000000191e-01 1.866290000000000049e+01 1.342900000000000205e+02 1.388135000000000218e+03
1.250000000000000000e-01 6.071254999999999846e-01 1.814420000000000144e+01 1.339739999999999895e+02 1.388009999999999991e+03
1.260000000000000009e-01 6.070320000000000160e-01 1.762879999999999825e+01 1.336510000000000105e+02 1.387889999999999873e+03
1.270000000000000018e-01 6.069340000000000845e-01 1.711404999999999887e+01 1.333185000000000002e+02 1.387764999999999873e+03
1.280000000000000027e-01 6.068314999999999682e-01 1.659745000000000203e+01 1.329739999999999895e+02 1.387634999999999991e+03
1.290000000000000036e-01 6.067230000000000123e-01 1.607665000000000077e+01 1.326140000000000043e+02 1.387505000000000109e+03
1.300000000000000044e-01 6.066089999999999538e-01 1.554964999999999975e+01 1.322390000000000043e+02 1.387369999999999891e+03
1.310000000000000053e-01 6.064890000000000558e-01 1.501494999999999891e+01 1.318460000000000036e+02 1.387220000000000027e+03
1.320000000000000062e-01 6.063629999999999853e-01 1.447124999999999950e+01 1.314350000000000023e+02 1.387069999999999936e+03
1.330000000000000071e-01 6.062319999999999931e-01 1.391787000000000063e+01 1.310064999999999884e+02 1.386914999999999964e+03
1.340000000000000080e-01 6.060955000000000092e-01 1.335455999999999932e+01 1.305610000000000070e+02 1.386755000000000109e+03
1.350000000000000089e-01 6.059539999999999926e-01 1.278148999999999802e+01 1.300989999999999895e+02 1.386595000000000027e+03
1.360000000000000098e-01 6.058090000000000419e-01 1.219936500000000024e+01 1.296239999999999952e+02 1.386420000000000073e+03
1.370000000000000107e-01 6.056610000000000049e-01 1.160924499999999959e+01 1.291374999999999886e+02 1.386244999999999891e+03
1.380000000000000115e-01 6.055110000000000214e-01 1.101275000000000048e+01 1.286430000000000007e+02 1.386065000000000055e+03
1.390000000000000124e-01 6.053610000000000380e-01 1.041174999999999962e+01 1.281435000000000173e+02 1.385884999999999991e+03
1.400000000000000133e-01 6.052109999999999435e-01 9.808574999999999378e+00 1.276444999999999936e+02 1.385710000000000036e+03
1.410000000000000142e-01 6.050630000000000175e-01 9.205725000000001046e+00 1.271494999999999891e+02 1.385529999999999973e+03
1.420000000000000151e-01 6.049180000000000668e-01 8.606014999999999304e+00 1.266624999999999943e+02 1.385355000000000018e+03
1.430000000000000160e-01 6.047784999999999966e-01 8.012385000000000090e+00 1.261889999999999930e+02 1.385180000000000064e+03
1.440000000000000169e-01 6.046449999999999880e-01 7.427865000000000606e+00 1.257330000000000041e+02 1.385014999999999873e+03
1.450000000000000178e-01 6.045184999999999587e-01 6.855464999999999698e+00 1.252994999999999948e+02 1.384849999999999909e+03
1.459999999999999909e-01 6.044005000000000072e-01 6.298104999999999620e+00 1.248919999999999959e+02 1.384700000000000045e+03
1.469999999999999918e-01 6.042920000000000513e-01 5.758599999999999497e+00 1.245144999999999982e+02 1.384559999999999945e+03
1.479999999999999927e-01 6.041944999999999677e-01 5.239524999999999544e+00 1.241705000000000041e+02 1.384429999999999836e+03
1.489999999999999936e-01 6.041084999999999372e-01 4.743170000000000108e+00 1.238635000000000161e+02 1.384304999999999836e+03
1.499999999999999944e-01 6.040339999999999598e-01 4.271475000000000577e+00 1.235944999999999965e+02 1.384200000000000045e+03
1.509999999999999953e-01 6.039719999999999533e-01 3.825990000000000002e+00 1.233654999999999973e+02 1.384110000000000127e+03
1.519999999999999962e-01 6.039215000000000000e-01 3.407820000000000071e+00 1.231779999999999973e+02 1.384029999999999973e+03
1.529999999999999971e-01 6.038839999999999764e-01 3.017634999999999845e+00 1.230305000000000035e+02 1.383960000000000036e+03
1.539999999999999980e-01 6.038569999999999771e-01 2.655629999999999935e+00 1.229224999999999994e+02 1.383904999999999973e+03
1.549999999999999989e-01 6.038419999999999899e-01 2.321555000000000035e+00 1.228534999999999968e+02 1.383869999999999891e+03
1.559999999999999998e-01 6.038369999999999571e-01 2.014724999999999877e+00 1.228199999999999932e+02 1.383845000000000027e+03
1.570000000000000007e-01 6.038419999999999899e-01 1.734059999999999935e+00 1.228195000000000050e+02 1.383835000000000036e+03
1.580000000000000016e-01 6.038544999999999607e-01 1.478120000000000100e+00 1.228485000000000014e+02 1.383829999999999927e+03
1.590000000000000024e-01 6.038744999999999807e-01 1.245200000000000085e+00 1.229035000000000082e+02 1.383835000000000036e+03
