# t [s], A [cm^2], U [cm/s], P [cPa], c [cm/s]
1.000000000000000021e-03 1.484989999999999921e-01 3.975349999999999717e-01 8.918340000000000600e+01 1.806690000000000055e+03
2.000000000000000042e-03 1.484679999999999889e-01 1.943216499999999902e+00 8.611269999999998959e+01 1.806375000000000000e+03
3.000000000000000062e-03 1.483674999999999855e-01 3.780996000000000024e+00 8.218659999999999854e+01 1.805355000000000018e+03
4.000000000000000083e-03 1.482204999999999773e-01 5.800071500000000491e+00 7.803079999999999927e+01 1.803909999999999854e+03
5.000000000000000104e-03 1.480565000000000075e-01 7.947344999999999438e+00 7.433410000000000650e+01 1.802295000000000073e+03
6.000000000000000125e-03 1.478919999999999957e-01 1.009487500000000004e+01 7.133235000000000525e+01 1.800695000000000164e+03
7.000000000000000146e-03 1.477344999999999908e-01 1.207919499999999857e+01 6.885250000000000625e+01 1.799184999999999945e+03
8.000000000000000167e-03 1.475865000000000093e-01 1.381104500000000002e+01 6.666009999999999991e+01 1.797785000000000082e+03
9.000000000000001055e-03 1.474515000000000131e-01 1.530089999999999861e+01 6.471094999999999686e+01 1.796525000000000091e+03
1.000000000000000194e-02 1.473315000000000041e-01 1.658189999999999742e+01 6.305559999999999832e+01 1.795414999999999964e+03
1.099999999999999936e-02 1.472275000000000111e-01 1.766635000000000133e+01 6.168935000000000457e+01 1.794470000000000027e+03
1.200000000000000025e-02 1.471395000000000064e-01 1.856115000000000137e+01 6.056260000000000332e+01 1.793670000000000073e+03
1.300000000000000114e-02 1.470655000000000157e-01 1.927625000000000099e+01 5.962530000000000285e+01 1.793005000000000109e+03
1.400000000000000203e-02 1.470024999999999804e-01 1.981984999999999886e+01 5.882345000000000113e+01 1.792454999999999927e+03
1.499999999999999944e-02 1.469489999999999963e-01 2.020830000000000126e+01 5.810974999999999824e+01 1.791990000000000009e+03
1.600000000000000033e-02 1.469044999999999934e-01 2.048859999999999815e+01 5.750254999999999939e+01 1.791599999999999909e+03
1.700000000000000122e-02 1.468689999999999996e-01 2.074579999999999913e+01 5.713115000000000521e+01 1.791304999999999836e+03
1.800000000000000211e-02 1.468484999999999929e-01 2.107914999999999850e+01 5.720260000000000389e+01 1.791139999999999873e+03
1.900000000000000300e-02 1.468484999999999929e-01 2.155969999999999942e+01 5.789695000000000391e+01 1.791155000000000200e+03
2.000000000000000042e-02 1.468720000000000026e-01 2.219725000000000037e+01 5.925730000000000075e+01 1.791375000000000000e+03
2.100000000000000130e-02 1.469179999999999930e-01 2.293305000000000149e+01 6.113919999999999533e+01 1.791799999999999955e+03
2.200000000000000219e-02 1.469799999999999995e-01 2.365970000000000084e+01 6.324025000000000318e+01 1.792375000000000000e+03
2.299999999999999961e-02 1.470489999999999853e-01 2.425694999999999979e+01 6.518999999999999773e+01 1.793009999999999991e+03
2.400000000000000050e-02 1.471135000000000081e-01 2.462725000000000009e+01 6.665815000000000623e+01 1.793619999999999891e+03
2.500000000000000139e-02 1.471649999999999903e-01 2.472115000000000151e+01 6.744129999999999825e+01 1.794110000000000127e+03
2.600000000000000228e-02 1.471975000000000089e-01 2.454404999999999859e+01 6.750315000000000509e+01 1.794429999999999836e+03
2.700000000000000316e-02 1.472089999999999788e-01 2.414714999999999989e+01 6.696154999999998836e+01 1.794565000000000055e+03
2.800000000000000058e-02 1.472040000000000015e-01 2.360699999999999932e+01 6.603379999999999939e+01 1.794534999999999854e+03
2.900000000000000147e-02 1.471859999999999835e-01 2.300094999999999956e+01 6.496254999999999313e+01 1.794389999999999873e+03
3.000000000000000236e-02 1.471624999999999739e-01 2.238799999999999812e+01 6.394840000000000657e+01 1.794179999999999836e+03
3.099999999999999978e-02 1.471370000000000178e-01 2.179860000000000042e+01 6.310705000000000098e+01 1.793954999999999927e+03
3.200000000000000067e-02 1.471129999999999938e-01 2.123489999999999966e+01 6.245920000000000272e+01 1.793744999999999891e+03
3.300000000000000155e-02 1.470925000000000149e-01 2.067925000000000324e+01 6.194964999999999833e+01 1.793549999999999955e+03
3.400000000000000244e-02 1.470730000000000093e-01 2.010679999999999978e+01 6.148404999999999632e+01 1.793375000000000000e+03
3.500000000000000333e-02 1.470535000000000037e-01 1.949835000000000207e+01 6.097084999999999866e+01 1.793194999999999936e+03
3.600000000000000422e-02 1.470309999999999950e-01 1.885029999999999717e+01 6.035620000000000118e+01 1.792994999999999891e+03
3.700000000000000511e-02 1.470059999999999978e-01 1.817895000000000039e+01 5.964455000000000240e+01 1.792775000000000091e+03
3.799999999999999906e-02 1.469789999999999985e-01 1.751910000000000167e+01 5.890050000000000097e+01 1.792525000000000091e+03
3.899999999999999994e-02 1.469515000000000127e-01 1.691720000000000113e+01 5.823369999999999891e+01 1.792279999999999973e+03
4.000000000000000083e-02 1.469285000000000174e-01 1.642154999999999987e+01 5.777124999999999488e+01 1.792065000000000055e+03
4.100000000000000172e-02 1.469119999999999870e-01 1.607120000000000104e+01 5.762560000000000571e+01 1.791909999999999854e+03
4.200000000000000261e-02 1.469059999999999810e-01 1.588700000000000045e+01 5.786594999999999800e+01 1.791855000000000018e+03
4.300000000000000350e-02 1.469129999999999880e-01 1.586645000000000039e+01 5.849899999999999523e+01 1.791904999999999973e+03
4.400000000000000439e-02 1.469329999999999803e-01 1.598289999999999900e+01 5.946439999999999770e+01 1.792074999999999818e+03
4.499999999999999833e-02 1.469630000000000103e-01 1.618970000000000198e+01 6.064270000000000493e+01 1.792345000000000027e+03
4.599999999999999922e-02 1.470009999999999928e-01 1.642680000000000007e+01 6.187470000000000425e+01 1.792675000000000182e+03
4.700000000000000011e-02 1.470405000000000184e-01 1.662935000000000230e+01 6.298579999999999757e+01 1.793034999999999854e+03
4.800000000000000100e-02 1.470779999999999865e-01 1.673599999999999710e+01 6.381109999999999616e+01 1.793369999999999891e+03
4.900000000000000189e-02 1.471060000000000145e-01 1.669559999999999889e+01 6.421659999999999968e+01 1.793630000000000109e+03
5.000000000000000278e-02 1.471215000000000162e-01 1.647189999999999799e+01 6.411289999999999623e+01 1.793779999999999973e+03
5.100000000000000366e-02 1.471200000000000008e-01 1.604550000000000054e+01 6.346105000000000018e+01 1.793769999999999982e+03
5.200000000000000455e-02 1.471004999999999951e-01 1.541354999999999897e+01 6.227084999999999582e+01 1.793599999999999909e+03
5.300000000000000544e-02 1.470624999999999849e-01 1.458755000000000024e+01 6.059270000000000067e+01 1.793260000000000218e+03
5.399999999999999939e-02 1.470069999999999988e-01 1.359049999999999869e+01 5.850710000000000122e+01 1.792759999999999991e+03
5.500000000000000028e-02 1.469354999999999967e-01 1.245334499999999878e+01 5.611214999999999975e+01 1.792110000000000127e+03
5.600000000000000117e-02 1.468510000000000093e-01 1.121212500000000034e+01 5.351314999999999600e+01 1.791345000000000027e+03
5.700000000000000205e-02 1.467574999999999852e-01 9.905245000000000744e+00 5.081439999999999912e+01 1.790490000000000009e+03
5.800000000000000294e-02 1.466574999999999962e-01 8.572089999999999321e+00 4.811414999999999509e+01 1.789575000000000045e+03
5.900000000000000383e-02 1.465549999999999908e-01 7.251835000000000697e+00 4.550234999999999985e+01 1.788644999999999982e+03
6.000000000000000472e-02 1.464535000000000142e-01 5.982909999999999506e+00 4.306049999999999756e+01 1.787715000000000146e+03
6.099999999999999867e-02 1.463559999999999861e-01 4.802785000000000082e+00 4.086249999999999716e+01 1.786825000000000045e+03
6.199999999999999956e-02 1.462649999999999784e-01 3.747441500000000314e+00 3.897590000000000288e+01 1.785994999999999891e+03
6.300000000000000044e-02 1.461844999999999950e-01 2.850977499999999942e+00 3.746229999999999905e+01 1.785250000000000000e+03
6.400000000000000133e-02 1.461169999999999969e-01 2.144816800000000079e+00 3.637749999999999773e+01 1.784625000000000000e+03
6.500000000000000222e-02 1.460639999999999994e-01 1.656753000000000142e+00 3.576980000000000359e+01 1.784130000000000109e+03
6.600000000000000311e-02 1.460289999999999921e-01 1.409776499999999988e+00 3.567849999999999966e+01 1.783795000000000073e+03
6.700000000000000400e-02 1.460124999999999895e-01 1.420970000000000066e+00 3.613119999999999976e+01 1.783630000000000109e+03
6.800000000000000488e-02 1.460164999999999935e-01 1.700509999999999966e+00 3.714159999999999684e+01 1.783654999999999973e+03
6.900000000000000577e-02 1.460420000000000051e-01 2.250950000000000006e+00 3.870785000000000053e+01 1.783865000000000009e+03
7.000000000000000666e-02 1.460889999999999966e-01 3.066939999999999777e+00 4.081144999999999357e+01 1.784275000000000091e+03
7.100000000000000755e-02 1.461574999999999958e-01 4.135369999999999990e+00 4.341774999999999807e+01 1.784884999999999991e+03
7.200000000000000844e-02 1.462455000000000005e-01 5.436010000000000453e+00 4.647740000000000293e+01 1.785670000000000073e+03
7.300000000000000933e-02 1.463530000000000109e-01 6.942495000000000083e+00 4.992865000000000464e+01 1.786634999999999991e+03
7.399999999999999634e-02 1.464769999999999961e-01 8.623689999999999856e+00 5.370080000000000098e+01 1.787759999999999991e+03
7.499999999999999722e-02 1.466155000000000097e-01 1.044513500000000050e+01 5.771779999999999688e+01 1.789009999999999991e+03
7.599999999999999811e-02 1.467654999999999932e-01 1.237054000000000009e+01 6.190214999999999890e+01 1.790380000000000109e+03
7.699999999999999900e-02 1.469245000000000134e-01 1.436364999999999981e+01 6.617844999999999800e+01 1.791835000000000036e+03
7.799999999999999989e-02 1.470905000000000129e-01 1.638904999999999745e+01 7.047675000000000978e+01 1.793345000000000027e+03
7.900000000000000078e-02 1.472590000000000010e-01 1.841424999999999912e+01 7.473505000000000109e+01 1.794900000000000091e+03
8.000000000000000167e-02 1.474290000000000045e-01 2.041000000000000014e+01 7.890160000000000196e+01 1.796470000000000027e+03
8.100000000000000255e-02 1.475980000000000070e-01 2.235144999999999982e+01 8.293585000000000207e+01 1.798035000000000082e+03
8.200000000000000344e-02 1.477640000000000065e-01 2.421889999999999787e+01 8.680960000000000321e+01 1.799575000000000045e+03
8.300000000000000433e-02 1.479260000000000019e-01 2.599784999999999968e+01 9.050714999999999577e+01 1.801085000000000036e+03
8.400000000000000522e-02 1.480819999999999914e-01 2.767920000000000158e+01 9.402455000000000496e+01 1.802550000000000182e+03
8.500000000000000611e-02 1.482330000000000036e-01 2.925919999999999987e+01 9.736820000000000164e+01 1.803960000000000036e+03
8.600000000000000699e-02 1.483784999999999965e-01 3.073870000000000147e+01 1.005550499999999943e+02 1.805329999999999927e+03
8.700000000000000788e-02 1.485179999999999834e-01 3.212284999999999968e+01 1.036074500000000000e+02 1.806644999999999982e+03
8.800000000000000877e-02 1.486534999999999940e-01 3.342009999999999792e+01 1.065544999999999902e+02 1.807920000000000073e+03
8.899999999999999578e-02 1.487844999999999862e-01 3.464114999999999611e+01 1.094279999999999973e+02 1.809159999999999854e+03
8.999999999999999667e-02 1.489125000000000032e-01 3.579800000000000182e+01 1.122574999999999932e+02 1.810369999999999891e+03
9.099999999999999756e-02 1.490380000000000038e-01 3.690300000000000580e+01 1.150734999999999957e+02 1.811565000000000055e+03
9.199999999999999845e-02 1.491629999999999900e-01 3.796765000000000612e+01 1.178995000000000033e+02 1.812750000000000000e+03
9.299999999999999933e-02 1.492874999999999897e-01 3.900199999999999534e+01 1.207554999999999978e+02 1.813929999999999836e+03
9.400000000000000022e-02 1.494125000000000036e-01 4.001375000000000171e+01 1.236520000000000010e+02 1.815119999999999891e+03
9.500000000000000111e-02 1.495384999999999909e-01 4.100785000000000480e+01 1.265939999999999941e+02 1.816320000000000164e+03
9.600000000000000200e-02 1.496655000000000069e-01 4.198604999999999876e+01 1.295750000000000171e+02 1.817529999999999973e+03
9.700000000000000289e-02 1.497939999999999827e-01 4.294715000000000060e+01 1.325844999999999914e+02 1.818750000000000000e+03
9.800000000000000377e-02 1.499230000000000007e-01 4.388670000000000471e+01 1.356019999999999754e+02 1.819974999999999909e+03
9.900000000000000466e-02 1.500519999999999909e-01 4.479779999999999518e+01 1.386034999999999968e+02 1.821204999999999927e+03
1.000000000000000056e-01 1.501804999999999946e-01 4.567099999999999937e+01 1.415579999999999927e+02 1.822429999999999836e+03
1.010000000000000064e-01 1.503069999999999962e-01 4.649544999999999817e+01 1.444354999999999905e+02 1.823640000000000100e+03
1.020000000000000073e-01 1.504304999999999948e-01 4.725894999999999868e+01 1.472004999999999768e+02 1.824820000000000164e+03
1.030000000000000082e-01 1.505500000000000171e-01 4.794910000000000139e+01 1.498210000000000264e+02 1.825969999999999800e+03
1.040000000000000091e-01 1.506645000000000068e-01 4.855360000000000298e+01 1.522665000000000077e+02 1.827069999999999936e+03
1.050000000000000100e-01 1.507729999999999904e-01 4.906105000000000160e+01 1.545074999999999932e+02 1.828110000000000127e+03
1.059999999999999970e-01 1.508729999999999793e-01 4.946120000000000516e+01 1.565210000000000150e+02 1.829075000000000045e+03
1.069999999999999979e-01 1.509650000000000158e-01 4.974595000000000056e+01 1.582880000000000109e+02 1.829965000000000146e+03
1.079999999999999988e-01 1.510480000000000156e-01 4.990899999999999892e+01 1.597959999999999923e+02 1.830765000000000100e+03
1.089999999999999997e-01 1.511204999999999909e-01 4.994665000000000532e+01 1.610370000000000061e+02 1.831474999999999909e+03
1.100000000000000006e-01 1.511830000000000118e-01 4.985784999999999911e+01 1.620104999999999791e+02 1.832085000000000036e+03
1.110000000000000014e-01 1.512350000000000083e-01 4.964400000000000546e+01 1.627205000000000155e+02 1.832595000000000027e+03
1.120000000000000023e-01 1.512765000000000082e-01 4.930930000000000035e+01 1.631765000000000043e+02 1.833005000000000109e+03
1.130000000000000032e-01 1.513079999999999981e-01 4.886025000000000063e+01 1.633944999999999936e+02 1.833320000000000164e+03
1.140000000000000041e-01 1.513289999999999913e-01 4.830580000000000496e+01 1.633940000000000055e+02 1.833534999999999854e+03
1.150000000000000050e-01 1.513415000000000177e-01 4.765670000000000073e+01 1.631984999999999957e+02 1.833664999999999964e+03
1.160000000000000059e-01 1.513450000000000073e-01 4.692535000000000167e+01 1.628340000000000032e+02 1.833710000000000036e+03
1.170000000000000068e-01 1.513415000000000177e-01 4.612519999999999953e+01 1.623274999999999864e+02 1.833684999999999945e+03
1.180000000000000077e-01 1.513315000000000077e-01 4.527055000000000007e+01 1.617085000000000150e+02 1.833599999999999909e+03
1.190000000000000085e-01 1.513160000000000061e-01 4.437579999999999814e+01 1.610054999999999836e+02 1.833454999999999927e+03
1.200000000000000094e-01 1.512954999999999994e-01 4.345515000000000327e+01 1.602459999999999809e+02 1.833269999999999982e+03
1.209999999999999964e-01 1.512725000000000042e-01 4.252210000000000178e+01 1.594555000000000007e+02 1.833049999999999955e+03
1.219999999999999973e-01 1.512465000000000059e-01 4.158910000000000196e+01 1.586560000000000059e+02 1.832804999999999836e+03
1.229999999999999982e-01 1.512189999999999923e-01 4.066714999999999947e+01 1.578679999999999950e+02 1.832550000000000182e+03
1.239999999999999991e-01 1.511909999999999921e-01 3.976550000000000296e+01 1.571064999999999827e+02 1.832280000000000200e+03
1.250000000000000000e-01 1.511629999999999918e-01 3.889150000000000063e+01 1.563814999999999884e+02 1.832009999999999991e+03
1.260000000000000009e-01 1.511354999999999782e-01 3.805060000000000286e+01 1.557024999999999864e+02 1.831750000000000000e+03
1.270000000000000018e-01 1.511089999999999933e-01 3.724585000000000434e+01 1.550704999999999814e+02 1.831490000000000009e+03
1.280000000000000027e-01 1.510834999999999817e-01 3.647865000000000180e+01 1.544844999999999970e+02 1.831240000000000009e+03
1.290000000000000036e-01 1.510589999999999988e-01 3.574819999999999709e+01 1.539404999999999859e+02 1.831009999999999991e+03
1.300000000000000044e-01 1.510360000000000036e-01 3.505204999999999416e+01 1.534295000000000186e+02 1.830779999999999973e+03
1.310000000000000053e-01 1.510140000000000093e-01 3.438625000000000398e+01 1.529409999999999741e+02 1.830570000000000164e+03
1.320000000000000062e-01 1.509925000000000017e-01 3.374549999999999983e+01 1.524619999999999891e+02 1.830355000000000018e+03
1.330000000000000071e-01 1.509715000000000085e-01 3.312375000000000114e+01 1.519795000000000016e+02 1.830154999999999973e+03
1.340000000000000080e-01 1.509504999999999875e-01 3.251435000000000031e+01 1.514774999999999920e+02 1.829945000000000164e+03
1.350000000000000089e-01 1.509280000000000066e-01 3.191019999999999968e+01 1.509424999999999955e+02 1.829730000000000018e+03
1.360000000000000098e-01 1.509050000000000114e-01 3.130440000000000111e+01 1.503600000000000136e+02 1.829509999999999991e+03
1.370000000000000107e-01 1.508805000000000007e-01 3.069050000000000011e+01 1.497180000000000177e+02 1.829269999999999982e+03
1.380000000000000115e-01 1.508539999999999881e-01 3.006255000000000166e+01 1.490060000000000002e+02 1.829009999999999991e+03
1.390000000000000124e-01 1.508245000000000002e-01 2.941570000000000107e+01 1.482164999999999964e+02 1.828730000000000018e+03
1.400000000000000133e-01 1.507924999999999960e-01 2.874605000000000032e+01 1.473425000000000011e+02 1.828420000000000073e+03
1.410000000000000142e-01 1.507569999999999744e-01 2.805114999999999981e+01 1.463829999999999814e+02 1.828085000000000036e+03
1.420000000000000151e-01 1.507189999999999919e-01 2.732999999999999829e+01 1.453389999999999986e+02 1.827719999999999800e+03
1.430000000000000160e-01 1.506770000000000054e-01 2.658285000000000053e+01 1.442139999999999986e+02 1.827320000000000164e+03
1.440000000000000169e-01 1.506319999999999881e-01 2.581165000000000020e+01 1.430140000000000100e+02 1.826889999999999873e+03
1.450000000000000178e-01 1.505845000000000100e-01 2.501970000000000027e+01 1.417504999999999882e+02 1.826434999999999945e+03
1.459999999999999909e-01 1.505340000000000011e-01 2.421144999999999925e+01 1.404339999999999975e+02 1.825954999999999927e+03
1.469999999999999918e-01 1.504814999999999903e-01 2.339269999999999783e+01 1.390810000000000173e+02 1.825454999999999927e+03
1.479999999999999927e-01 1.504270000000000052e-01 2.256994999999999862e+01 1.377055000000000007e+02 1.824940000000000055e+03
1.489999999999999936e-01 1.503714999999999913e-01 2.175065000000000026e+01 1.363255000000000052e+02 1.824409999999999854e+03
1.499999999999999944e-01 1.503154999999999908e-01 2.094245000000000090e+01 1.349585000000000150e+02 1.823875000000000000e+03
1.509999999999999953e-01 1.502594999999999903e-01 2.015315000000000012e+01 1.336214999999999975e+02 1.823340000000000146e+03
1.519999999999999962e-01 1.502040000000000042e-01 1.939050000000000296e+01 1.323315000000000055e+02 1.822815000000000055e+03
1.529999999999999971e-01 1.501500000000000057e-01 1.866179999999999950e+01 1.311030000000000086e+02 1.822300000000000182e+03
1.539999999999999980e-01 1.500974999999999948e-01 1.797360000000000113e+01 1.299499999999999886e+02 1.821805000000000064e+03
1.549999999999999989e-01 1.500485000000000013e-01 1.733174999999999955e+01 1.288840000000000146e+02 1.821329999999999927e+03
1.559999999999999998e-01 1.500020000000000242e-01 1.674084999999999823e+01 1.279134999999999991e+02 1.820884999999999991e+03
1.570000000000000007e-01 1.499590000000000090e-01 1.620455000000000112e+01 1.270444999999999993e+02 1.820470000000000027e+03
1.580000000000000016e-01 1.499194999999999833e-01 1.572490000000000165e+01 1.262805000000000035e+02 1.820095000000000027e+03
1.590000000000000024e-01 1.498840000000000172e-01 1.530295000000000094e+01 1.256225000000000023e+02 1.819750000000000000e+03
