# t [s], A [cm^2], U [cm/s], P [cPa], c [cm/s]
1.000000000000000021e-03 1.587669999999999915e-01 3.382624999999999660e-01 8.825720000000001164e+01 1.794744999999999891e+03
2.000000000000000042e-03 1.587379999999999902e-01 1.803871500000000072e+00 8.540444999999999709e+01 1.794485000000000127e+03
3.000000000000000062e-03 1.586354999999999849e-01 3.566826000000000274e+00 8.171735000000001037e+01 1.793619999999999891e+03
4.000000000000000083e-03 1.584845000000000004e-01 5.508993500000000765e+00 7.771459999999999013e+01 1.792369999999999891e+03
5.000000000000000104e-03 1.583120000000000083e-01 7.583650000000000446e+00 7.405695000000000050e+01 1.790945000000000164e+03
6.000000000000000125e-03 1.581380000000000008e-01 9.681369999999999365e+00 7.103149999999999409e+01 1.789525000000000091e+03
7.000000000000000146e-03 1.579710000000000003e-01 1.164748499999999964e+01 6.853385000000000105e+01 1.788175000000000182e+03
8.000000000000000167e-03 1.578134999999999954e-01 1.337888500000000036e+01 6.634125000000000227e+01 1.786925000000000182e+03
9.000000000000001055e-03 1.576684999999999892e-01 1.486977500000000063e+01 6.437935000000000230e+01 1.785789999999999964e+03
1.000000000000000194e-02 1.575394999999999990e-01 1.615194999999999936e+01 6.269330000000000780e+01 1.784789999999999964e+03
1.099999999999999936e-02 1.574280000000000124e-01 1.724215000000000231e+01 6.129800000000000182e+01 1.783929999999999836e+03
1.200000000000000025e-02 1.573324999999999863e-01 1.814685000000000059e+01 6.015555000000000518e+01 1.783204999999999927e+03
1.300000000000000114e-02 1.572520000000000029e-01 1.887480000000000047e+01 5.921799999999999642e+01 1.782605000000000018e+03
1.400000000000000203e-02 1.571854999999999780e-01 1.943365000000000009e+01 5.843349999999999511e+01 1.782105000000000018e+03
1.499999999999999944e-02 1.571290000000000187e-01 1.983435000000000059e+01 5.774915000000000020e+01 1.781695000000000164e+03
1.600000000000000033e-02 1.570814999999999850e-01 2.011039999999999850e+01 5.715370000000000061e+01 1.781349999999999909e+03
1.700000000000000122e-02 1.570429999999999882e-01 2.033055000000000234e+01 5.672885000000000133e+01 1.781079999999999927e+03
1.800000000000000211e-02 1.570185000000000053e-01 2.058614999999999995e+01 5.664424999999999955e+01 1.780909999999999854e+03
1.900000000000000300e-02 1.570119999999999849e-01 2.095700000000000074e+01 5.708334999999999582e+01 1.780880000000000109e+03
2.000000000000000042e-02 1.570289999999999742e-01 2.147704999999999842e+01 5.814289999999999736e+01 1.781014999999999873e+03
2.100000000000000130e-02 1.570690000000000142e-01 2.211865000000000236e+01 5.976479999999999393e+01 1.781329999999999927e+03
2.200000000000000219e-02 1.571290000000000187e-01 2.280145000000000266e+01 6.173440000000000083e+01 1.781795000000000073e+03
2.299999999999999961e-02 1.572005000000000208e-01 2.341879999999999740e+01 6.373815000000000452e+01 1.782355000000000018e+03
2.400000000000000050e-02 1.572735000000000105e-01 2.387040000000000006e+01 6.545340000000000202e+01 1.782920000000000073e+03
2.500000000000000139e-02 1.573374999999999913e-01 2.408899999999999864e+01 6.663425000000000864e+01 1.783430000000000064e+03
2.600000000000000228e-02 1.573845000000000105e-01 2.405414999999999992e+01 6.716734999999999900e+01 1.783809999999999945e+03
2.700000000000000316e-02 1.574125000000000107e-01 2.379139999999999944e+01 6.708375000000000909e+01 1.784045000000000073e+03
2.800000000000000058e-02 1.574209999999999776e-01 2.335844999999999771e+01 6.652989999999999782e+01 1.784130000000000109e+03
2.900000000000000147e-02 1.574145000000000127e-01 2.282469999999999999e+01 6.571049999999999613e+01 1.784099999999999909e+03
3.000000000000000236e-02 1.573974999999999957e-01 2.225179999999999936e+01 6.482564999999999600e+01 1.783980000000000018e+03
3.099999999999999978e-02 1.573769999999999891e-01 2.168005000000000138e+01 6.402044999999999675e+01 1.783829999999999927e+03
3.200000000000000067e-02 1.573554999999999815e-01 2.112365000000000137e+01 6.336015000000000441e+01 1.783664999999999964e+03
3.300000000000000155e-02 1.573350000000000026e-01 2.057464999999999833e+01 6.283210000000000406e+01 1.783509999999999991e+03
3.400000000000000244e-02 1.573160000000000114e-01 2.001254999999999740e+01 6.237035000000000196e+01 1.783365000000000009e+03
3.500000000000000333e-02 1.572965000000000058e-01 1.941639999999999944e+01 6.189030000000000342e+01 1.783220000000000027e+03
3.600000000000000422e-02 1.572749999999999981e-01 1.877495000000000047e+01 6.132439999999999714e+01 1.783055000000000064e+03
3.700000000000000511e-02 1.572500000000000009e-01 1.809445000000000192e+01 6.064880000000000138e+01 1.782869999999999891e+03
3.799999999999999906e-02 1.572215000000000140e-01 1.739965000000000117e+01 5.989520000000000266e+01 1.782654999999999973e+03
3.899999999999999994e-02 1.571914999999999840e-01 1.673085000000000022e+01 5.914674999999999727e+01 1.782424999999999955e+03
4.000000000000000083e-02 1.571624999999999828e-01 1.613595000000000113e+01 5.851935000000000286e+01 1.782199999999999818e+03
4.100000000000000172e-02 1.571390000000000009e-01 1.566039999999999921e+01 5.813429999999999609e+01 1.782019999999999982e+03
4.200000000000000261e-02 1.571245000000000003e-01 1.533759999999999835e+01 5.808879999999999910e+01 1.781904999999999973e+03
4.300000000000000350e-02 1.571224999999999983e-01 1.518124999999999858e+01 5.843234999999999957e+01 1.781880000000000109e+03
4.400000000000000439e-02 1.571339999999999959e-01 1.518244999999999933e+01 5.915340000000000487e+01 1.781960000000000036e+03
4.499999999999999833e-02 1.571589999999999931e-01 1.531024999999999991e+01 6.017844999999999800e+01 1.782144999999999982e+03
4.599999999999999922e-02 1.571950000000000014e-01 1.551640000000000086e+01 6.138344999999999629e+01 1.782409999999999854e+03
4.700000000000000011e-02 1.572375000000000023e-01 1.574269999999999925e+01 6.261330000000000240e+01 1.782730000000000018e+03
4.800000000000000100e-02 1.572815000000000185e-01 1.592839999999999989e+01 6.370480000000000587e+01 1.783065000000000055e+03
4.900000000000000189e-02 1.573209999999999886e-01 1.601800000000000068e+01 6.450929999999999609e+01 1.783364999999999782e+03
5.000000000000000278e-02 1.573515000000000053e-01 1.596690000000000076e+01 6.490969999999998663e+01 1.783605000000000018e+03
5.100000000000000366e-02 1.573680000000000079e-01 1.574435000000000073e+01 6.483185000000000286e+01 1.783730000000000018e+03
5.200000000000000455e-02 1.573674999999999935e-01 1.533539999999999992e+01 6.424745000000000061e+01 1.783730000000000018e+03
5.300000000000000544e-02 1.573485000000000023e-01 1.473930000000000007e+01 6.317114999999999725e+01 1.783595000000000027e+03
5.399999999999999939e-02 1.573110000000000064e-01 1.396785000000000032e+01 6.165250000000000341e+01 1.783309999999999945e+03
5.500000000000000028e-02 1.572554999999999925e-01 1.304210000000000136e+01 5.976545000000000130e+01 1.782894999999999982e+03
5.600000000000000117e-02 1.571855000000000058e-01 1.198948000000000036e+01 5.759770000000000323e+01 1.782360000000000127e+03
5.700000000000000205e-02 1.571025000000000060e-01 1.084140000000000015e+01 5.524179999999999779e+01 1.781730000000000018e+03
5.800000000000000294e-02 1.570099999999999829e-01 9.631070000000001130e+00 5.278804999999999836e+01 1.781019999999999982e+03
5.900000000000000383e-02 1.569114999999999815e-01 8.392384999999999096e+00 5.032144999999999868e+01 1.780259999999999991e+03
6.000000000000000472e-02 1.568100000000000049e-01 7.159449999999999648e+00 4.791970000000000596e+01 1.779485000000000127e+03
6.099999999999999867e-02 1.567089999999999872e-01 5.966095000000000148e+00 4.565409999999999968e+01 1.778710000000000036e+03
6.199999999999999956e-02 1.566115000000000146e-01 4.845909999999999940e+00 4.359060000000000201e+01 1.777954999999999927e+03
6.300000000000000044e-02 1.565199999999999925e-01 3.831949999999999967e+00 4.179115000000000180e+01 1.777255000000000109e+03
6.400000000000000133e-02 1.564380000000000215e-01 2.956351500000000243e+00 4.031435000000000457e+01 1.776615000000000009e+03
6.500000000000000222e-02 1.563684999999999936e-01 2.249600999999999740e+00 3.921500000000000341e+01 1.776075000000000045e+03
6.600000000000000311e-02 1.563130000000000075e-01 1.739580999999999822e+00 3.854295000000000471e+01 1.775639999999999873e+03
6.700000000000000400e-02 1.562744999999999829e-01 1.450430499999999956e+00 3.834114999999999895e+01 1.775335000000000036e+03
6.800000000000000488e-02 1.562545000000000184e-01 1.401380000000000070e+00 3.864310000000000400e+01 1.775170000000000073e+03
6.900000000000000577e-02 1.562554999999999916e-01 1.605669999999999931e+00 3.947010000000000218e+01 1.775154999999999973e+03
7.000000000000000666e-02 1.562780000000000002e-01 2.069760000000000044e+00 4.082970000000000255e+01 1.775315000000000055e+03
7.100000000000000755e-02 1.563220000000000165e-01 2.792810000000000237e+00 4.271420000000000528e+01 1.775639999999999873e+03
7.200000000000000844e-02 1.563894999999999869e-01 3.766655000000000086e+00 4.510044999999999504e+01 1.776139999999999873e+03
7.300000000000000933e-02 1.564780000000000060e-01 4.976135000000000197e+00 4.795050000000000523e+01 1.776800000000000182e+03
7.399999999999999634e-02 1.565864999999999896e-01 6.399835000000000385e+00 5.121379999999999910e+01 1.777625000000000000e+03
7.499999999999999722e-02 1.567144999999999788e-01 8.011084999999999567e+00 5.482930000000000348e+01 1.778590000000000146e+03
7.599999999999999811e-02 1.568579999999999974e-01 9.779299999999999216e+00 5.872899999999999920e+01 1.779684999999999945e+03
7.699999999999999900e-02 1.570159999999999889e-01 1.167125000000000057e+01 6.284099999999999397e+01 1.780894999999999982e+03
7.799999999999999989e-02 1.571850000000000191e-01 1.365232999999999919e+01 6.709314999999999429e+01 1.782195000000000164e+03
7.900000000000000078e-02 1.573630000000000029e-01 1.568834999999999980e+01 7.141575000000000273e+01 1.783559999999999945e+03
8.000000000000000167e-02 1.575459999999999916e-01 1.774634999999999962e+01 7.574484999999999957e+01 1.784969999999999800e+03
8.100000000000000255e-02 1.577320000000000111e-01 1.979585000000000150e+01 8.002430000000001087e+01 1.786410000000000082e+03
8.200000000000000344e-02 1.579174999999999884e-01 2.181005000000000038e+01 8.420749999999999602e+01 1.787860000000000127e+03
8.300000000000000433e-02 1.581025000000000069e-01 2.376620000000000132e+01 8.825874999999999204e+01 1.789300000000000182e+03
8.400000000000000522e-02 1.582840000000000080e-01 2.564625000000000199e+01 9.215364999999999895e+01 1.790715000000000146e+03
8.500000000000000611e-02 1.584605000000000041e-01 2.743724999999999881e+01 9.587940000000000396e+01 1.792095000000000027e+03
8.600000000000000699e-02 1.586315000000000086e-01 2.913100000000000023e+01 9.943319999999999936e+01 1.793445000000000164e+03
8.700000000000000788e-02 1.587965000000000071e-01 3.072420000000000329e+01 1.028224500000000035e+02 1.794744999999999891e+03
8.800000000000000877e-02 1.589554999999999996e-01 3.221739999999999782e+01 1.060627499999999941e+02 1.796000000000000000e+03
8.899999999999999578e-02 1.591090000000000004e-01 3.361485000000000412e+01 1.091744999999999948e+02 1.797215000000000146e+03
8.999999999999999667e-02 1.592580000000000107e-01 3.492345000000000255e+01 1.121820000000000022e+02 1.798400000000000091e+03
9.099999999999999756e-02 1.594019999999999881e-01 3.615184999999999604e+01 1.151119999999999948e+02 1.799539999999999964e+03
9.199999999999999845e-02 1.595425000000000038e-01 3.730939999999999657e+01 1.179879999999999995e+02 1.800659999999999854e+03
9.299999999999999933e-02 1.596805000000000030e-01 3.840565000000000140e+01 1.208329999999999984e+02 1.801759999999999991e+03
9.400000000000000022e-02 1.598169999999999868e-01 3.944910000000000139e+01 1.236654999999999944e+02 1.802849999999999909e+03
9.500000000000000111e-02 1.599519999999999831e-01 4.044700000000000273e+01 1.264964999999999975e+02 1.803930000000000064e+03
9.600000000000000200e-02 1.600865000000000204e-01 4.140444999999999709e+01 1.293319999999999936e+02 1.805005000000000109e+03
9.700000000000000289e-02 1.602210000000000023e-01 4.232450000000000045e+01 1.321709999999999923e+02 1.806075000000000045e+03
9.800000000000000377e-02 1.603554999999999842e-01 4.320759999999999934e+01 1.350074999999999932e+02 1.807144999999999982e+03
9.900000000000000466e-02 1.604885000000000062e-01 4.405199999999999960e+01 1.378269999999999982e+02 1.808215000000000146e+03
1.000000000000000056e-01 1.606210000000000138e-01 4.485375000000000512e+01 1.406125000000000114e+02 1.809269999999999982e+03
1.010000000000000064e-01 1.607514999999999916e-01 4.560689999999999600e+01 1.433414999999999964e+02 1.810315000000000055e+03
1.020000000000000073e-01 1.608795000000000086e-01 4.630414999999999992e+01 1.459900000000000091e+02 1.811345000000000027e+03
1.030000000000000082e-01 1.610044999999999948e-01 4.693719999999999715e+01 1.485320000000000107e+02 1.812345000000000027e+03
1.040000000000000091e-01 1.611255000000000048e-01 4.749715000000000487e+01 1.509409999999999741e+02 1.813315000000000055e+03
1.050000000000000100e-01 1.612405000000000088e-01 4.797504999999999598e+01 1.531929999999999836e+02 1.814240000000000009e+03
1.059999999999999970e-01 1.613490000000000202e-01 4.836245000000000260e+01 1.552640000000000100e+02 1.815115000000000009e+03
1.069999999999999979e-01 1.614494999999999958e-01 4.865155000000000030e+01 1.571345000000000027e+02 1.815930000000000064e+03
1.079999999999999988e-01 1.615429999999999922e-01 4.883599999999999852e+01 1.587880000000000109e+02 1.816684999999999945e+03
1.089999999999999997e-01 1.616265000000000063e-01 4.891084999999999638e+01 1.602119999999999891e+02 1.817360000000000127e+03
1.100000000000000006e-01 1.617009999999999836e-01 4.887299999999999756e+01 1.613994999999999891e+02 1.817965000000000146e+03
1.110000000000000014e-01 1.617649999999999921e-01 4.872110000000000696e+01 1.623470000000000084e+02 1.818485000000000127e+03
1.120000000000000023e-01 1.618185000000000040e-01 4.845605000000000473e+01 1.630570000000000164e+02 1.818924999999999955e+03
1.130000000000000032e-01 1.618620000000000059e-01 4.808064999999999856e+01 1.635345000000000084e+02 1.819284999999999854e+03
1.140000000000000041e-01 1.618955000000000255e-01 4.759989999999999810e+01 1.637899999999999920e+02 1.819559999999999945e+03
1.150000000000000050e-01 1.619189999999999796e-01 4.702055000000000007e+01 1.638385000000000105e+02 1.819764999999999873e+03
1.160000000000000059e-01 1.619329999999999936e-01 4.635119999999999862e+01 1.636970000000000027e+02 1.819884999999999991e+03
1.170000000000000068e-01 1.619380000000000264e-01 4.560170000000000101e+01 1.633870000000000005e+02 1.819934999999999945e+03
1.180000000000000077e-01 1.619355000000000100e-01 4.478325000000000244e+01 1.629294999999999902e+02 1.819924999999999955e+03
1.190000000000000085e-01 1.619260000000000144e-01 4.390789999999999793e+01 1.623500000000000227e+02 1.819855000000000018e+03
1.200000000000000094e-01 1.619094999999999840e-01 4.298805000000000121e+01 1.616714999999999804e+02 1.819735000000000127e+03
1.209999999999999964e-01 1.618884999999999907e-01 4.203634999999999877e+01 1.609189999999999827e+02 1.819570000000000164e+03
1.219999999999999973e-01 1.618629999999999791e-01 4.106490000000000151e+01 1.601159999999999854e+02 1.819369999999999891e+03
1.229999999999999982e-01 1.618344999999999922e-01 4.008559999999999945e+01 1.592830000000000155e+02 1.819139999999999873e+03
1.239999999999999991e-01 1.618034999999999890e-01 3.910909999999999798e+01 1.584404999999999859e+02 1.818894999999999982e+03
1.250000000000000000e-01 1.617705000000000115e-01 3.814495000000000147e+01 1.576045000000000016e+02 1.818640000000000100e+03
1.260000000000000009e-01 1.617375000000000063e-01 3.720120000000000005e+01 1.567884999999999991e+02 1.818375000000000000e+03
1.270000000000000018e-01 1.617040000000000144e-01 3.628450000000000131e+01 1.560029999999999859e+02 1.818105000000000018e+03
1.280000000000000027e-01 1.616710000000000091e-01 3.539955000000000496e+01 1.552539999999999907e+02 1.817839999999999918e+03
1.290000000000000036e-01 1.616390000000000049e-01 3.454930000000000234e+01 1.545444999999999993e+02 1.817579999999999927e+03
1.300000000000000044e-01 1.616080000000000017e-01 3.373525000000000063e+01 1.538745000000000118e+02 1.817329999999999927e+03
1.310000000000000053e-01 1.615774999999999850e-01 3.295694999999999908e+01 1.532404999999999973e+02 1.817085000000000036e+03
1.320000000000000062e-01 1.615489999999999982e-01 3.221255000000000024e+01 1.526355000000000075e+02 1.816849999999999909e+03
1.330000000000000071e-01 1.615205000000000113e-01 3.149875000000000114e+01 1.520514999999999759e+02 1.816625000000000000e+03
1.340000000000000080e-01 1.614929999999999977e-01 3.081134999999999735e+01 1.514780000000000086e+02 1.816400000000000091e+03
1.350000000000000089e-01 1.614665000000000128e-01 3.014500000000000313e+01 1.509025000000000034e+02 1.816175000000000182e+03
1.360000000000000098e-01 1.614389999999999992e-01 2.949385000000000190e+01 1.503125000000000000e+02 1.815960000000000036e+03
1.370000000000000107e-01 1.614114999999999855e-01 2.885179999999999723e+01 1.496959999999999980e+02 1.815730000000000018e+03
1.380000000000000115e-01 1.613824999999999843e-01 2.821260000000000190e+01 1.490400000000000205e+02 1.815500000000000000e+03
1.390000000000000124e-01 1.613519999999999954e-01 2.757039999999999935e+01 1.483329999999999984e+02 1.815255000000000109e+03
1.400000000000000133e-01 1.613200000000000189e-01 2.691955000000000098e+01 1.475660000000000025e+02 1.814994999999999891e+03
1.410000000000000142e-01 1.612854999999999983e-01 2.625549999999999784e+01 1.467305000000000064e+02 1.814715000000000146e+03
1.420000000000000151e-01 1.612480000000000024e-01 2.557434999999999903e+01 1.458209999999999980e+02 1.814414999999999964e+03
1.430000000000000160e-01 1.612075000000000036e-01 2.487340000000000018e+01 1.448344999999999914e+02 1.814094999999999800e+03
1.440000000000000169e-01 1.611640000000000017e-01 2.415124999999999744e+01 1.437704999999999984e+02 1.813744999999999891e+03
1.450000000000000178e-01 1.611174999999999968e-01 2.340765000000000029e+01 1.426320000000000050e+02 1.813375000000000000e+03
1.459999999999999909e-01 1.610675000000000023e-01 2.264385000000000048e+01 1.414234999999999900e+02 1.812974999999999909e+03
1.469999999999999918e-01 1.610145000000000048e-01 2.186225000000000307e+01 1.401529999999999916e+02 1.812554999999999836e+03
1.479999999999999927e-01 1.609595000000000053e-01 2.106644999999999968e+01 1.388319999999999936e+02 1.812115000000000009e+03
1.489999999999999936e-01 1.609014999999999751e-01 2.026129999999999853e+01 1.374710000000000036e+02 1.811650000000000091e+03
1.499999999999999944e-01 1.608419999999999850e-01 1.945235000000000269e+01 1.360849999999999795e+02 1.811175000000000182e+03
1.509999999999999953e-01 1.607804999999999929e-01 1.864604999999999890e+01 1.346889999999999930e+02 1.810690000000000055e+03
1.519999999999999962e-01 1.607190000000000007e-01 1.784919999999999973e+01 1.332980000000000018e+02 1.810200000000000045e+03
1.529999999999999971e-01 1.606565000000000076e-01 1.706875000000000142e+01 1.319290000000000020e+02 1.809704999999999927e+03
1.539999999999999980e-01 1.605955000000000021e-01 1.631184999999999974e+01 1.305960000000000036e+02 1.809215000000000146e+03
1.549999999999999989e-01 1.605350000000000110e-01 1.558510000000000062e+01 1.293145000000000095e+02 1.808735000000000127e+03
1.559999999999999998e-01 1.604760000000000075e-01 1.489494999999999969e+01 1.280960000000000036e+02 1.808269999999999982e+03
1.570000000000000007e-01 1.604194999999999927e-01 1.424675000000000047e+01 1.269525000000000148e+02 1.807819999999999936e+03
1.580000000000000016e-01 1.603660000000000085e-01 1.364525000000000077e+01 1.258934999999999889e+02 1.807389999999999873e+03
1.590000000000000024e-01 1.603165000000000007e-01 1.309410000000000096e+01 1.249244999999999948e+02 1.806984999999999900e+03
