# t [s], A [cm^2], U [cm/s], P [cPa], c [cm/s]
1.000000000000000021e-03 1.264305000000000012e-01 2.786875000000000324e-01 8.972374999999999545e+01 1.942595000000000027e+03
2.000000000000000042e-03 1.264065000000000050e-01 1.658755999999999897e+00 8.687420000000000186e+01 1.942304999999999836e+03
3.000000000000000062e-03 1.263289999999999969e-01 3.356220999999999677e+00 8.305649999999999977e+01 1.941384999999999991e+03
4.000000000000000083e-03 1.262154999999999805e-01 5.251765500000000308e+00 7.883330000000000837e+01 1.940079999999999927e+03
5.000000000000000104e-03 1.260879999999999779e-01 7.295679999999999943e+00 7.492355000000000587e+01 1.938625000000000000e+03
6.000000000000000125e-03 1.259605000000000030e-01 9.370905000000000484e+00 7.165324999999999989e+01 1.937179999999999836e+03
7.000000000000000146e-03 1.258390000000000064e-01 1.130706499999999970e+01 6.890760000000000218e+01 1.935825000000000045e+03
8.000000000000000167e-03 1.257245000000000168e-01 1.299605999999999995e+01 6.644819999999999993e+01 1.934569999999999936e+03
9.000000000000001055e-03 1.256200000000000094e-01 1.444118500000000083e+01 6.422960000000000491e+01 1.933434999999999945e+03
1.000000000000000194e-02 1.255275000000000141e-01 1.567805000000000071e+01 6.232419999999999760e+01 1.932449999999999818e+03
1.099999999999999936e-02 1.254485000000000183e-01 1.672275000000000134e+01 6.075019999999999953e+01 1.931605000000000018e+03
1.200000000000000025e-02 1.253819999999999935e-01 1.758350000000000080e+01 5.946944999999999482e+01 1.930909999999999854e+03
1.300000000000000114e-02 1.253269999999999940e-01 1.826640000000000086e+01 5.842405000000000115e+01 1.930340000000000146e+03
1.400000000000000203e-02 1.252810000000000035e-01 1.877284999999999826e+01 5.753364999999999441e+01 1.929864999999999782e+03
1.499999999999999944e-02 1.252415000000000056e-01 1.911749999999999972e+01 5.672830000000000439e+01 1.929469999999999800e+03
1.600000000000000033e-02 1.252085000000000004e-01 1.935654999999999859e+01 5.603320000000000078e+01 1.929144999999999982e+03
1.700000000000000122e-02 1.251835000000000031e-01 1.959009999999999962e+01 5.561520000000000152e+01 1.928900000000000091e+03
1.800000000000000211e-02 1.251720000000000055e-01 1.992719999999999914e+01 5.572245000000000203e+01 1.928789999999999964e+03
1.900000000000000300e-02 1.251780000000000115e-01 2.043550000000000111e+01 5.654694999999999538e+01 1.928860000000000127e+03
2.000000000000000042e-02 1.252034999999999954e-01 2.110855000000000103e+01 5.810110000000000241e+01 1.929139999999999873e+03
2.100000000000000130e-02 1.252465000000000106e-01 2.186700000000000088e+01 6.017879999999999541e+01 1.929599999999999909e+03
2.200000000000000219e-02 1.253000000000000225e-01 2.258875000000000099e+01 6.241299999999999670e+01 1.930175000000000182e+03
2.299999999999999961e-02 1.253555000000000086e-01 2.315119999999999933e+01 6.439289999999999736e+01 1.930769999999999982e+03
2.400000000000000050e-02 1.254039999999999877e-01 2.346925000000000239e+01 6.578865000000000407e+01 1.931300000000000182e+03
2.500000000000000139e-02 1.254390000000000227e-01 2.351534999999999798e+01 6.643680000000000518e+01 1.931694999999999936e+03
2.600000000000000228e-02 1.254574999999999996e-01 2.331954999999999956e+01 6.636494999999999322e+01 1.931924999999999955e+03
2.700000000000000316e-02 1.254615000000000036e-01 2.295145000000000124e+01 6.575390000000000157e+01 1.931985000000000127e+03
2.800000000000000058e-02 1.254534999999999956e-01 2.249249999999999972e+01 6.485895000000000721e+01 1.931924999999999955e+03
2.900000000000000147e-02 1.254394999999999816e-01 2.201004999999999967e+01 6.392125000000000057e+01 1.931784999999999854e+03
3.000000000000000236e-02 1.254234999999999933e-01 2.154080000000000084e+01 6.309980000000000189e+01 1.931615000000000009e+03
3.099999999999999978e-02 1.254075000000000051e-01 2.108704999999999785e+01 6.244174999999999898e+01 1.931444999999999936e+03
3.200000000000000067e-02 1.253925000000000178e-01 2.062474999999999881e+01 6.189334999999999809e+01 1.931289999999999964e+03
3.300000000000000155e-02 1.253775000000000028e-01 2.011930000000000263e+01 6.134140000000000015e+01 1.931130000000000109e+03
3.400000000000000244e-02 1.253599999999999992e-01 1.954249999999999687e+01 6.066774999999999807e+01 1.930945000000000164e+03
3.500000000000000333e-02 1.253380000000000050e-01 1.888690000000000069e+01 5.980010000000000048e+01 1.930714999999999918e+03
3.600000000000000422e-02 1.253120000000000067e-01 1.817300000000000182e+01 5.874510000000000076e+01 1.930434999999999945e+03
3.700000000000000511e-02 1.252820000000000045e-01 1.744764999999999944e+01 5.759539999999999793e+01 1.930125000000000000e+03
3.799999999999999906e-02 1.252510000000000012e-01 1.677509999999999835e+01 5.651059999999999661e+01 1.929795000000000073e+03
3.899999999999999994e-02 1.252234999999999876e-01 1.622234999999999872e+01 5.567759999999999820e+01 1.929494999999999891e+03
4.000000000000000083e-02 1.252030000000000087e-01 1.584360000000000035e+01 5.526305000000000689e+01 1.929269999999999982e+03
4.100000000000000172e-02 1.251935000000000131e-01 1.566785000000000139e+01 5.537080000000000268e+01 1.929164999999999964e+03
4.200000000000000261e-02 1.251970000000000027e-01 1.569239999999999924e+01 5.601579999999999870e+01 1.929184999999999945e+03
4.300000000000000350e-02 1.252130000000000187e-01 1.588380000000000081e+01 5.711854999999999905e+01 1.929349999999999909e+03
4.400000000000000439e-02 1.252405000000000046e-01 1.618390000000000128e+01 5.852105000000000246e+01 1.929625000000000000e+03
4.499999999999999833e-02 1.252745000000000108e-01 1.652074999999999960e+01 6.001614999999999611e+01 1.929980000000000018e+03
4.599999999999999922e-02 1.253104999999999913e-01 1.682005000000000194e+01 6.138425000000000153e+01 1.930360000000000127e+03
4.700000000000000011e-02 1.253440000000000110e-01 1.701539999999999964e+01 6.242744999999999322e+01 1.930714999999999918e+03
4.800000000000000100e-02 1.253690000000000082e-01 1.705584999999999951e+01 6.299564999999999770e+01 1.930985000000000127e+03
4.900000000000000189e-02 1.253825000000000078e-01 1.690984999999999872e+01 6.300095000000000312e+01 1.931134999999999991e+03
5.000000000000000278e-02 1.253819999999999935e-01 1.656559999999999988e+01 6.242000000000000171e+01 1.931144999999999982e+03
5.100000000000000366e-02 1.253674999999999928e-01 1.602840000000000131e+01 6.128580000000000183e+01 1.930990000000000009e+03
5.200000000000000455e-02 1.253380000000000050e-01 1.531640000000000157e+01 5.967300000000000182e+01 1.930690000000000055e+03
5.300000000000000544e-02 1.252960000000000185e-01 1.445645000000000024e+01 5.768064999999999998e+01 1.930244999999999891e+03
5.399999999999999939e-02 1.252429999999999932e-01 1.347930000000000028e+01 5.541625000000000512e+01 1.929690000000000055e+03
5.500000000000000028e-02 1.251819999999999877e-01 1.241724500000000120e+01 5.298409999999999798e+01 1.929045000000000073e+03
5.600000000000000117e-02 1.251150000000000040e-01 1.130197000000000074e+01 5.047825000000000273e+01 1.928329999999999927e+03
5.700000000000000205e-02 1.250449999999999895e-01 1.016471499999999928e+01 4.798104999999999620e+01 1.927585000000000036e+03
5.800000000000000294e-02 1.249734999999999874e-01 9.036125000000000185e+00 4.556490000000000151e+01 1.926825000000000045e+03
5.900000000000000383e-02 1.249035000000000006e-01 7.947400000000000020e+00 4.329594999999999771e+01 1.926075000000000045e+03
6.000000000000000472e-02 1.248365000000000030e-01 6.930334999999999468e+00 4.123815000000000452e+01 1.925355000000000018e+03
6.099999999999999867e-02 1.247744999999999965e-01 6.017924999999999969e+00 3.945604999999999762e+01 1.924690000000000055e+03
6.199999999999999956e-02 1.247199999999999975e-01 5.243464999999999598e+00 3.801550000000000296e+01 1.924099999999999909e+03
6.300000000000000044e-02 1.246750000000000080e-01 4.639574999999999783e+00 3.698220000000000596e+01 1.923610000000000127e+03
6.400000000000000133e-02 1.246410000000000018e-01 4.236614999999999576e+00 3.641880000000000450e+01 1.923240000000000009e+03
6.500000000000000222e-02 1.246204999999999952e-01 4.060864999999999725e+00 3.638034999999999997e+01 1.923000000000000000e+03
6.600000000000000311e-02 1.246145000000000030e-01 4.132825000000000415e+00 3.690970000000000084e+01 1.922920000000000073e+03
6.700000000000000400e-02 1.246240000000000125e-01 4.465759999999999508e+00 3.803350000000000364e+01 1.923019999999999982e+03
6.800000000000000488e-02 1.246514999999999984e-01 5.064750000000000085e+00 3.975925000000000153e+01 1.923289999999999964e+03
6.900000000000000577e-02 1.246960000000000013e-01 5.926319999999999588e+00 4.207390000000000185e+01 1.923744999999999891e+03
7.000000000000000666e-02 1.247575000000000073e-01 7.038660000000000139e+00 4.494474999999999909e+01 1.924384999999999991e+03
7.100000000000000755e-02 1.248355000000000020e-01 8.382345000000000823e+00 4.832089999999999463e+01 1.925199999999999818e+03
7.200000000000000844e-02 1.249284999999999979e-01 9.931630000000000180e+00 5.213684999999999548e+01 1.926174999999999955e+03
7.300000000000000933e-02 1.250350000000000072e-01 1.165561500000000095e+01 5.631629999999999825e+01 1.927299999999999955e+03
7.399999999999999634e-02 1.251530000000000142e-01 1.352030000000000065e+01 6.077714999999999890e+01 1.928554999999999836e+03
7.499999999999999722e-02 1.252804999999999891e-01 1.548999999999999844e+01 6.543534999999999968e+01 1.929909999999999854e+03
7.599999999999999811e-02 1.254144999999999843e-01 1.752905000000000157e+01 7.020980000000000132e+01 1.931345000000000027e+03
7.699999999999999900e-02 1.255534999999999846e-01 1.960365000000000180e+01 7.502609999999999957e+01 1.932839999999999918e+03
7.799999999999999989e-02 1.256955000000000156e-01 2.168270000000000053e+01 7.981969999999999743e+01 1.934365000000000009e+03
7.900000000000000078e-02 1.258384999999999920e-01 2.373959999999999937e+01 8.453839999999999577e+01 1.935904999999999973e+03
8.000000000000000167e-02 1.259804999999999953e-01 2.575254999999999939e+01 8.914420000000001210e+01 1.937450000000000045e+03
8.100000000000000255e-02 1.261204999999999965e-01 2.770519999999999783e+01 9.361320000000000618e+01 1.938970000000000027e+03
8.200000000000000344e-02 1.262575000000000225e-01 2.958675000000000210e+01 9.793520000000000891e+01 1.940465000000000146e+03
8.300000000000000433e-02 1.263920000000000043e-01 3.139134999999999920e+01 1.021122500000000031e+02 1.941929999999999836e+03
8.400000000000000522e-02 1.265235000000000110e-01 3.311780000000000257e+01 1.061578000000000088e+02 1.943369999999999891e+03
8.500000000000000611e-02 1.266510000000000136e-01 3.476839999999999975e+01 1.100904999999999916e+02 1.944769999999999982e+03
8.600000000000000699e-02 1.267759999999999998e-01 3.634794999999999732e+01 1.139339999999999975e+02 1.946144999999999982e+03
8.700000000000000788e-02 1.268989999999999840e-01 3.786280000000000001e+01 1.177115000000000009e+02 1.947494999999999891e+03
8.800000000000000877e-02 1.270195000000000074e-01 3.931964999999999577e+01 1.214455000000000098e+02 1.948825000000000045e+03
8.899999999999999578e-02 1.271394999999999886e-01 4.072464999999999691e+01 1.251539999999999964e+02 1.950150000000000091e+03
8.999999999999999667e-02 1.272580000000000100e-01 4.208265000000000100e+01 1.288470000000000084e+02 1.951460000000000036e+03
9.099999999999999756e-02 1.273759999999999892e-01 4.339665000000000106e+01 1.325300000000000011e+02 1.952765000000000100e+03
9.199999999999999845e-02 1.274939999999999962e-01 4.466769999999999641e+01 1.361995000000000005e+02 1.954059999999999945e+03
9.299999999999999933e-02 1.276104999999999878e-01 4.589440000000000452e+01 1.398455000000000155e+02 1.955360000000000127e+03
9.400000000000000022e-02 1.277264999999999928e-01 4.707340000000000657e+01 1.434509999999999934e+02 1.956644999999999982e+03
9.500000000000000111e-02 1.278410000000000102e-01 4.819919999999999760e+01 1.469945000000000164e+02 1.957910000000000082e+03
9.600000000000000200e-02 1.279530000000000112e-01 4.926474999999999937e+01 1.504515000000000100e+02 1.959159999999999854e+03
9.700000000000000289e-02 1.280634999999999968e-01 5.026200000000000045e+01 1.537930000000000064e+02 1.960380000000000109e+03
9.800000000000000377e-02 1.281694999999999918e-01 5.118164999999999765e+01 1.569900000000000091e+02 1.961569999999999936e+03
9.900000000000000466e-02 1.282714999999999828e-01 5.201454999999999984e+01 1.600144999999999982e+02 1.962710000000000036e+03
1.000000000000000056e-01 1.283684999999999965e-01 5.275144999999999840e+01 1.628389999999999986e+02 1.963799999999999955e+03
1.010000000000000064e-01 1.284605000000000052e-01 5.338365000000000293e+01 1.654389999999999930e+02 1.964815000000000055e+03
1.020000000000000073e-01 1.285450000000000204e-01 5.390359999999999729e+01 1.677925000000000182e+02 1.965769999999999982e+03
1.030000000000000082e-01 1.286225000000000007e-01 5.430509999999999593e+01 1.698820000000000050e+02 1.966644999999999982e+03
1.040000000000000091e-01 1.286930000000000018e-01 5.458355000000000246e+01 1.716954999999999814e+02 1.967434999999999945e+03
1.050000000000000100e-01 1.287544999999999940e-01 5.473645000000000493e+01 1.732259999999999991e+02 1.968134999999999991e+03
1.059999999999999970e-01 1.288084999999999924e-01 5.476354999999999507e+01 1.744710000000000036e+02 1.968740000000000009e+03
1.069999999999999979e-01 1.288529999999999953e-01 5.466679999999999495e+01 1.754350000000000023e+02 1.969259999999999991e+03
1.079999999999999988e-01 1.288900000000000046e-01 5.445064999999999600e+01 1.761274999999999977e+02 1.969680000000000064e+03
1.089999999999999997e-01 1.289184999999999914e-01 5.412180000000000035e+01 1.765635000000000048e+02 1.970005000000000109e+03
1.100000000000000006e-01 1.289389999999999981e-01 5.368895000000000550e+01 1.767630000000000052e+02 1.970250000000000000e+03
1.110000000000000014e-01 1.289529999999999843e-01 5.316275000000000261e+01 1.767495000000000118e+02 1.970410000000000082e+03
1.120000000000000023e-01 1.289595000000000047e-01 5.255519999999999925e+01 1.765504999999999995e+02 1.970494999999999891e+03
1.130000000000000032e-01 1.289599999999999913e-01 5.187935000000000230e+01 1.761939999999999884e+02 1.970514999999999873e+03
1.140000000000000041e-01 1.289560000000000151e-01 5.114869999999999806e+01 1.757090000000000032e+02 1.970480000000000018e+03
1.150000000000000050e-01 1.289474999999999927e-01 5.037689999999999912e+01 1.751264999999999930e+02 1.970389999999999873e+03
1.160000000000000059e-01 1.289349999999999941e-01 4.957715000000000316e+01 1.744735000000000014e+02 1.970255000000000109e+03
1.170000000000000068e-01 1.289200000000000068e-01 4.876174999999999926e+01 1.737750000000000057e+02 1.970095000000000027e+03
1.180000000000000077e-01 1.289029999999999898e-01 4.794185000000000230e+01 1.730529999999999973e+02 1.969909999999999854e+03
1.190000000000000085e-01 1.288845000000000129e-01 4.712704999999999700e+01 1.723269999999999982e+02 1.969704999999999927e+03
1.200000000000000094e-01 1.288655000000000217e-01 4.632514999999999361e+01 1.716100000000000136e+02 1.969494999999999891e+03
1.209999999999999964e-01 1.288459999999999883e-01 4.554214999999999947e+01 1.709139999999999873e+02 1.969280000000000200e+03
1.219999999999999973e-01 1.288265000000000104e-01 4.478199999999999648e+01 1.702420000000000186e+02 1.969059999999999945e+03
1.229999999999999982e-01 1.288070000000000048e-01 4.404684999999999917e+01 1.695964999999999918e+02 1.968845000000000027e+03
1.239999999999999991e-01 1.287885000000000002e-01 4.333674999999999500e+01 1.689755000000000109e+02 1.968630000000000109e+03
1.250000000000000000e-01 1.287695000000000090e-01 4.265040000000000475e+01 1.683720000000000141e+02 1.968414999999999964e+03
1.260000000000000009e-01 1.287510000000000043e-01 4.198470000000000368e+01 1.677775000000000034e+02 1.968210000000000036e+03
1.270000000000000018e-01 1.287324999999999997e-01 4.133554999999999779e+01 1.671804999999999950e+02 1.968000000000000000e+03
1.280000000000000027e-01 1.287139999999999951e-01 4.069774999999999920e+01 1.665695000000000050e+02 1.967789999999999964e+03
1.290000000000000036e-01 1.286944999999999895e-01 4.006560000000000343e+01 1.659290000000000020e+02 1.967575000000000045e+03
1.300000000000000044e-01 1.286744999999999972e-01 3.943299999999999983e+01 1.652470000000000141e+02 1.967349999999999909e+03
1.310000000000000053e-01 1.286529999999999896e-01 3.879389999999999361e+01 1.645095000000000027e+02 1.967110000000000127e+03
1.320000000000000062e-01 1.286299999999999943e-01 3.814274999999999949e+01 1.637055000000000007e+02 1.966855000000000018e+03
1.330000000000000071e-01 1.286055000000000115e-01 3.747424999999999784e+01 1.628249999999999886e+02 1.966575000000000045e+03
1.340000000000000080e-01 1.285785000000000122e-01 3.678439999999999799e+01 1.618600000000000136e+02 1.966275000000000091e+03
1.350000000000000089e-01 1.285489999999999966e-01 3.606990000000000407e+01 1.608064999999999998e+02 1.965944999999999936e+03
1.360000000000000098e-01 1.285165000000000057e-01 3.532914999999999850e+01 1.596620000000000061e+02 1.965595000000000027e+03
1.370000000000000107e-01 1.284824999999999995e-01 3.456150000000000233e+01 1.584284999999999854e+02 1.965210000000000036e+03
1.380000000000000115e-01 1.284450000000000036e-01 3.376810000000000400e+01 1.571115000000000066e+02 1.964795000000000073e+03
1.390000000000000124e-01 1.284055000000000057e-01 3.295135000000000502e+01 1.557189999999999941e+02 1.964360000000000127e+03
1.400000000000000133e-01 1.283634999999999915e-01 3.211505000000000365e+01 1.542624999999999886e+02 1.963900000000000091e+03
1.410000000000000142e-01 1.283199999999999896e-01 3.126444999999999652e+01 1.527560000000000002e+02 1.963414999999999964e+03
1.420000000000000151e-01 1.282745000000000135e-01 3.040569999999999951e+01 1.512160000000000082e+02 1.962910000000000082e+03
1.430000000000000160e-01 1.282284999999999953e-01 2.954585000000000150e+01 1.496599999999999966e+02 1.962400000000000091e+03
1.440000000000000169e-01 1.281815000000000038e-01 2.869254999999999711e+01 1.481074999999999875e+02 1.961880000000000109e+03
1.450000000000000178e-01 1.281339999999999979e-01 2.785369999999999990e+01 1.465769999999999982e+02 1.961359999999999900e+03
1.459999999999999909e-01 1.280874999999999930e-01 2.703725000000000023e+01 1.450880000000000223e+02 1.960839999999999918e+03
1.469999999999999918e-01 1.280419999999999892e-01 2.625079999999999814e+01 1.436574999999999989e+02 1.960335000000000036e+03
1.479999999999999927e-01 1.279980000000000007e-01 2.550120000000000076e+01 1.423015000000000043e+02 1.959840000000000146e+03
1.489999999999999936e-01 1.279554999999999998e-01 2.479465000000000074e+01 1.410339999999999918e+02 1.959375000000000000e+03
1.499999999999999944e-01 1.279155000000000153e-01 2.413604999999999734e+01 1.398645000000000209e+02 1.958924999999999955e+03
1.509999999999999953e-01 1.278785000000000061e-01 2.352919999999999945e+01 1.388009999999999877e+02 1.958514999999999873e+03
1.519999999999999962e-01 1.278440000000000132e-01 2.297659999999999769e+01 1.378474999999999966e+02 1.958130000000000109e+03
1.529999999999999971e-01 1.278124999999999956e-01 2.247914999999999708e+01 1.370055000000000121e+02 1.957779999999999973e+03
1.539999999999999980e-01 1.277844999999999953e-01 2.203679999999999950e+01 1.362729999999999961e+02 1.957464999999999918e+03
1.549999999999999989e-01 1.277594999999999981e-01 2.164799999999999969e+01 1.356450000000000102e+02 1.957179999999999836e+03
1.559999999999999998e-01 1.277375000000000038e-01 2.131024999999999991e+01 1.351150000000000091e+02 1.956930000000000064e+03
1.570000000000000007e-01 1.277179999999999982e-01 2.101995000000000147e+01 1.346745000000000232e+02 1.956715000000000146e+03
1.580000000000000016e-01 1.277014999999999956e-01 2.077304999999999779e+01 1.343129999999999882e+02 1.956530000000000200e+03
1.590000000000000024e-01 1.276879999999999959e-01 2.056470000000000198e+01 1.340190000000000055e+02 1.956369999999999891e+03
