# t [s], A [cm^2], U [cm/s], P [cPa], c [cm/s]
1.000000000000000021e-03 4.759714999999999918e-01 3.825099999999997946e-03 9.414334999999999809e+01 1.542994999999999891e+03
2.000000000000000042e-03 4.759640000000000537e-01 -1.539057499999999879e-03 9.412145000000001005e+01 1.542990000000000009e+03
3.000000000000000062e-03 4.759980000000000322e-01 7.460195000000000021e-02 9.419640000000001123e+01 1.543009999999999991e+03
4.000000000000000083e-03 4.760380000000000167e-01 1.676152499999999934e-01 9.430949999999999989e+01 1.543039999999999964e+03
5.000000000000000104e-03 4.760314999999999963e-01 1.668374999999999997e-01 9.430019999999998959e+01 1.543045000000000073e+03
6.000000000000000125e-03 4.759904999999999831e-01 8.633299999999999308e-02 9.414459999999999695e+01 1.543005000000000109e+03
7.000000000000000146e-03 4.759504999999999986e-01 3.303500000000014758e-03 9.392490000000000805e+01 1.542954999999999927e+03
8.000000000000000167e-03 4.759005000000000041e-01 -1.107425000000000215e-01 9.362389999999999191e+01 1.542884999999999991e+03
9.000000000000001055e-03 4.758140000000000147e-01 -3.180250000000000021e-01 9.316114999999999213e+01 1.542779999999999973e+03
1.000000000000000194e-02 4.756854999999999833e-01 -6.310900000000000398e-01 9.249230000000000018e+01 1.542625000000000000e+03
1.099999999999999936e-02 4.755064999999999986e-01 -1.058505000000000029e+00 9.157609999999999673e+01 1.542404999999999973e+03
1.200000000000000025e-02 4.752669999999999950e-01 -1.615039999999999809e+00 9.036140000000000327e+01 1.542110000000000127e+03
1.300000000000000114e-02 4.749700000000000033e-01 -2.275604999999999656e+00 8.884199999999999875e+01 1.541740000000000009e+03
1.400000000000000203e-02 4.746454999999999980e-01 -2.951570000000000249e+00 8.710054999999999836e+01 1.541299999999999955e+03
1.499999999999999944e-02 4.743334999999999635e-01 -3.521449999999999747e+00 8.528874999999999318e+01 1.540829999999999927e+03
1.600000000000000033e-02 4.740674999999999750e-01 -3.883850500000000316e+00 8.356374999999999886e+01 1.540355000000000018e+03
1.700000000000000122e-02 4.738574999999999871e-01 -3.992374349999999961e+00 8.203104999999999336e+01 1.539909999999999854e+03
1.800000000000000211e-02 4.736949999999999772e-01 -3.860284000000000049e+00 8.071924999999998818e+01 1.539509999999999991e+03
1.900000000000000300e-02 4.735550000000000037e-01 -3.543491500000000016e+00 7.958715000000000828e+01 1.539139999999999873e+03
2.000000000000000042e-02 4.734129999999999727e-01 -3.114750000000000352e+00 7.855060000000000286e+01 1.538789999999999964e+03
2.100000000000000130e-02 4.732465000000000144e-01 -2.638797999999999977e+00 7.751694999999999425e+01 1.538440000000000055e+03
2.200000000000000219e-02 4.730480000000000240e-01 -2.154931500000000000e+00 7.641550000000000864e+01 1.538079999999999927e+03
2.299999999999999961e-02 4.728185000000000304e-01 -1.671130000000000004e+00 7.521594999999999231e+01 1.537704999999999927e+03
2.400000000000000050e-02 4.725705000000000044e-01 -1.170740000000000114e+00 7.392974999999999852e+01 1.537295000000000073e+03
2.500000000000000139e-02 4.723175000000000012e-01 -6.277649999999999064e-01 7.259560000000000457e+01 1.536880000000000109e+03
2.600000000000000228e-02 4.720695000000000308e-01 -2.398499999999970100e-02 7.125690000000000168e+01 1.536464999999999918e+03
2.700000000000000316e-02 4.718305000000000415e-01 6.385999999999998344e-01 6.994084999999999752e+01 1.536050000000000182e+03
2.800000000000000058e-02 4.715939999999999577e-01 1.333215000000000039e+00 6.864490000000000691e+01 1.535634999999999991e+03
2.900000000000000147e-02 4.713469999999999605e-01 2.011690000000000200e+00 6.733395000000000152e+01 1.535215000000000146e+03
3.000000000000000236e-02 4.710735000000000339e-01 2.613825000000000287e+00 6.594800000000000750e+01 1.534779999999999973e+03
3.099999999999999978e-02 4.707569999999999810e-01 3.079905000000000115e+00 6.441610000000000014e+01 1.534309999999999945e+03
3.200000000000000067e-02 4.703869999999999996e-01 3.363560000000000105e+00 6.267475000000000307e+01 1.533799999999999955e+03
3.300000000000000155e-02 4.699600000000000444e-01 3.441795000000000382e+00 6.068569999999999709e+01 1.533230000000000018e+03
3.400000000000000244e-02 4.694829999999999837e-01 3.320240000000000524e+00 5.844814999999999827e+01 1.532599999999999909e+03
3.500000000000000333e-02 4.689705000000000124e-01 3.031634999999999636e+00 5.600350000000000250e+01 1.531920000000000073e+03
3.600000000000000422e-02 4.684444999999999859e-01 2.628970000000000251e+00 5.343025000000000091e+01 1.531200000000000045e+03
3.700000000000000511e-02 4.679280000000000106e-01 2.175510000000000499e+00 5.083254999999999768e+01 1.530474999999999909e+03
3.799999999999999906e-02 4.674435000000000118e-01 1.734554999999999847e+00 4.832545000000000357e+01 1.529759999999999991e+03
3.899999999999999994e-02 4.670115000000000238e-01 1.361289999999999889e+00 4.601999999999999602e+01 1.529085000000000036e+03
4.000000000000000083e-02 4.666460000000000052e-01 1.098020000000000440e+00 4.401194999999999879e+01 1.528485000000000127e+03
4.100000000000000172e-02 4.663559999999999928e-01 9.728699999999999015e-01 4.237505000000000166e+01 1.527970000000000027e+03
4.200000000000000261e-02 4.661465000000000192e-01 1.001219999999999777e+00 4.115814999999999912e+01 1.527565000000000055e+03
4.300000000000000350e-02 4.660190000000000166e-01 1.188884999999999970e+00 4.038714999999999833e+01 1.527275000000000091e+03
4.400000000000000439e-02 4.659720000000000528e-01 1.535958900000000016e+00 4.006889999999999930e+01 1.527105000000000018e+03
4.499999999999999833e-02 4.660030000000000561e-01 2.040305000000000035e+00 4.019705000000000439e+01 1.527059999999999945e+03
4.599999999999999922e-02 4.661100000000000243e-01 2.700019999999999865e+00 4.075730000000000075e+01 1.527134999999999991e+03
4.700000000000000011e-02 4.662899999999999823e-01 3.514417499999999972e+00 4.173170000000000357e+01 1.527329999999999927e+03
4.800000000000000100e-02 4.665409999999999835e-01 4.483562500000000561e+00 4.310065000000000168e+01 1.527644999999999982e+03
4.900000000000000189e-02 4.668605000000000116e-01 5.606759000000000270e+00 4.484380000000000166e+01 1.528065000000000055e+03
5.000000000000000278e-02 4.672439999999999927e-01 6.880751499999999687e+00 4.693840000000000146e+01 1.528590000000000146e+03
5.100000000000000366e-02 4.676875000000000338e-01 8.297760000000000247e+00 4.935829999999999984e+01 1.529210000000000036e+03
5.200000000000000455e-02 4.681845000000000034e-01 9.844650000000001455e+00 5.207189999999999941e+01 1.529924999999999955e+03
5.300000000000000544e-02 4.687274999999999636e-01 1.150276999999999994e+01 5.504155000000000086e+01 1.530715000000000146e+03
5.399999999999999939e-02 4.693074999999999886e-01 1.324848500000000051e+01 5.822400000000000375e+01 1.531574999999999818e+03
5.500000000000000028e-02 4.699149999999999716e-01 1.505501999999999896e+01 6.157155000000000200e+01 1.532494999999999891e+03
5.600000000000000117e-02 4.705399999999999583e-01 1.689394500000000221e+01 6.503425000000000011e+01 1.533450000000000045e+03
5.700000000000000205e-02 4.711739999999999817e-01 1.873740000000000094e+01 6.856270000000000664e+01 1.534440000000000055e+03
5.800000000000000294e-02 4.718090000000000339e-01 2.055969999999999942e+01 7.211074999999999591e+01 1.535450000000000045e+03
5.900000000000000383e-02 4.724375000000000102e-01 2.233869999999999933e+01 7.563774999999999693e+01 1.536460000000000036e+03
6.000000000000000472e-02 4.730550000000000033e-01 2.405679999999999907e+01 7.911084999999999923e+01 1.537474999999999909e+03
6.099999999999999867e-02 4.736580000000000235e-01 2.570100000000000051e+01 8.250570000000000448e+01 1.538470000000000027e+03
6.199999999999999956e-02 4.742450000000000276e-01 2.726315000000000310e+01 8.580674999999999386e+01 1.539449999999999818e+03
6.300000000000000044e-02 4.748160000000000158e-01 2.873920000000000030e+01 8.900735000000000241e+01 1.540409999999999854e+03
6.400000000000000133e-02 4.753709999999999880e-01 3.012855000000000061e+01 9.210730000000000928e+01 1.541344999999999800e+03
6.500000000000000222e-02 4.759124999999999606e-01 3.143365000000000009e+01 9.511480000000000246e+01 1.542259999999999991e+03
6.600000000000000311e-02 4.764424999999999910e-01 3.265865000000000151e+01 9.803990000000000293e+01 1.543154999999999973e+03
6.700000000000000400e-02 4.769639999999999991e-01 3.380920000000000414e+01 1.008969000000000023e+02 1.544029999999999973e+03
6.800000000000000488e-02 4.774789999999999868e-01 3.489140000000000441e+01 1.037021000000000015e+02 1.544894999999999982e+03
6.900000000000000577e-02 4.779909999999999437e-01 3.591129999999999711e+01 1.064697000000000031e+02 1.545740000000000009e+03
7.000000000000000666e-02 4.785010000000000097e-01 3.687434999999999974e+01 1.092129999999999939e+02 1.546585000000000036e+03
7.100000000000000755e-02 4.790105000000000057e-01 3.778459999999999752e+01 1.119420000000000073e+02 1.547424999999999955e+03
7.200000000000000844e-02 4.795194999999999874e-01 3.864480000000000359e+01 1.146620000000000061e+02 1.548255000000000109e+03
7.300000000000000933e-02 4.800289999999999835e-01 3.945579999999999643e+01 1.173750000000000000e+02 1.549090000000000146e+03
7.399999999999999634e-02 4.805364999999999776e-01 4.021645000000000181e+01 1.200765000000000100e+02 1.549914999999999964e+03
7.499999999999999722e-02 4.810404999999999820e-01 4.092409999999999570e+01 1.227574999999999932e+02 1.550740000000000009e+03
7.599999999999999811e-02 4.815369999999999928e-01 4.157419999999999760e+01 1.254055000000000035e+02 1.551554999999999836e+03
7.699999999999999900e-02 4.820245000000000224e-01 4.216120000000000090e+01 1.280039999999999907e+02 1.552355000000000018e+03
7.799999999999999989e-02 4.824984999999999413e-01 4.267884999999999707e+01 1.305324999999999989e+02 1.553139999999999873e+03
7.900000000000000078e-02 4.829544999999999533e-01 4.312049999999999983e+01 1.329719999999999800e+02 1.553900000000000091e+03
8.000000000000000167e-02 4.833890000000000131e-01 4.347995000000000232e+01 1.353015000000000043e+02 1.554630000000000109e+03
8.100000000000000255e-02 4.837994999999999934e-01 4.375150000000000006e+01 1.375010000000000048e+02 1.555329999999999927e+03
8.200000000000000344e-02 4.841820000000000013e-01 4.393049999999999500e+01 1.395529999999999973e+02 1.555990000000000009e+03
8.300000000000000433e-02 4.845349999999999380e-01 4.401364999999999839e+01 1.414420000000000073e+02 1.556599999999999909e+03
8.400000000000000522e-02 4.848550000000000360e-01 4.399909999999999854e+01 1.431570000000000107e+02 1.557159999999999854e+03
8.500000000000000611e-02 4.851424999999999765e-01 4.388640000000000185e+01 1.446895000000000095e+02 1.557670000000000073e+03
8.600000000000000699e-02 4.853960000000000496e-01 4.367704999999999416e+01 1.460355000000000132e+02 1.558130000000000109e+03
8.700000000000000788e-02 4.856165000000000065e-01 4.337389999999999901e+01 1.471949999999999932e+02 1.558529999999999973e+03
8.800000000000000877e-02 4.858035000000000547e-01 4.298144999999999527e+01 1.481705000000000041e+02 1.558880000000000109e+03
8.899999999999999578e-02 4.859590000000000298e-01 4.250580000000000069e+01 1.489699999999999989e+02 1.559175000000000182e+03
8.999999999999999667e-02 4.860855000000000592e-01 4.195414999999999850e+01 1.496034999999999968e+02 1.559420000000000073e+03
9.099999999999999756e-02 4.861845000000000194e-01 4.133504999999999541e+01 1.500824999999999818e+02 1.559615000000000009e+03
9.199999999999999845e-02 4.862589999999999968e-01 4.065805000000000291e+01 1.504234999999999900e+02 1.559769999999999982e+03
9.299999999999999933e-02 4.863119999999999665e-01 3.993335000000000434e+01 1.506419999999999959e+02 1.559880000000000109e+03
9.400000000000000022e-02 4.863469999999999738e-01 3.917149999999999466e+01 1.507570000000000050e+02 1.559965000000000146e+03
9.500000000000000111e-02 4.863669999999999938e-01 3.838330000000000553e+01 1.507860000000000014e+02 1.560009999999999991e+03
9.600000000000000200e-02 4.863760000000000305e-01 3.757925000000000182e+01 1.507470000000000141e+02 1.560034999999999854e+03
9.700000000000000289e-02 4.863755000000000162e-01 3.676924999999999955e+01 1.506580000000000155e+02 1.560034999999999854e+03
9.800000000000000377e-02 4.863684999999999814e-01 3.596224999999999739e+01 1.505345000000000084e+02 1.560029999999999973e+03
9.900000000000000466e-02 4.863589999999999858e-01 3.516604999999999848e+01 1.503904999999999745e+02 1.560005000000000109e+03
1.000000000000000056e-01 4.863465000000000149e-01 3.438689999999999714e+01 1.502375000000000114e+02 1.559974999999999909e+03
1.010000000000000064e-01 4.863339999999999885e-01 3.362959999999999638e+01 1.500844999999999914e+02 1.559940000000000055e+03
1.020000000000000073e-01 4.863220000000000320e-01 3.289705000000000013e+01 1.499375000000000000e+02 1.559905000000000200e+03
1.030000000000000082e-01 4.863100000000000200e-01 3.219044999999999845e+01 1.497980000000000018e+02 1.559865000000000009e+03
1.040000000000000091e-01 4.862985000000000224e-01 3.150955000000000084e+01 1.496665000000000134e+02 1.559835000000000036e+03
1.050000000000000100e-01 4.862865000000000104e-01 3.085249999999999915e+01 1.495405000000000086e+02 1.559795000000000073e+03
1.059999999999999970e-01 4.862735000000000252e-01 3.021609999999999729e+01 1.494145000000000039e+02 1.559755000000000109e+03
1.069999999999999979e-01 4.862564999999999804e-01 2.959649999999999892e+01 1.492810000000000059e+02 1.559720000000000027e+03
1.079999999999999988e-01 4.862355000000000427e-01 2.898880000000000123e+01 1.491324999999999932e+02 1.559670000000000073e+03
1.089999999999999997e-01 4.862084999999999879e-01 2.838795000000000002e+01 1.489594999999999914e+02 1.559619999999999891e+03
1.100000000000000006e-01 4.861734999999999807e-01 2.778865000000000052e+01 1.487529999999999859e+02 1.559554999999999836e+03
1.110000000000000014e-01 4.861299999999999510e-01 2.718590000000000018e+01 1.485040000000000191e+02 1.559485000000000127e+03
1.120000000000000023e-01 4.860754999999999937e-01 2.657505000000000095e+01 1.482049999999999841e+02 1.559400000000000091e+03
1.130000000000000032e-01 4.860094999999999832e-01 2.595210000000000150e+01 1.478489999999999895e+02 1.559299999999999955e+03
1.140000000000000041e-01 4.859315000000000162e-01 2.531394999999999840e+01 1.474314999999999998e+02 1.559184999999999945e+03
1.150000000000000050e-01 4.858409999999999673e-01 2.465834999999999866e+01 1.469490000000000123e+02 1.559045000000000073e+03
1.160000000000000059e-01 4.857384999999999620e-01 2.398434999999999917e+01 1.464010000000000105e+02 1.558889999999999873e+03
1.170000000000000068e-01 4.856234999999999857e-01 2.329204999999999970e+01 1.457884999999999991e+02 1.558719999999999800e+03
1.180000000000000077e-01 4.854975000000000263e-01 2.258259999999999934e+01 1.451150000000000091e+02 1.558529999999999973e+03
1.190000000000000085e-01 4.853619999999999601e-01 2.185849999999999937e+01 1.443865000000000123e+02 1.558324999999999818e+03
1.200000000000000094e-01 4.852180000000000382e-01 2.112320000000000064e+01 1.436100000000000136e+02 1.558105000000000018e+03
1.209999999999999964e-01 4.850674999999999848e-01 2.038119999999999976e+01 1.427950000000000159e+02 1.557869999999999891e+03
1.219999999999999973e-01 4.849124999999999686e-01 1.963775000000000048e+01 1.419519999999999982e+02 1.557630000000000109e+03
1.229999999999999982e-01 4.847549999999999915e-01 1.889859999999999829e+01 1.410914999999999964e+02 1.557380000000000109e+03
1.239999999999999991e-01 4.845975000000000144e-01 1.817004999999999981e+01 1.402275000000000205e+02 1.557130000000000109e+03
1.250000000000000000e-01 4.844424999999999981e-01 1.745860000000000056e+01 1.393720000000000141e+02 1.556875000000000000e+03
1.260000000000000009e-01 4.842925000000000146e-01 1.677064999999999984e+01 1.385369999999999777e+02 1.556625000000000000e+03
1.270000000000000018e-01 4.841485000000000372e-01 1.611214999999999975e+01 1.377334999999999923e+02 1.556380000000000109e+03
1.280000000000000027e-01 4.840130000000000265e-01 1.548874999999999957e+01 1.369730000000000132e+02 1.556154999999999973e+03
1.290000000000000036e-01 4.838875000000000259e-01 1.490535000000000032e+01 1.362640000000000100e+02 1.555930000000000064e+03
1.300000000000000044e-01 4.837730000000000086e-01 1.436580000000000013e+01 1.356150000000000091e+02 1.555730000000000018e+03
1.310000000000000053e-01 4.836705000000000032e-01 1.387308999999999948e+01 1.350305000000000177e+02 1.555539999999999964e+03
1.320000000000000062e-01 4.835810000000000386e-01 1.342912499999999909e+01 1.345140000000000100e+02 1.555369999999999891e+03
1.330000000000000071e-01 4.835034999999999750e-01 1.303460499999999911e+01 1.340670000000000073e+02 1.555224999999999909e+03
1.340000000000000080e-01 4.834384999999999932e-01 1.268910499999999963e+01 1.336885000000000048e+02 1.555090000000000146e+03
1.350000000000000089e-01 4.833850000000000091e-01 1.239119499999999974e+01 1.333764999999999930e+02 1.554980000000000018e+03
1.360000000000000098e-01 4.833425000000000082e-01 1.213840000000000074e+01 1.331260000000000048e+02 1.554884999999999991e+03
1.370000000000000107e-01 4.833089999999999886e-01 1.192756500000000131e+01 1.329309999999999832e+02 1.554809999999999945e+03
1.380000000000000115e-01 4.832840000000000469e-01 1.175484499999999954e+01 1.327844999999999800e+02 1.554744999999999891e+03
1.390000000000000124e-01 4.832649999999999446e-01 1.161590500000000148e+01 1.326789999999999736e+02 1.554695000000000164e+03
1.400000000000000133e-01 4.832515000000000005e-01 1.150622500000000059e+01 1.326059999999999945e+02 1.554654999999999973e+03
1.410000000000000142e-01 4.832420000000000604e-01 1.142114499999999921e+01 1.325575000000000045e+02 1.554625000000000000e+03
1.420000000000000151e-01 4.832345000000000113e-01 1.135608500000000021e+01 1.325260000000000105e+02 1.554605000000000018e+03
1.430000000000000160e-01 4.832290000000000196e-01 1.130682000000000009e+01 1.325049999999999955e+02 1.554585000000000036e+03
1.440000000000000169e-01 4.832224999999999993e-01 1.126934999999999931e+01 1.324865000000000066e+02 1.554569999999999936e+03
1.450000000000000178e-01 4.832164999999999933e-01 1.124023500000000020e+01 1.324675000000000011e+02 1.554554999999999836e+03
1.459999999999999909e-01 4.832084999999999853e-01 1.121642999999999901e+01 1.324420000000000073e+02 1.554545000000000073e+03
1.469999999999999918e-01 4.831995000000000040e-01 1.119545499999999905e+01 1.324085000000000036e+02 1.554525000000000091e+03
1.479999999999999927e-01 4.831880000000000064e-01 1.117552999999999841e+01 1.323654999999999973e+02 1.554505000000000109e+03
1.489999999999999936e-01 4.831749999999999656e-01 1.115513999999999939e+01 1.323104999999999905e+02 1.554490000000000009e+03
1.499999999999999944e-01 4.831599999999999784e-01 1.113338500000000053e+01 1.322459999999999809e+02 1.554465000000000146e+03
1.509999999999999953e-01 4.831435000000000035e-01 1.110977499999999907e+01 1.321714999999999804e+02 1.554445000000000164e+03
1.519999999999999962e-01 4.831259999999999999e-01 1.108425000000000082e+01 1.320889999999999986e+02 1.554420000000000073e+03
1.529999999999999971e-01 4.831079999999999819e-01 1.105691500000000005e+01 1.320020000000000095e+02 1.554390000000000100e+03
1.539999999999999980e-01 4.830895000000000050e-01 1.102822499999999906e+01 1.319114999999999895e+02 1.554365000000000009e+03
1.549999999999999989e-01 4.830714999999999870e-01 1.099877500000000019e+01 1.318204999999999814e+02 1.554339999999999918e+03
1.559999999999999998e-01 4.830540000000000389e-01 1.096917499999999990e+01 1.317309999999999945e+02 1.554309999999999945e+03
1.570000000000000007e-01 4.830369999999999941e-01 1.094013499999999972e+01 1.316454999999999984e+02 1.554284999999999854e+03
1.580000000000000016e-01 4.830225000000000213e-01 1.091234999999999999e+01 1.315670000000000073e+02 1.554259999999999991e+03
1.590000000000000024e-01 4.830084999999999518e-01 1.088640499999999989e+01 1.314960000000000093e+02 1.554240000000000009e+03
