# t [s], A [cm^2], U [cm/s], P [cPa], c [cm/s]
1.000000000000000021e-03 5.716105000000000214e-01 4.470250000000002000e-03 1.041924999999999955e+02 1.501480000000000018e+03
2.000000000000000042e-03 5.716010000000000257e-01 -1.152472000000000088e-03 1.041689999999999969e+02 1.501474999999999909e+03
3.000000000000000062e-03 5.716505000000000614e-01 8.713539999999998786e-02 1.042549999999999955e+02 1.501490000000000009e+03
4.000000000000000083e-03 5.716999999999999860e-01 1.828540000000000165e-01 1.043679999999999950e+02 1.501525000000000091e+03
5.000000000000000104e-03 5.716830000000000522e-01 1.685425499999999854e-01 1.043335000000000008e+02 1.501519999999999982e+03
6.000000000000000125e-03 5.716215000000000046e-01 7.128450000000000064e-02 1.041409999999999911e+02 1.501474999999999909e+03
7.000000000000000146e-03 5.715635000000000021e-01 -2.705250000000003485e-02 1.038780000000000001e+02 1.501420000000000073e+03
8.000000000000000167e-03 5.714829999999999632e-01 -1.762050000000000560e-01 1.035060000000000002e+02 1.501335000000000036e+03
9.000000000000001055e-03 5.713460000000000205e-01 -4.413599999999999746e-01 1.029355000000000047e+02 1.501210000000000036e+03
1.000000000000000194e-02 5.711500000000000465e-01 -8.225350000000001272e-01 1.021285000000000025e+02 1.501025000000000091e+03
1.099999999999999936e-02 5.708870000000000333e-01 -1.322869999999999990e+00 1.010465999999999980e+02 1.500775000000000091e+03
1.200000000000000025e-02 5.705405000000000060e-01 -1.956869999999999887e+00 9.963535000000000252e+01 1.500445000000000164e+03
1.300000000000000114e-02 5.701154999999999973e-01 -2.692544999999999966e+00 9.789234999999999332e+01 1.500025000000000091e+03
1.400000000000000203e-02 5.696550000000000225e-01 -3.422649999999999970e+00 9.591775000000001228e+01 1.499539999999999964e+03
1.499999999999999944e-02 5.692205000000000181e-01 -4.002264999999999517e+00 9.389224999999999000e+01 1.499025000000000091e+03
1.600000000000000033e-02 5.688584999999999336e-01 -4.313269000000000020e+00 9.200155000000000882e+01 1.498514999999999873e+03
1.700000000000000122e-02 5.685835000000000194e-01 -4.306395499999999821e+00 9.036464999999999748e+01 1.498049999999999955e+03
1.800000000000000211e-02 5.683785000000000087e-01 -4.006384500000000237e+00 8.900665000000000759e+01 1.497630000000000109e+03
1.900000000000000300e-02 5.682055000000000300e-01 -3.490928999999999949e+00 8.786645000000000039e+01 1.497255000000000109e+03
2.000000000000000042e-02 5.680229999999999446e-01 -2.858344750000000101e+00 8.683020000000000493e+01 1.496909999999999854e+03
2.100000000000000130e-02 5.677980000000000249e-01 -2.195237500000000175e+00 8.577530000000000143e+01 1.496559999999999945e+03
2.200000000000000219e-02 5.675169999999999382e-01 -1.552985000000000060e+00 8.461095000000000255e+01 1.496184999999999945e+03
2.299999999999999961e-02 5.671850000000000502e-01 -9.400000000000001688e-01 8.330250000000000909e+01 1.495789999999999964e+03
2.400000000000000050e-02 5.668225000000000069e-01 -3.317350000000001131e-01 8.187135000000000673e+01 1.495360000000000127e+03
2.500000000000000139e-02 5.664529999999999843e-01 3.074799999999999756e-01 8.037380000000000280e+01 1.494914999999999964e+03
2.600000000000000228e-02 5.660924999999999985e-01 1.001234999999999875e+00 7.886994999999998868e+01 1.494464999999999918e+03
2.700000000000000316e-02 5.657479999999999176e-01 1.745190000000000241e+00 7.739605000000000246e+01 1.494019999999999982e+03
2.800000000000000058e-02 5.654069999999999929e-01 2.502369999999999983e+00 7.594809999999999661e+01 1.493574999999999818e+03
2.900000000000000147e-02 5.650494999999999823e-01 3.208755000000000024e+00 7.447939999999999827e+01 1.493125000000000000e+03
3.000000000000000236e-02 5.646484999999999976e-01 3.786155000000000381e+00 7.291084999999999638e+01 1.492655000000000200e+03
3.099999999999999978e-02 5.641789999999999861e-01 4.158825000000000216e+00 7.115049999999999386e+01 1.492150000000000091e+03
3.200000000000000067e-02 5.636235000000000550e-01 4.270150000000000112e+00 6.911730000000000018e+01 1.491585000000000036e+03
3.300000000000000155e-02 5.629790000000000072e-01 4.095579999999999998e+00 6.676384999999999081e+01 1.490944999999999936e+03
3.400000000000000244e-02 5.622555000000000192e-01 3.648489999999999789e+00 6.409229999999999450e+01 1.490235000000000127e+03
3.500000000000000333e-02 5.614784999999999915e-01 2.977894999999999737e+00 6.115914999999999679e+01 1.489454999999999927e+03
3.600000000000000422e-02 5.606830000000000425e-01 2.158574999999999910e+00 5.806834999999999525e+01 1.488630000000000109e+03
3.700000000000000511e-02 5.599054999999999449e-01 1.277599999999999625e+00 5.495589999999999975e+01 1.487799999999999955e+03
3.799999999999999906e-02 5.591834999999999445e-01 4.208250000000006708e-01 5.196979999999999933e+01 1.486990000000000009e+03
3.899999999999999994e-02 5.585480000000000445e-01 -3.377249999999998309e-01 4.925119999999999720e+01 1.486230000000000018e+03
4.000000000000000083e-02 5.580199999999999605e-01 -9.417399999999997995e-01 4.692005000000000337e+01 1.485554999999999836e+03
4.100000000000000172e-02 5.576145000000000129e-01 -1.354540000000000077e+00 4.506560000000000343e+01 1.484994999999999891e+03
4.200000000000000261e-02 5.573369999999999713e-01 -1.557174999999999754e+00 4.374334999999999951e+01 1.484565000000000055e+03
4.300000000000000350e-02 5.571869999999999878e-01 -1.544477499999999948e+00 4.297700000000000387e+01 1.484269999999999982e+03
4.400000000000000439e-02 5.571614999999999762e-01 -1.320095000000000018e+00 4.276415000000000077e+01 1.484125000000000000e+03
4.499999999999999833e-02 5.572529999999999983e-01 -8.918979999999999686e-01 4.308339999999999748e+01 1.484119999999999891e+03
4.599999999999999922e-02 5.574540000000000051e-01 -2.686500000000000554e-01 4.390219999999999345e+01 1.484250000000000000e+03
4.700000000000000011e-02 5.577570000000000583e-01 5.415250000000000341e-01 4.518245000000000289e+01 1.484509999999999991e+03
4.800000000000000100e-02 5.581540000000000390e-01 1.530869999999999731e+00 4.688429999999999609e+01 1.484894999999999982e+03
4.900000000000000189e-02 5.586375000000000091e-01 2.690480000000000427e+00 4.896705000000000041e+01 1.485389999999999873e+03
5.000000000000000278e-02 5.591990000000000016e-01 4.008135000000000225e+00 5.138870000000000005e+01 1.485980000000000018e+03
5.100000000000000366e-02 5.598269999999999635e-01 5.466680000000000206e+00 5.410405000000000086e+01 1.486664999999999964e+03
5.200000000000000455e-02 5.605105000000000226e-01 7.042964999999999698e+00 5.706380000000000052e+01 1.487420000000000073e+03
5.300000000000000544e-02 5.612354999999999983e-01 8.707974499999998841e+00 6.021359999999999957e+01 1.488235000000000127e+03
5.399999999999999939e-02 5.619874999999999732e-01 1.042849499999999985e+01 6.349504999999999910e+01 1.489099999999999909e+03
5.500000000000000028e-02 5.627520000000000300e-01 1.216884500000000102e+01 6.684754999999999825e+01 1.489994999999999891e+03
5.600000000000000117e-02 5.635140000000000704e-01 1.389334999999999987e+01 7.021135000000001014e+01 1.490909999999999854e+03
5.700000000000000205e-02 5.642614999999999714e-01 1.556888499999999986e+01 7.353040000000000020e+01 1.491819999999999936e+03
5.800000000000000294e-02 5.649839999999999307e-01 1.716693499999999872e+01 7.675575000000000614e+01 1.492720000000000027e+03
5.900000000000000383e-02 5.656734999999999403e-01 1.866474999999999795e+01 7.984790000000000987e+01 1.493594999999999800e+03
6.000000000000000472e-02 5.663255000000000372e-01 2.004639999999999844e+01 8.277864999999999895e+01 1.494440000000000055e+03
6.099999999999999867e-02 5.669374999999999831e-01 2.130250000000000199e+01 8.553149999999999409e+01 1.495240000000000009e+03
6.199999999999999956e-02 5.675099999999999589e-01 2.242999999999999972e+01 8.810155000000000314e+01 1.495994999999999891e+03
6.300000000000000044e-02 5.680454999999999810e-01 2.343110000000000070e+01 9.049424999999999386e+01 1.496715000000000146e+03
6.400000000000000133e-02 5.685485000000000122e-01 2.431259999999999977e+01 9.272374999999999545e+01 1.497389999999999873e+03
6.500000000000000222e-02 5.690235000000000154e-01 2.508444999999999681e+01 9.481085000000000207e+01 1.498025000000000091e+03
6.600000000000000311e-02 5.694774999999999698e-01 2.575894999999999868e+01 9.678104999999999336e+01 1.498630000000000109e+03
6.700000000000000400e-02 5.699164999999999370e-01 2.635020000000000095e+01 9.866249999999999432e+01 1.499204999999999927e+03
6.800000000000000488e-02 5.703464999999999785e-01 2.687265000000000015e+01 1.004836500000000115e+02 1.499764999999999873e+03
6.900000000000000577e-02 5.707735000000000447e-01 2.734090000000000131e+01 1.022730500000000120e+02 1.500309999999999945e+03
7.000000000000000666e-02 5.712034999999999751e-01 2.776854999999999762e+01 1.040550000000000068e+02 1.500849999999999909e+03
7.100000000000000755e-02 5.716395000000000781e-01 2.816775000000000162e+01 1.058515000000000015e+02 1.501389999999999873e+03
7.200000000000000844e-02 5.720849999999999547e-01 2.854824999999999946e+01 1.076765000000000043e+02 1.501934999999999945e+03
7.300000000000000933e-02 5.725409999999999666e-01 2.891694999999999993e+01 1.095405000000000086e+02 1.502485000000000127e+03
7.399999999999999634e-02 5.730070000000000441e-01 2.927745000000000175e+01 1.114440000000000026e+02 1.503045000000000073e+03
7.499999999999999722e-02 5.734805000000000597e-01 2.962975000000000136e+01 1.133824999999999932e+02 1.503610000000000127e+03
7.599999999999999811e-02 5.739585000000000381e-01 2.997055000000000291e+01 1.153429999999999893e+02 1.504184999999999945e+03
7.699999999999999900e-02 5.744354999999999878e-01 3.029350000000000165e+01 1.173070000000000022e+02 1.504759999999999991e+03
7.799999999999999989e-02 5.749055000000000692e-01 3.058975000000000222e+01 1.192495000000000118e+02 1.505325000000000045e+03
7.900000000000000078e-02 5.753615000000000812e-01 3.084884999999999877e+01 1.211434999999999889e+02 1.505885000000000218e+03
8.000000000000000167e-02 5.757970000000000033e-01 3.105944999999999823e+01 1.229594999999999914e+02 1.506424999999999955e+03
8.100000000000000255e-02 5.762039999999999385e-01 3.121014999999999873e+01 1.246674999999999898e+02 1.506934999999999945e+03
8.200000000000000344e-02 5.765780000000000349e-01 3.129035000000000011e+01 1.262400000000000091e+02 1.507414999999999964e+03
8.300000000000000433e-02 5.769124999999999392e-01 3.129090000000000060e+01 1.276509999999999962e+02 1.507855000000000018e+03
8.400000000000000522e-02 5.772030000000000216e-01 3.120439999999999969e+01 1.288810000000000002e+02 1.508240000000000009e+03
8.500000000000000611e-02 5.774470000000000436e-01 3.102595000000000169e+01 1.299134999999999991e+02 1.508579999999999927e+03
8.600000000000000699e-02 5.776429999999999065e-01 3.075325000000000131e+01 1.307395000000000209e+02 1.508860000000000127e+03
8.700000000000000788e-02 5.777900000000000258e-01 3.038635000000000019e+01 1.313555000000000064e+02 1.509085000000000036e+03
8.800000000000000877e-02 5.778894999999999449e-01 2.992835000000000178e+01 1.317634999999999934e+02 1.509244999999999891e+03
8.899999999999999578e-02 5.779429999999999845e-01 2.938434999999999775e+01 1.319714999999999918e+02 1.509349999999999909e+03
8.999999999999999667e-02 5.779544999999999266e-01 2.876214999999999833e+01 1.319925000000000068e+02 1.509409999999999854e+03
9.099999999999999756e-02 5.779279999999999973e-01 2.807124999999999915e+01 1.318444999999999823e+02 1.509414999999999964e+03
9.199999999999999845e-02 5.778685000000000072e-01 2.732285000000000252e+01 1.315484999999999900e+02 1.509369999999999891e+03
9.299999999999999933e-02 5.777820000000000178e-01 2.652925000000000111e+01 1.311274999999999977e+02 1.509295000000000073e+03
9.400000000000000022e-02 5.776740000000000208e-01 2.570360000000000156e+01 1.306080000000000041e+02 1.509184999999999945e+03
9.500000000000000111e-02 5.775500000000000078e-01 2.485934999999999917e+01 1.300159999999999911e+02 1.509045000000000073e+03
9.600000000000000200e-02 5.774159999999999293e-01 2.400959999999999894e+01 1.293764999999999930e+02 1.508889999999999873e+03
9.700000000000000289e-02 5.772779999999999578e-01 2.316675000000000040e+01 1.287160000000000082e+02 1.508720000000000027e+03
9.800000000000000377e-02 5.771404999999999452e-01 2.234224999999999994e+01 1.280554999999999950e+02 1.508545000000000073e+03
9.900000000000000466e-02 5.770079999999999654e-01 2.154585000000000150e+01 1.274165000000000134e+02 1.508375000000000000e+03
1.000000000000000056e-01 5.768839999999999524e-01 2.078560000000000230e+01 1.268144999999999953e+02 1.508204999999999927e+03
1.010000000000000064e-01 5.767709999999999226e-01 2.006715000000000160e+01 1.262625000000000028e+02 1.508050000000000182e+03
1.020000000000000073e-01 5.766704999999999748e-01 1.939430000000000121e+01 1.257694999999999936e+02 1.507900000000000091e+03
1.030000000000000082e-01 5.765829999999999567e-01 1.876824999999999832e+01 1.253395000000000152e+02 1.507769999999999982e+03
1.040000000000000091e-01 5.765085000000000903e-01 1.818809999999999860e+01 1.249729999999999990e+02 1.507650000000000091e+03
1.050000000000000100e-01 5.764465000000000838e-01 1.765090000000000003e+01 1.246655000000000086e+02 1.507550000000000182e+03
1.059999999999999970e-01 5.763940000000000730e-01 1.715194999999999936e+01 1.244110000000000014e+02 1.507465000000000146e+03
1.069999999999999979e-01 5.763490000000000002e-01 1.668495000000000061e+01 1.241984999999999957e+02 1.507389999999999873e+03
1.079999999999999988e-01 5.763085000000000013e-01 1.624255000000000138e+01 1.240169999999999959e+02 1.507324999999999818e+03
1.089999999999999997e-01 5.762705000000000188e-01 1.581660000000000110e+01 1.238520000000000039e+02 1.507264999999999873e+03
1.100000000000000006e-01 5.762304999999999788e-01 1.539855000000000018e+01 1.236894999999999953e+02 1.507210000000000036e+03
1.110000000000000014e-01 5.761855000000000171e-01 1.498019999999999996e+01 1.235160000000000053e+02 1.507150000000000091e+03
1.120000000000000023e-01 5.761330000000000062e-01 1.455354999999999954e+01 1.233164999999999907e+02 1.507085000000000036e+03
1.130000000000000032e-01 5.760705000000000409e-01 1.411144999999999960e+01 1.230805000000000007e+02 1.507019999999999982e+03
1.140000000000000041e-01 5.759954999999999936e-01 1.364789999999999992e+01 1.227969999999999970e+02 1.506934999999999945e+03
1.150000000000000050e-01 5.759080000000000865e-01 1.315833999999999904e+01 1.224594999999999914e+02 1.506844999999999800e+03
1.160000000000000059e-01 5.758054999999999701e-01 1.263982500000000009e+01 1.220620000000000118e+02 1.506735000000000127e+03
1.170000000000000068e-01 5.756885000000000474e-01 1.209112999999999971e+01 1.216034999999999968e+02 1.506615000000000009e+03
1.180000000000000077e-01 5.755589999999999318e-01 1.151284500000000044e+01 1.210859999999999985e+02 1.506470000000000027e+03
1.190000000000000085e-01 5.754169999999999563e-01 1.090733999999999959e+01 1.205130000000000052e+02 1.506315000000000055e+03
1.200000000000000094e-01 5.752654999999999852e-01 1.027880500000000019e+01 1.198940000000000055e+02 1.506154999999999973e+03
1.209999999999999964e-01 5.751064999999999650e-01 9.632789999999999964e+00 1.192385000000000019e+02 1.505974999999999909e+03
1.219999999999999973e-01 5.749440000000000106e-01 8.976330000000000808e+00 1.185584999999999951e+02 1.505784999999999854e+03
1.229999999999999982e-01 5.747809999999999864e-01 8.317520000000000024e+00 1.178704999999999927e+02 1.505599999999999909e+03
1.239999999999999991e-01 5.746210000000000484e-01 7.665110000000000312e+00 1.171885000000000048e+02 1.505409999999999854e+03
1.250000000000000000e-01 5.744679999999999787e-01 7.028175000000000949e+00 1.165285000000000082e+02 1.505224999999999909e+03
1.260000000000000009e-01 5.743264999999999620e-01 6.415860000000000340e+00 1.159080000000000013e+02 1.505045000000000073e+03
1.270000000000000018e-01 5.741979999999999862e-01 5.836965000000000181e+00 1.153414999999999964e+02 1.504880000000000109e+03
1.280000000000000027e-01 5.740875000000000838e-01 5.299495000000000289e+00 1.148425000000000011e+02 1.504735000000000127e+03
1.290000000000000036e-01 5.739969999999999795e-01 4.810435000000000016e+00 1.144240000000000066e+02 1.504605000000000018e+03
1.300000000000000044e-01 5.739275000000000349e-01 4.375469999999999970e+00 1.140935000000000059e+02 1.504494999999999891e+03
1.310000000000000053e-01 5.738809999999999745e-01 3.998755000000000059e+00 1.138594999999999970e+02 1.504414999999999964e+03
1.320000000000000062e-01 5.738579999999999792e-01 3.682789999999999786e+00 1.137245000000000061e+02 1.504355000000000018e+03
1.330000000000000071e-01 5.738575000000000204e-01 3.428364999999999885e+00 1.136880000000000024e+02 1.504329999999999927e+03
1.340000000000000080e-01 5.738794999999999868e-01 3.234599999999999920e+00 1.137489999999999952e+02 1.504320000000000164e+03
1.350000000000000089e-01 5.739214999999999733e-01 3.099000000000000199e+00 1.139014999999999986e+02 1.504345000000000027e+03
1.360000000000000098e-01 5.739825000000000621e-01 3.017640000000000100e+00 1.141359999999999957e+02 1.504389999999999873e+03
1.370000000000000107e-01 5.740594999999999448e-01 2.985344999999999693e+00 1.144435000000000002e+02 1.504460000000000036e+03
1.380000000000000115e-01 5.741484999999999506e-01 2.995964999999999989e+00 1.148114999999999952e+02 1.504545000000000073e+03
1.390000000000000124e-01 5.742475000000000218e-01 3.042640000000000011e+00 1.152264999999999873e+02 1.504644999999999982e+03
1.400000000000000133e-01 5.743534999999999613e-01 3.118055000000000021e+00 1.156759999999999877e+02 1.504755000000000109e+03
1.410000000000000142e-01 5.744629999999999459e-01 3.214729999999999865e+00 1.161444999999999936e+02 1.504869999999999891e+03
1.420000000000000151e-01 5.745724999999999305e-01 3.325269999999999726e+00 1.166204999999999927e+02 1.505000000000000000e+03
1.430000000000000160e-01 5.746799999999999686e-01 3.442585000000000228e+00 1.170900000000000034e+02 1.505119999999999891e+03
1.440000000000000169e-01 5.747824999999999740e-01 3.560114999999999696e+00 1.175425000000000040e+02 1.505244999999999891e+03
1.450000000000000178e-01 5.748780000000000001e-01 3.671980000000000022e+00 1.179679999999999893e+02 1.505365000000000009e+03
1.459999999999999909e-01 5.749655000000000182e-01 3.773085000000000022e+00 1.183584999999999923e+02 1.505474999999999909e+03
1.469999999999999918e-01 5.750425000000000120e-01 3.859255000000000102e+00 1.187079999999999984e+02 1.505575000000000045e+03
1.479999999999999927e-01 5.751100000000000101e-01 3.927239999999999842e+00 1.190115000000000123e+02 1.505664999999999964e+03
1.489999999999999936e-01 5.751659999999999551e-01 3.974755000000000038e+00 1.192674999999999983e+02 1.505744999999999891e+03
1.499999999999999944e-01 5.752109999999999168e-01 4.000474999999999781e+00 1.194739999999999895e+02 1.505809999999999945e+03
1.509999999999999953e-01 5.752450000000000063e-01 4.003954999999999487e+00 1.196320000000000050e+02 1.505865000000000009e+03
1.519999999999999962e-01 5.752690000000000303e-01 3.985594999999999999e+00 1.197445000000000022e+02 1.505904999999999973e+03
1.529999999999999971e-01 5.752844999999999764e-01 3.946545000000000414e+00 1.198139999999999930e+02 1.505934999999999945e+03
1.539999999999999980e-01 5.752904999999999269e-01 3.888589999999999769e+00 1.198449999999999989e+02 1.505954999999999927e+03
1.549999999999999989e-01 5.752899999999999681e-01 3.814024999999999999e+00 1.198425000000000011e+02 1.505965000000000146e+03
1.559999999999999998e-01 5.752844999999999764e-01 3.725550000000000139e+00 1.198114999999999952e+02 1.505964999999999918e+03
1.570000000000000007e-01 5.752734999999999932e-01 3.626129999999999853e+00 1.197580000000000098e+02 1.505960000000000036e+03
1.580000000000000016e-01 5.752589999999999648e-01 3.518829999999999902e+00 1.196869999999999976e+02 1.505945000000000164e+03
1.590000000000000024e-01 5.752424999999999899e-01 3.406730000000000480e+00 1.196039999999999992e+02 1.505930000000000064e+03
