# t [s], A [cm^2], U [cm/s], P [cPa], c [cm/s]
1.000000000000000021e-03 1.255370000000000097e-01 2.392634999999999901e-01 8.718840000000000146e+01 2.009590000000000146e+03
2.000000000000000042e-03 1.255124999999999991e-01 1.534742499999999898e+00 8.445484999999999332e+01 2.009264999999999873e+03
3.000000000000000062e-03 1.254385000000000083e-01 3.146005000000000162e+00 8.070874999999999488e+01 2.008289999999999964e+03
4.000000000000000083e-03 1.253309999999999980e-01 4.956065499999999346e+00 7.652895000000000891e+01 2.006914999999999964e+03
5.000000000000000104e-03 1.252115000000000034e-01 6.915789999999999438e+00 7.265540000000000020e+01 2.005400000000000091e+03
6.000000000000000125e-03 1.250939999999999830e-01 8.905120000000000147e+00 6.942985000000000184e+01 2.003920000000000073e+03
7.000000000000000146e-03 1.249824999999999964e-01 1.074402999999999864e+01 6.672624999999999318e+01 2.002539999999999964e+03
8.000000000000000167e-03 1.248779999999999890e-01 1.232296000000000014e+01 6.429795000000000016e+01 2.001275000000000091e+03
9.000000000000001055e-03 1.247840000000000060e-01 1.365256000000000114e+01 6.212024999999999864e+01 2.000144999999999982e+03
1.000000000000000194e-02 1.247024999999999939e-01 1.477084999999999937e+01 6.027904999999999802e+01 1.999175000000000182e+03
1.099999999999999936e-02 1.246334999999999943e-01 1.569449999999999967e+01 5.879155000000000086e+01 1.998369999999999891e+03
1.200000000000000025e-02 1.245770000000000072e-01 1.643394999999999939e+01 5.761899999999999977e+01 1.997715000000000146e+03
1.300000000000000114e-02 1.245314999999999894e-01 1.699450000000000216e+01 5.669610000000000127e+01 1.997194999999999936e+03
1.400000000000000203e-02 1.244945000000000079e-01 1.737440000000000140e+01 5.592334999999999923e+01 1.996779999999999973e+03
1.499999999999999944e-02 1.244629999999999903e-01 1.759275000000000233e+01 5.522344999999999970e+01 1.996434999999999945e+03
1.600000000000000033e-02 1.244374999999999926e-01 1.772240000000000038e+01 5.465184999999999604e+01 1.996159999999999854e+03
1.700000000000000122e-02 1.244210000000000038e-01 1.788374999999999915e+01 5.443339999999999890e+01 1.995989999999999782e+03
1.800000000000000211e-02 1.244190000000000018e-01 1.819369999999999976e+01 5.485895000000000010e+01 1.995985000000000127e+03
1.900000000000000300e-02 1.244370000000000059e-01 1.870754999999999768e+01 5.610909999999999798e+01 1.996195000000000164e+03
2.000000000000000042e-02 1.244750000000000023e-01 1.938920000000000243e+01 5.812389999999999901e+01 1.996634999999999991e+03
2.100000000000000130e-02 1.245275000000000132e-01 2.012529999999999930e+01 6.059125000000000227e+01 1.997264999999999873e+03
2.200000000000000219e-02 1.245874999999999899e-01 2.076955000000000240e+01 6.304885000000000161e+01 1.997980000000000018e+03
2.299999999999999961e-02 1.246440000000000048e-01 2.119460000000000122e+01 6.503970000000001050e+01 1.998664999999999964e+03
2.400000000000000050e-02 1.246884999999999938e-01 2.133064999999999856e+01 6.625355000000000416e+01 1.999214999999999918e+03
2.500000000000000139e-02 1.247165000000000079e-01 2.117960000000000065e+01 6.660375000000000512e+01 1.999579999999999927e+03
2.600000000000000228e-02 1.247275000000000050e-01 2.080369999999999919e+01 6.622209999999999752e+01 1.999735000000000127e+03
2.700000000000000316e-02 1.247240000000000015e-01 2.029619999999999891e+01 6.538389999999999702e+01 1.999715000000000146e+03
2.800000000000000058e-02 1.247119999999999895e-01 1.974670000000000059e+01 6.439869999999999095e+01 1.999585000000000036e+03
2.900000000000000147e-02 1.246970000000000023e-01 1.921440000000000126e+01 6.350799999999999557e+01 1.999414999999999964e+03
3.000000000000000236e-02 1.246820000000000012e-01 1.871569999999999823e+01 6.282425000000000637e+01 1.999244999999999891e+03
3.099999999999999978e-02 1.246690000000000020e-01 1.822885000000000133e+01 6.232139999999999702e+01 1.999085000000000036e+03
3.200000000000000067e-02 1.246575000000000044e-01 1.771004999999999896e+01 6.187310000000000088e+01 1.998940000000000055e+03
3.300000000000000155e-02 1.246435000000000043e-01 1.711530000000000129e+01 6.131804999999999950e+01 1.998780000000000200e+03
3.400000000000000244e-02 1.246249999999999997e-01 1.642079999999999984e+01 6.052994999999999948e+01 1.998569999999999936e+03
3.500000000000000333e-02 1.246009999999999895e-01 1.563575000000000159e+01 5.947135000000000105e+01 1.998289999999999964e+03
3.600000000000000422e-02 1.245715000000000017e-01 1.480549999999999855e+01 5.821724999999999994e+01 1.997950000000000045e+03
3.700000000000000511e-02 1.245399999999999979e-01 1.400234999999999985e+01 5.694190000000000396e+01 1.997575000000000045e+03
3.799999999999999906e-02 1.245095000000000091e-01 1.330874999999999986e+01 5.587480000000000047e+01 1.997210000000000036e+03
3.899999999999999994e-02 1.244859999999999994e-01 1.279710000000000036e+01 5.523930000000000007e+01 1.996924999999999955e+03
4.000000000000000083e-02 1.244734999999999869e-01 1.251234999999999964e+01 5.519344999999999857e+01 1.996769999999999982e+03
4.100000000000000172e-02 1.244755000000000028e-01 1.246164999999999878e+01 5.578875000000000028e+01 1.996769999999999982e+03
4.200000000000000261e-02 1.244915000000000049e-01 1.261345000000000027e+01 5.695704999999999529e+01 1.996945000000000164e+03
4.300000000000000350e-02 1.245204999999999923e-01 1.290470000000000006e+01 5.852580000000000382e+01 1.997275000000000091e+03
4.400000000000000439e-02 1.245574999999999877e-01 1.325365000000000038e+01 6.025369999999999493e+01 1.997700000000000045e+03
4.499999999999999833e-02 1.245969999999999855e-01 1.357404999999999973e+01 6.187749999999999773e+01 1.998164999999999964e+03
4.599999999999999922e-02 1.246335000000000082e-01 1.378849999999999909e+01 6.315635000000000332e+01 1.998595000000000027e+03
4.700000000000000011e-02 1.246619999999999950e-01 1.383830000000000027e+01 6.390699999999999648e+01 1.998934999999999945e+03
4.800000000000000100e-02 1.246774999999999967e-01 1.368785000000000096e+01 6.402299999999999613e+01 1.999134999999999991e+03
4.900000000000000189e-02 1.246790000000000120e-01 1.332509999999999906e+01 6.347809999999999775e+01 1.999164999999999964e+03
5.000000000000000278e-02 1.246645000000000114e-01 1.275815000000000055e+01 6.231555000000000177e+01 1.999000000000000000e+03
5.100000000000000366e-02 1.246349999999999958e-01 1.200964000000000098e+01 6.062815000000000509e+01 1.998664999999999964e+03
5.200000000000000455e-02 1.245930000000000093e-01 1.111075999999999908e+01 5.853589999999999804e+01 1.998174999999999955e+03
5.300000000000000544e-02 1.245409999999999850e-01 1.009610499999999966e+01 5.616514999999999702e+01 1.997559999999999945e+03
5.399999999999999939e-02 1.244804999999999939e-01 9.000334999999999752e+00 5.363405000000000200e+01 1.996844999999999800e+03
5.500000000000000028e-02 1.244149999999999978e-01 7.856419999999999959e+00 5.104479999999999507e+01 1.996070000000000164e+03
5.600000000000000117e-02 1.243469999999999992e-01 6.696030000000000371e+00 4.848319999999999652e+01 1.995264999999999873e+03
5.700000000000000205e-02 1.242779999999999996e-01 5.550135000000000041e+00 4.602230000000000132e+01 1.994454999999999927e+03
5.800000000000000294e-02 1.242115000000000025e-01 4.450499999999999901e+00 4.372854999999999848e+01 1.993654999999999973e+03
5.900000000000000383e-02 1.241484999999999950e-01 3.430493499999999862e+00 4.166760000000000019e+01 1.992904999999999973e+03
6.000000000000000472e-02 1.240909999999999930e-01 2.525260999999999978e+00 3.990809999999999746e+01 1.992214999999999918e+03
6.099999999999999867e-02 1.240414999999999990e-01 1.771010999999999891e+00 3.852255000000000251e+01 1.991625000000000000e+03
6.199999999999999956e-02 1.240024999999999877e-01 1.203467999999999982e+00 3.758480000000000132e+01 1.991144999999999982e+03
6.300000000000000044e-02 1.239750000000000019e-01 8.557873999999999759e-01 3.716570000000000107e+01 1.990804999999999836e+03
6.400000000000000133e-02 1.239610000000000017e-01 7.562520000000000353e-01 3.732685000000000031e+01 1.990625000000000000e+03
6.500000000000000222e-02 1.239629999999999899e-01 9.261459999999999138e-01 3.811485000000000412e+01 1.990625000000000000e+03
6.600000000000000311e-02 1.239815000000000084e-01 1.378120999999999929e+00 3.955610000000000070e+01 1.990829999999999927e+03
6.700000000000000400e-02 1.240179999999999894e-01 2.115194000000000241e+00 4.165354999999999563e+01 1.991235000000000127e+03
6.800000000000000488e-02 1.240715000000000012e-01 3.130553499999999989e+00 4.438620000000000232e+01 1.991855000000000018e+03
6.900000000000000577e-02 1.241430000000000033e-01 4.408065000000000566e+00 4.770974999999999966e+01 1.992674999999999955e+03
7.000000000000000666e-02 1.242294999999999927e-01 5.923334999999999795e+00 5.156005000000000393e+01 1.993695000000000164e+03
7.100000000000000755e-02 1.243314999999999976e-01 7.645315000000000083e+00 5.585760000000000502e+01 1.994884999999999991e+03
7.200000000000000844e-02 1.244455000000000006e-01 9.538050000000000139e+00 6.051259999999999906e+01 1.996230000000000018e+03
7.300000000000000933e-02 1.245700000000000002e-01 1.156265499999999946e+01 6.543044999999999334e+01 1.997699999999999818e+03
7.399999999999999634e-02 1.247029999999999944e-01 1.367937500000000028e+01 7.051744999999999663e+01 1.999275000000000091e+03
7.499999999999999722e-02 1.248404999999999931e-01 1.584950000000000081e+01 7.568559999999999377e+01 2.000925000000000182e+03
7.599999999999999811e-02 1.249824999999999964e-01 1.803685000000000116e+01 8.085679999999999268e+01 2.002619999999999891e+03
7.699999999999999900e-02 1.251249999999999862e-01 2.020969999999999800e+01 8.596659999999999968e+01 2.004339999999999918e+03
7.799999999999999989e-02 1.252675000000000038e-01 2.234145000000000181e+01 9.096610000000001151e+01 2.006054999999999836e+03
7.900000000000000078e-02 1.254085000000000061e-01 2.441154999999999831e+01 9.582355000000001155e+01 2.007755000000000109e+03
8.000000000000000167e-02 1.255465000000000053e-01 2.640554999999999808e+01 1.005238499999999959e+02 2.009434999999999945e+03
8.100000000000000255e-02 1.256809999999999872e-01 2.831479999999999819e+01 1.050650499999999994e+02 2.011070000000000164e+03
8.200000000000000344e-02 1.258124999999999938e-01 3.013584999999999781e+01 1.094599999999999937e+02 2.012674999999999955e+03
8.300000000000000433e-02 1.259399999999999964e-01 3.186949999999999861e+01 1.137275000000000063e+02 2.014240000000000009e+03
8.400000000000000522e-02 1.260649999999999826e-01 3.351930000000000121e+01 1.178925000000000125e+02 2.015769999999999982e+03
8.500000000000000611e-02 1.261879999999999946e-01 3.509064999999999657e+01 1.219805000000000064e+02 2.017275000000000091e+03
8.600000000000000699e-02 1.263084999999999902e-01 3.658944999999999936e+01 1.260150000000000006e+02 2.018765000000000100e+03
8.700000000000000788e-02 1.264279999999999848e-01 3.802114999999999867e+01 1.300130000000000052e+02 2.020230000000000018e+03
8.800000000000000877e-02 1.265465000000000062e-01 3.938985000000000269e+01 1.339855000000000018e+02 2.021690000000000055e+03
8.899999999999999578e-02 1.266634999999999844e-01 4.069800000000000040e+01 1.379354999999999905e+02 2.023140000000000100e+03
8.999999999999999667e-02 1.267800000000000038e-01 4.194599999999999795e+01 1.418580000000000041e+02 2.024575000000000045e+03
9.099999999999999756e-02 1.268954999999999944e-01 4.313204999999999956e+01 1.457400000000000091e+02 2.026000000000000000e+03
9.199999999999999845e-02 1.270094999999999974e-01 4.425239999999999441e+01 1.495629999999999882e+02 2.027414999999999964e+03
9.299999999999999933e-02 1.271219999999999850e-01 4.530174999999999841e+01 1.533029999999999973e+02 2.028804999999999836e+03
9.400000000000000022e-02 1.272310000000000108e-01 4.627304999999999779e+01 1.569329999999999927e+02 2.030170000000000073e+03
9.500000000000000111e-02 1.273380000000000067e-01 4.715865000000000151e+01 1.604239999999999782e+02 2.031494999999999891e+03
9.600000000000000200e-02 1.274409999999999987e-01 4.795015000000000072e+01 1.637464999999999975e+02 2.032775000000000091e+03
9.700000000000000289e-02 1.275384999999999991e-01 4.863915000000000077e+01 1.668720000000000141e+02 2.034000000000000000e+03
9.800000000000000377e-02 1.276315000000000088e-01 4.921734999999999616e+01 1.697724999999999795e+02 2.035154999999999973e+03
9.900000000000000466e-02 1.277179999999999982e-01 4.967735000000000412e+01 1.724259999999999877e+02 2.036240000000000009e+03
1.000000000000000056e-01 1.277969999999999939e-01 5.001279999999999859e+01 1.748104999999999905e+02 2.037240000000000009e+03
1.010000000000000064e-01 1.278694999999999971e-01 5.021890000000000498e+01 1.769110000000000014e+02 2.038150000000000091e+03
1.020000000000000073e-01 1.279339999999999922e-01 5.029269999999999641e+01 1.787169999999999845e+02 2.038965000000000146e+03
1.030000000000000082e-01 1.279905000000000070e-01 5.023340000000000316e+01 1.802235000000000014e+02 2.039680000000000064e+03
1.040000000000000091e-01 1.280384999999999995e-01 5.004269999999999641e+01 1.814325000000000045e+02 2.040289999999999964e+03
1.050000000000000100e-01 1.280785000000000118e-01 4.972469999999999857e+01 1.823499999999999943e+02 2.040805000000000064e+03
1.059999999999999970e-01 1.281100000000000017e-01 4.928605000000000302e+01 1.829919999999999902e+02 2.041210000000000036e+03
1.069999999999999979e-01 1.281344999999999845e-01 4.873574999999999591e+01 1.833760000000000048e+02 2.041525000000000091e+03
1.079999999999999988e-01 1.281509999999999871e-01 4.808504999999999541e+01 1.835285000000000082e+02 2.041750000000000000e+03
1.089999999999999997e-01 1.281614999999999838e-01 4.734689999999999799e+01 1.834764999999999873e+02 2.041889999999999873e+03
1.100000000000000006e-01 1.281660000000000021e-01 4.653549999999999898e+01 1.832529999999999859e+02 2.041954999999999927e+03
1.110000000000000014e-01 1.281645000000000145e-01 4.566584999999999894e+01 1.828899999999999864e+02 2.041954999999999927e+03
1.120000000000000023e-01 1.281599999999999961e-01 4.475315000000000509e+01 1.824200000000000159e+02 2.041899999999999864e+03
1.130000000000000032e-01 1.281515000000000015e-01 4.381220000000000425e+01 1.818754999999999882e+02 2.041800000000000182e+03
1.140000000000000041e-01 1.281404999999999905e-01 4.285694999999999766e+01 1.812844999999999800e+02 2.041670000000000073e+03
1.150000000000000050e-01 1.281275000000000053e-01 4.190005000000000024e+01 1.806730000000000018e+02 2.041510000000000218e+03
1.160000000000000059e-01 1.281140000000000057e-01 4.095250000000000057e+01 1.800625000000000000e+02 2.041339999999999918e+03
1.170000000000000068e-01 1.280989999999999907e-01 4.002315000000000111e+01 1.794685000000000059e+02 2.041159999999999854e+03
1.180000000000000077e-01 1.280844999999999900e-01 3.911899999999999977e+01 1.789019999999999868e+02 2.040980000000000018e+03
1.190000000000000085e-01 1.280705000000000038e-01 3.824445000000000050e+01 1.783689999999999998e+02 2.040800000000000182e+03
1.200000000000000094e-01 1.280565000000000175e-01 3.740194999999999936e+01 1.778704999999999927e+02 2.040625000000000000e+03
1.209999999999999964e-01 1.280429999999999902e-01 3.659150000000000347e+01 1.774030000000000200e+02 2.040454999999999927e+03
1.219999999999999973e-01 1.280304999999999915e-01 3.581130000000000280e+01 1.769574999999999818e+02 2.040295000000000073e+03
1.229999999999999982e-01 1.280179999999999929e-01 3.505785000000000196e+01 1.765235000000000127e+02 2.040135000000000218e+03
1.239999999999999991e-01 1.280054999999999943e-01 3.432605000000000217e+01 1.760865000000000009e+02 2.039975000000000136e+03
1.250000000000000000e-01 1.279925000000000090e-01 3.360999999999999943e+01 1.756304999999999836e+02 2.039815000000000055e+03
1.260000000000000009e-01 1.279790000000000094e-01 3.290279999999999916e+01 1.751394999999999982e+02 2.039644999999999982e+03
1.270000000000000018e-01 1.279645000000000088e-01 3.219749999999999801e+01 1.745970000000000084e+02 2.039460000000000036e+03
1.280000000000000027e-01 1.279484999999999928e-01 3.148734999999999928e+01 1.739875000000000114e+02 2.039259999999999764e+03
1.290000000000000036e-01 1.279310000000000169e-01 3.076604999999999990e+01 1.732975000000000136e+02 2.039039999999999964e+03
1.300000000000000044e-01 1.279109999999999969e-01 3.002799999999999869e+01 1.725165000000000077e+02 2.038789999999999964e+03
1.310000000000000053e-01 1.278884999999999883e-01 2.926905000000000001e+01 1.716370000000000005e+02 2.038514999999999873e+03
1.320000000000000062e-01 1.278639999999999777e-01 2.848620000000000019e+01 1.706555000000000177e+02 2.038204999999999927e+03
1.330000000000000071e-01 1.278360000000000052e-01 2.767815000000000225e+01 1.695715000000000146e+02 2.037865000000000009e+03
1.340000000000000080e-01 1.278060000000000029e-01 2.684515000000000029e+01 1.683894999999999982e+02 2.037485000000000127e+03
1.350000000000000089e-01 1.277729999999999977e-01 2.598924999999999841e+01 1.671170000000000186e+02 2.037074999999999818e+03
1.360000000000000098e-01 1.277375000000000038e-01 2.511404999999999887e+01 1.657665000000000077e+02 2.036639999999999873e+03
1.370000000000000107e-01 1.277000000000000079e-01 2.422449999999999903e+01 1.643525000000000205e+02 2.036175000000000182e+03
1.380000000000000115e-01 1.276609999999999967e-01 2.332710000000000150e+01 1.628930000000000007e+02 2.035690000000000055e+03
1.390000000000000124e-01 1.276200000000000112e-01 2.242895000000000039e+01 1.614070000000000107e+02 2.035184999999999945e+03
1.400000000000000133e-01 1.275785000000000113e-01 2.153815000000000168e+01 1.599164999999999850e+02 2.034675000000000182e+03
1.410000000000000142e-01 1.275370000000000115e-01 2.066295000000000215e+01 1.584410000000000025e+02 2.034160000000000082e+03
1.420000000000000151e-01 1.274954999999999838e-01 1.981159999999999854e+01 1.570010000000000048e+02 2.033644999999999982e+03
1.430000000000000160e-01 1.274550000000000127e-01 1.899200000000000088e+01 1.556159999999999854e+02 2.033139999999999873e+03
1.440000000000000169e-01 1.274160000000000015e-01 1.821134999999999948e+01 1.543020000000000209e+02 2.032650000000000091e+03
1.450000000000000178e-01 1.273785000000000056e-01 1.747585000000000122e+01 1.530729999999999791e+02 2.032184999999999945e+03
1.459999999999999909e-01 1.273429999999999840e-01 1.679050000000000153e+01 1.519404999999999859e+02 2.031744999999999891e+03
1.469999999999999918e-01 1.273100000000000065e-01 1.615915000000000035e+01 1.509110000000000014e+02 2.031335000000000036e+03
1.479999999999999927e-01 1.272794999999999899e-01 1.558405000000000129e+01 1.499889999999999759e+02 2.030950000000000045e+03
1.489999999999999936e-01 1.272519999999999762e-01 1.506625000000000014e+01 1.491754999999999995e+02 2.030610000000000127e+03
1.499999999999999944e-01 1.272274999999999934e-01 1.460534999999999961e+01 1.484680000000000177e+02 2.030295000000000073e+03
1.509999999999999953e-01 1.272054999999999991e-01 1.419985000000000142e+01 1.478605000000000018e+02 2.030025000000000091e+03
1.519999999999999962e-01 1.271864999999999801e-01 1.384710000000000107e+01 1.473474999999999966e+02 2.029779999999999973e+03
1.529999999999999971e-01 1.271694999999999909e-01 1.354360000000000142e+01 1.469194999999999993e+02 2.029570000000000164e+03
1.539999999999999980e-01 1.271555000000000046e-01 1.328519999999999968e+01 1.465670000000000073e+02 2.029384999999999991e+03
1.549999999999999989e-01 1.271434999999999926e-01 1.306725000000000136e+01 1.462795000000000130e+02 2.029235000000000127e+03
1.559999999999999998e-01 1.271329999999999960e-01 1.288470000000000049e+01 1.460459999999999923e+02 2.029099999999999909e+03
1.570000000000000007e-01 1.271245000000000014e-01 1.273240000000000016e+01 1.458559999999999945e+02 2.028985000000000127e+03
1.580000000000000016e-01 1.271170000000000078e-01 1.260515000000000008e+01 1.456995000000000005e+02 2.028890000000000100e+03
1.590000000000000024e-01 1.271110000000000018e-01 1.249804999999999922e+01 1.455660000000000025e+02 2.028809999999999945e+03
