# t [s], A [cm^2], U [cm/s], P [cPa], c [cm/s]
1.000000000000000021e-03 2.038695000000000090e-01 2.229855000000000032e-01 1.007659500000000037e+02 2.020545000000000073e+03
2.000000000000000042e-03 2.038290000000000102e-01 1.647858999999999963e+00 9.782245000000000346e+01 2.020235000000000127e+03
3.000000000000000062e-03 2.036974999999999758e-01 3.442562000000000122e+00 9.375079999999999814e+01 2.019280000000000200e+03
4.000000000000000083e-03 2.035069999999999935e-01 5.461827000000000432e+00 8.910939999999999372e+01 2.017914999999999964e+03
5.000000000000000104e-03 2.032909999999999995e-01 7.646144999999999747e+00 8.470400000000000773e+01 2.016384999999999991e+03
6.000000000000000125e-03 2.030759999999999788e-01 9.870324999999999349e+00 8.095494999999999663e+01 2.014880000000000109e+03
7.000000000000000146e-03 2.028719999999999968e-01 1.194801000000000002e+01 7.780405000000000371e+01 2.013470000000000027e+03
8.000000000000000167e-03 2.026810000000000000e-01 1.375040000000000084e+01 7.502019999999998845e+01 2.012179999999999836e+03
9.000000000000001055e-03 2.025089999999999946e-01 1.526859999999999928e+01 7.254800000000000182e+01 2.011025000000000091e+03
1.000000000000000194e-02 2.023594999999999977e-01 1.653744999999999976e+01 7.045959999999999468e+01 2.010039999999999964e+03
1.099999999999999936e-02 2.022344999999999837e-01 1.757869999999999777e+01 6.878255000000000052e+01 2.009224999999999909e+03
1.200000000000000025e-02 2.021324999999999927e-01 1.840590000000000259e+01 6.748345000000000482e+01 2.008565000000000055e+03
1.300000000000000114e-02 2.020520000000000094e-01 1.902714999999999890e+01 6.649405000000000143e+01 2.008055000000000064e+03
1.400000000000000203e-02 2.019874999999999865e-01 1.944449999999999790e+01 6.571229999999999905e+01 2.007654999999999973e+03
1.499999999999999944e-02 2.019354999999999900e-01 1.967699999999999960e+01 6.505134999999999934e+01 2.007339999999999918e+03
1.600000000000000033e-02 2.018944999999999768e-01 1.979079999999999728e+01 6.453700000000000614e+01 2.007099999999999909e+03
1.700000000000000122e-02 2.018699999999999939e-01 1.989739999999999753e+01 6.435040000000000759e+01 2.006960000000000036e+03
1.800000000000000211e-02 2.018674999999999775e-01 2.011260000000000048e+01 6.475169999999999959e+01 2.006960000000000036e+03
1.900000000000000300e-02 2.018955000000000055e-01 2.050404999999999944e+01 6.592919999999999447e+01 2.007150000000000091e+03
2.000000000000000042e-02 2.019549999999999956e-01 2.106015000000000015e+01 6.787404999999999688e+01 2.007550000000000182e+03
2.100000000000000130e-02 2.020409999999999984e-01 2.169610000000000127e+01 7.035070000000000334e+01 2.008115000000000009e+03
2.200000000000000219e-02 2.021419999999999884e-01 2.228779999999999717e+01 7.296725000000000705e+01 2.008784999999999854e+03
2.299999999999999961e-02 2.022430000000000061e-01 2.271679999999999922e+01 7.530279999999999063e+01 2.009474999999999909e+03
2.400000000000000050e-02 2.023320000000000118e-01 2.290605000000000047e+01 7.703354999999999109e+01 2.010074999999999818e+03
2.500000000000000139e-02 2.023985000000000090e-01 2.283715000000000117e+01 7.801295000000000357e+01 2.010539999999999964e+03
2.600000000000000228e-02 2.024400000000000088e-01 2.254619999999999891e+01 7.828579999999999472e+01 2.010845000000000027e+03
2.700000000000000316e-02 2.024595000000000145e-01 2.210269999999999868e+01 7.804050000000000864e+01 2.010994999999999891e+03
2.800000000000000058e-02 2.024624999999999897e-01 2.158160000000000167e+01 7.752504999999999313e+01 2.011029999999999973e+03
2.900000000000000147e-02 2.024569999999999981e-01 2.103920000000000101e+01 7.695929999999999893e+01 2.011000000000000000e+03
3.000000000000000236e-02 2.024475000000000025e-01 2.049940000000000140e+01 7.647339999999999804e+01 2.010940000000000055e+03
3.099999999999999978e-02 2.024374999999999925e-01 1.995389999999999731e+01 7.608684999999999832e+01 2.010875000000000000e+03
3.200000000000000067e-02 2.024259999999999948e-01 1.937299999999999756e+01 7.572785000000000366e+01 2.010799999999999955e+03
3.300000000000000155e-02 2.024110000000000076e-01 1.872259999999999991e+01 7.528045000000000186e+01 2.010704999999999927e+03
3.400000000000000244e-02 2.023889999999999856e-01 1.798134999999999906e+01 7.464099999999999113e+01 2.010570000000000164e+03
3.500000000000000333e-02 2.023584999999999967e-01 1.715330000000000155e+01 7.376699999999999591e+01 2.010369999999999891e+03
3.600000000000000422e-02 2.023205000000000142e-01 1.627219999999999800e+01 7.270355000000000700e+01 2.010119999999999891e+03
3.700000000000000511e-02 2.022769999999999846e-01 1.539685000000000059e+01 7.158195000000000618e+01 2.009840000000000146e+03
3.799999999999999906e-02 2.022344999999999837e-01 1.459890000000000043e+01 7.059014999999999418e+01 2.009554999999999836e+03
3.899999999999999994e-02 2.021990000000000176e-01 1.394600000000000151e+01 6.992634999999999934e+01 2.009319999999999936e+03
4.000000000000000083e-02 2.021789999999999976e-01 1.348704999999999998e+01 6.974880000000000280e+01 2.009179999999999836e+03
4.100000000000000172e-02 2.021779999999999966e-01 1.324115000000000109e+01 7.013595000000000823e+01 2.009159999999999854e+03
4.200000000000000261e-02 2.021979999999999889e-01 1.319399999999999906e+01 7.106745000000000800e+01 2.009275000000000091e+03
4.300000000000000350e-02 2.022370000000000001e-01 1.330209999999999937e+01 7.242785000000000650e+01 2.009525000000000091e+03
4.400000000000000439e-02 2.022915000000000130e-01 1.350094999999999956e+01 7.403050000000000352e+01 2.009869999999999891e+03
4.499999999999999833e-02 2.023524999999999907e-01 1.371740000000000137e+01 7.565295000000000414e+01 2.010269999999999982e+03
4.599999999999999922e-02 2.024134999999999962e-01 1.388049999999999962e+01 7.707515000000000782e+01 2.010670000000000073e+03
4.700000000000000011e-02 2.024660000000000071e-01 1.393114999999999881e+01 7.811199999999999477e+01 2.011019999999999982e+03
4.800000000000000100e-02 2.025029999999999886e-01 1.382740000000000080e+01 7.863530000000000086e+01 2.011275000000000091e+03
4.900000000000000189e-02 2.025210000000000066e-01 1.354664999999999964e+01 7.858235000000000525e+01 2.011405000000000200e+03
5.000000000000000278e-02 2.025175000000000169e-01 1.308399999999999963e+01 7.795249999999998636e+01 2.011384999999999991e+03
5.100000000000000366e-02 2.024910000000000043e-01 1.244835000000000136e+01 7.679439999999999600e+01 2.011220000000000027e+03
5.200000000000000455e-02 2.024440000000000128e-01 1.165821500000000022e+01 7.518905000000000882e+01 2.010914999999999964e+03
5.300000000000000544e-02 2.023790000000000033e-01 1.073723000000000027e+01 7.323230000000000928e+01 2.010494999999999891e+03
5.399999999999999939e-02 2.022984999999999922e-01 9.710774999999999935e+00 7.102049999999999841e+01 2.009960000000000036e+03
5.500000000000000028e-02 2.022065000000000112e-01 8.604244999999998811e+00 6.864199999999999591e+01 2.009360000000000127e+03
5.600000000000000117e-02 2.021060000000000079e-01 7.442630000000000301e+00 6.617355000000000587e+01 2.008695000000000164e+03
5.700000000000000205e-02 2.020004999999999995e-01 6.250980000000000203e+00 6.368139999999999645e+01 2.007994999999999891e+03
5.800000000000000294e-02 2.018925000000000025e-01 5.055220000000000269e+00 6.122540000000000049e+01 2.007280000000000200e+03
5.900000000000000383e-02 2.017855000000000065e-01 3.883175500000000113e+00 5.886379999999999768e+01 2.006570000000000164e+03
6.000000000000000472e-02 2.016809999999999992e-01 2.764912799999999837e+00 5.665659999999999741e+01 2.005875000000000000e+03
6.099999999999999867e-02 2.015830000000000122e-01 1.732520999999999978e+00 5.466810000000000258e+01 2.005220000000000027e+03
6.199999999999999956e-02 2.014944999999999931e-01 8.191000000000000503e-01 5.296600000000000108e+01 2.004619999999999891e+03
6.300000000000000044e-02 2.014179999999999859e-01 5.722000000000004860e-02 5.161839999999999407e+01 2.004105000000000018e+03
6.400000000000000133e-02 2.013570000000000082e-01 -5.230105000000000448e-01 5.068980000000000530e+01 2.003690000000000055e+03
6.500000000000000222e-02 2.013139999999999930e-01 -8.959691499999999920e-01 5.023550000000000182e+01 2.003389999999999873e+03
6.600000000000000311e-02 2.012909999999999977e-01 -1.042287500000000033e+00 5.029675000000000296e+01 2.003219999999999800e+03
6.700000000000000400e-02 2.012899999999999967e-01 -9.502160000000000606e-01 5.089685000000000059e+01 2.003199999999999818e+03
6.800000000000000488e-02 2.013125000000000053e-01 -6.164105000000000834e-01 5.203834999999999411e+01 2.003329999999999927e+03
6.900000000000000577e-02 2.013574999999999948e-01 -4.607000000000005535e-02 5.370310000000000628e+01 2.003610000000000127e+03
7.000000000000000666e-02 2.014259999999999939e-01 7.475249999999999950e-01 5.585294999999999987e+01 2.004039999999999964e+03
7.100000000000000755e-02 2.015144999999999853e-01 1.743964500000000140e+00 5.843285000000000196e+01 2.004619999999999891e+03
7.200000000000000844e-02 2.016224999999999823e-01 2.917078499999999686e+00 6.137454999999999927e+01 2.005315000000000055e+03
7.300000000000000933e-02 2.017459999999999809e-01 4.236550000000000260e+00 6.460169999999999391e+01 2.006125000000000000e+03
7.399999999999999634e-02 2.018834999999999935e-01 5.669654999999999667e+00 6.803419999999999845e+01 2.007025000000000091e+03
7.499999999999999722e-02 2.020299999999999874e-01 7.183024999999999771e+00 7.159350000000000591e+01 2.007994999999999891e+03
7.599999999999999811e-02 2.021839999999999749e-01 8.744369999999999976e+00 7.520680000000000121e+01 2.009009999999999991e+03
7.699999999999999900e-02 2.023415000000000075e-01 1.032371000000000016e+01 7.881065000000000964e+01 2.010055000000000064e+03
7.799999999999999989e-02 2.025000000000000133e-01 1.189480499999999985e+01 8.235365000000000180e+01 2.011115000000000009e+03
7.900000000000000078e-02 2.026574999999999904e-01 1.343585000000000029e+01 8.579805000000000348e+01 2.012164999999999964e+03
8.000000000000000167e-02 2.028119999999999923e-01 1.492989999999999995e+01 8.912024999999999864e+01 2.013200000000000045e+03
8.100000000000000255e-02 2.029624999999999901e-01 1.636469999999999914e+01 9.230995000000000061e+01 2.014215000000000146e+03
8.200000000000000344e-02 2.031080000000000108e-01 1.773290000000000077e+01 9.536830000000000496e+01 2.015204999999999927e+03
8.300000000000000433e-02 2.032499999999999862e-01 1.903065000000000140e+01 9.830575000000000330e+01 2.016159999999999854e+03
8.400000000000000522e-02 2.033869999999999845e-01 2.025769999999999982e+01 1.011381499999999960e+02 2.017089999999999918e+03
8.500000000000000611e-02 2.035204999999999931e-01 2.141555000000000319e+01 1.038855000000000075e+02 2.017994999999999891e+03
8.600000000000000699e-02 2.036505000000000121e-01 2.250724999999999909e+01 1.065674999999999955e+02 2.018880000000000109e+03
8.700000000000000788e-02 2.037775000000000003e-01 2.353640000000000043e+01 1.092005000000000052e+02 2.019744999999999891e+03
8.800000000000000877e-02 2.039030000000000009e-01 2.450625000000000142e+01 1.117990000000000066e+02 2.020599999999999909e+03
8.899999999999999578e-02 2.040264999999999995e-01 2.541940000000000310e+01 1.143700000000000045e+02 2.021440000000000055e+03
8.999999999999999667e-02 2.041490000000000249e-01 2.627745000000000175e+01 1.169170000000000016e+02 2.022275000000000091e+03
9.099999999999999756e-02 2.042700000000000071e-01 2.708070000000000022e+01 1.194350000000000023e+02 2.023105000000000018e+03
9.199999999999999845e-02 2.043895000000000017e-01 2.782824999999999704e+01 1.219175000000000040e+02 2.023920000000000073e+03
9.299999999999999933e-02 2.045075000000000087e-01 2.851810000000000045e+01 1.243504999999999967e+02 2.024724999999999909e+03
9.400000000000000022e-02 2.046229999999999993e-01 2.914705000000000013e+01 1.267194999999999965e+02 2.025515000000000100e+03
9.500000000000000111e-02 2.047350000000000003e-01 2.971105000000000018e+01 1.290049999999999955e+02 2.026284999999999854e+03
9.600000000000000200e-02 2.048435000000000117e-01 3.020555000000000234e+01 1.311879999999999882e+02 2.027029999999999973e+03
9.700000000000000289e-02 2.049475000000000047e-01 3.062529999999999930e+01 1.332485000000000070e+02 2.027740000000000009e+03
9.800000000000000377e-02 2.050460000000000060e-01 3.096520000000000294e+01 1.351664999999999850e+02 2.028420000000000073e+03
9.900000000000000466e-02 2.051379999999999870e-01 3.121985000000000099e+01 1.369230000000000018e+02 2.029055000000000064e+03
1.000000000000000056e-01 2.052225000000000021e-01 3.138445000000000107e+01 1.385000000000000000e+02 2.029634999999999991e+03
1.010000000000000064e-01 2.052995000000000236e-01 3.145465000000000089e+01 1.398834999999999980e+02 2.030170000000000073e+03
1.020000000000000073e-01 2.053675000000000084e-01 3.142709999999999937e+01 1.410595000000000141e+02 2.030644999999999982e+03
1.030000000000000082e-01 2.054265000000000119e-01 3.129959999999999809e+01 1.420190000000000055e+02 2.031055000000000064e+03
1.040000000000000091e-01 2.054759999999999920e-01 3.107119999999999749e+01 1.427579999999999814e+02 2.031400000000000091e+03
1.050000000000000100e-01 2.055160000000000042e-01 3.074295000000000044e+01 1.432740000000000009e+02 2.031679999999999836e+03
1.059999999999999970e-01 2.055449999999999777e-01 3.031745000000000090e+01 1.435720000000000027e+02 2.031894999999999982e+03
1.069999999999999979e-01 2.055649999999999977e-01 2.979935000000000045e+01 1.436589999999999918e+02 2.032039999999999964e+03
1.079999999999999988e-01 2.055750000000000077e-01 2.919490000000000052e+01 1.435480000000000018e+02 2.032119999999999891e+03
1.089999999999999997e-01 2.055764999999999953e-01 2.851234999999999786e+01 1.432560000000000002e+02 2.032134999999999991e+03
1.100000000000000006e-01 2.055695000000000161e-01 2.776119999999999877e+01 1.428044999999999902e+02 2.032095000000000027e+03
1.110000000000000014e-01 2.055560000000000165e-01 2.695234999999999914e+01 1.422155000000000200e+02 2.032009999999999991e+03
1.120000000000000023e-01 2.055345000000000089e-01 2.609714999999999918e+01 1.415144999999999982e+02 2.031875000000000000e+03
1.130000000000000032e-01 2.055085000000000106e-01 2.520759999999999934e+01 1.407249999999999943e+02 2.031700000000000045e+03
1.140000000000000041e-01 2.054779999999999940e-01 2.429565000000000197e+01 1.398739999999999952e+02 2.031494999999999891e+03
1.150000000000000050e-01 2.054440000000000155e-01 2.337269999999999825e+01 1.389839999999999804e+02 2.031269999999999982e+03
1.160000000000000059e-01 2.054074999999999929e-01 2.244944999999999879e+01 1.380759999999999934e+02 2.031025000000000091e+03
1.170000000000000068e-01 2.053705000000000114e-01 2.153549999999999898e+01 1.371680000000000064e+02 2.030769999999999982e+03
1.180000000000000077e-01 2.053320000000000145e-01 2.063899999999999935e+01 1.362749999999999773e+02 2.030509999999999991e+03
1.190000000000000085e-01 2.052940000000000043e-01 1.976664999999999850e+01 1.354085000000000036e+02 2.030250000000000000e+03
1.200000000000000094e-01 2.052559999999999940e-01 1.892340000000000089e+01 1.345745000000000005e+02 2.029994999999999891e+03
1.209999999999999964e-01 2.052194999999999991e-01 1.811254999999999882e+01 1.337764999999999986e+02 2.029740000000000009e+03
1.219999999999999973e-01 2.051835000000000186e-01 1.733559999999999945e+01 1.330140000000000100e+02 2.029494999999999891e+03
1.229999999999999982e-01 2.051485000000000114e-01 1.659240000000000137e+01 1.322824999999999989e+02 2.029255000000000109e+03
1.239999999999999991e-01 2.051155000000000062e-01 1.588135000000000119e+01 1.315749999999999886e+02 2.029019999999999982e+03
1.250000000000000000e-01 2.050825000000000009e-01 1.519945000000000057e+01 1.308824999999999932e+02 2.028795000000000073e+03
1.260000000000000009e-01 2.050500000000000100e-01 1.454269999999999996e+01 1.301924999999999955e+02 2.028570000000000164e+03
1.270000000000000018e-01 2.050170000000000048e-01 1.390610000000000035e+01 1.294929999999999950e+02 2.028345000000000027e+03
1.280000000000000027e-01 2.049839999999999995e-01 1.328444999999999965e+01 1.287704999999999984e+02 2.028114999999999782e+03
1.290000000000000036e-01 2.049495000000000067e-01 1.267194999999999894e+01 1.280115000000000123e+02 2.027880000000000109e+03
1.300000000000000044e-01 2.049134999999999984e-01 1.206315000000000026e+01 1.272044999999999959e+02 2.027630000000000109e+03
1.310000000000000053e-01 2.048750000000000016e-01 1.145294499999999971e+01 1.263395000000000010e+02 2.027369999999999891e+03
1.320000000000000062e-01 2.048345000000000027e-01 1.083697000000000088e+01 1.254060000000000059e+02 2.027090000000000146e+03
1.330000000000000071e-01 2.047910000000000008e-01 1.021172499999999950e+01 1.244000000000000057e+02 2.026795000000000073e+03
1.340000000000000080e-01 2.047440000000000093e-01 9.574934999999999974e+00 1.233190000000000026e+02 2.026480000000000018e+03
1.350000000000000089e-01 2.046945000000000014e-01 8.925720000000000098e+00 1.221630000000000109e+02 2.026134999999999991e+03
1.360000000000000098e-01 2.046410000000000173e-01 8.264549999999999841e+00 1.209380000000000024e+02 2.025775000000000091e+03
1.370000000000000107e-01 2.045850000000000168e-01 7.593420000000000059e+00 1.196504999999999939e+02 2.025394999999999982e+03
1.380000000000000115e-01 2.045259999999999856e-01 6.915665000000000617e+00 1.183120000000000118e+02 2.024994999999999891e+03
1.390000000000000124e-01 2.044650000000000079e-01 6.235990000000000144e+00 1.169370000000000118e+02 2.024585000000000036e+03
1.400000000000000133e-01 2.044024999999999870e-01 5.560175000000000090e+00 1.155430000000000064e+02 2.024159999999999854e+03
1.410000000000000142e-01 2.043389999999999929e-01 4.894860000000000433e+00 1.141469999999999914e+02 2.023724999999999909e+03
1.420000000000000151e-01 2.042754999999999987e-01 4.247259999999999813e+00 1.127685000000000031e+02 2.023295000000000073e+03
1.430000000000000160e-01 2.042125000000000190e-01 3.624824999999999964e+00 1.114269999999999925e+02 2.022865000000000009e+03
1.440000000000000169e-01 2.041509999999999991e-01 3.034920000000000062e+00 1.101409999999999911e+02 2.022450000000000045e+03
1.450000000000000178e-01 2.040914999999999813e-01 2.484497999999999873e+00 1.089269999999999925e+02 2.022045000000000073e+03
1.459999999999999909e-01 2.040354999999999808e-01 1.979827999999999921e+00 1.078004999999999995e+02 2.021664999999999964e+03
1.469999999999999918e-01 2.039825000000000110e-01 1.526226499999999930e+00 1.067740000000000009e+02 2.021305000000000064e+03
1.479999999999999927e-01 2.039345000000000185e-01 1.127856499999999818e+00 1.058549999999999898e+02 2.020969999999999800e+03
1.489999999999999936e-01 2.038905000000000023e-01 7.876180000000000403e-01 1.050504999999999995e+02 2.020670000000000073e+03
1.499999999999999944e-01 2.038514999999999910e-01 5.070685000000000331e-01 1.043629999999999995e+02 2.020400000000000091e+03
1.509999999999999953e-01 2.038174999999999848e-01 2.864105000000000123e-01 1.037914999999999992e+02 2.020170000000000073e+03
1.519999999999999962e-01 2.037889999999999979e-01 1.245324999999999904e-01 1.033319999999999936e+02 2.019964999999999918e+03
1.529999999999999971e-01 2.037649999999999739e-01 1.913650000000000073e-02 1.029779999999999944e+02 2.019799999999999955e+03
1.539999999999999980e-01 2.037454999999999961e-01 -3.315450000000000341e-02 1.027210000000000036e+02 2.019664999999999964e+03
1.549999999999999989e-01 2.037299999999999944e-01 -3.661749999999999727e-02 1.025510000000000019e+02 2.019555000000000064e+03
1.559999999999999998e-01 2.037194999999999978e-01 3.752000000000005331e-03 1.024560000000000031e+02 2.019474999999999909e+03
1.570000000000000007e-01 2.037114999999999898e-01 8.242800000000000127e-02 1.024250000000000114e+02 2.019414999999999964e+03
1.580000000000000016e-01 2.037069999999999992e-01 1.935510000000000286e-01 1.024449999999999932e+02 2.019380000000000109e+03
1.590000000000000024e-01 2.037045000000000106e-01 3.311104999999999743e-01 1.025035000000000025e+02 2.019360000000000127e+03
