# t [s], A [cm^2], U [cm/s], P [cPa], c [cm/s]
1.000000000000000021e-03 7.707820000000000782e-01 6.461849999999998151e-03 1.090914999999999964e+02 1.707530000000000200e+03
2.000000000000000042e-03 7.707699999999999552e-01 -1.292515000000000157e-03 1.090614999999999952e+02 1.707525000000000091e+03
3.000000000000000062e-03 7.708375000000000643e-01 1.007109499999999935e-01 1.091814999999999998e+02 1.707549999999999955e+03
4.000000000000000083e-03 7.708909999999999929e-01 1.943231599999999948e-01 1.093050000000000068e+02 1.707575000000000045e+03
5.000000000000000104e-03 7.708505000000001051e-01 1.565777499999999878e-01 1.092205000000000013e+02 1.707565000000000055e+03
6.000000000000000125e-03 7.707720000000000127e-01 5.694250000000000700e-02 1.089739999999999895e+02 1.707515000000000100e+03
7.000000000000000146e-03 7.707040000000000557e-01 -3.537950000000000816e-02 1.086689999999999969e+02 1.707454999999999927e+03
8.000000000000000167e-03 7.705899999999999972e-01 -2.133199999999999541e-01 1.082044999999999959e+02 1.707364999999999782e+03
9.000000000000001055e-03 7.704010000000000025e-01 -5.259850000000001469e-01 1.074855000000000018e+02 1.707220000000000027e+03
1.000000000000000194e-02 7.701274999999999649e-01 -9.814749999999999863e-01 1.064569999999999936e+02 1.707019999999999982e+03
1.099999999999999936e-02 7.697454999999999714e-01 -1.605729999999999880e+00 1.050365000000000038e+02 1.706740000000000009e+03
1.200000000000000025e-02 7.692559999999999398e-01 -2.377769999999999939e+00 1.031951999999999998e+02 1.706364999999999782e+03
1.300000000000000114e-02 7.687169999999999837e-01 -3.176709999999999923e+00 1.010516000000000076e+02 1.705920000000000073e+03
1.400000000000000203e-02 7.682145000000000223e-01 -3.830348999999999560e+00 9.884074999999999989e+01 1.705445000000000164e+03
1.499999999999999944e-02 7.678085000000000049e-01 -4.205596500000000404e+00 9.678839999999999577e+01 1.704980000000000018e+03
1.600000000000000033e-02 7.675075000000000092e-01 -4.259866000000000597e+00 9.501859999999999218e+01 1.704555000000000064e+03
1.700000000000000122e-02 7.672749999999999293e-01 -4.036449000000000176e+00 9.352365000000000350e+01 1.704170000000000073e+03
1.800000000000000211e-02 7.670555000000000012e-01 -3.627248499999999876e+00 9.220054999999999268e+01 1.703815000000000055e+03
1.900000000000000300e-02 7.667999999999999261e-01 -3.128587500000000077e+00 9.090930000000000177e+01 1.703470000000000027e+03
2.000000000000000042e-02 7.664830000000000254e-01 -2.606331500000000023e+00 8.953340000000000032e+01 1.703099999999999909e+03
2.100000000000000130e-02 7.661054999999999948e-01 -2.079740000000000144e+00 8.802020000000000266e+01 1.702710000000000036e+03
2.200000000000000219e-02 7.656909999999998995e-01 -1.527824999999999767e+00 8.638845000000000596e+01 1.702295000000000073e+03
2.299999999999999961e-02 7.652714999999999934e-01 -9.132450000000000845e-01 8.470390000000000441e+01 1.701869999999999891e+03
2.400000000000000050e-02 7.648699999999999388e-01 -2.110650000000000581e-01 8.303774999999998840e+01 1.701450000000000045e+03
2.500000000000000139e-02 7.644885000000000153e-01 5.703949999999999854e-01 8.142735000000000412e+01 1.701025000000000091e+03
2.600000000000000228e-02 7.641109999999999847e-01 1.383310000000000040e+00 7.985460000000000491e+01 1.700615000000000009e+03
2.700000000000000316e-02 7.637045000000000083e-01 2.148365000000000080e+00 7.824514999999999532e+01 1.700204999999999927e+03
2.800000000000000058e-02 7.632315000000000627e-01 2.772804999999999520e+00 7.648740000000000805e+01 1.699759999999999991e+03
2.900000000000000147e-02 7.626600000000000046e-01 3.172970000000000290e+00 7.446385000000000787e+01 1.699264999999999873e+03
3.000000000000000236e-02 7.619735000000000813e-01 3.295275000000000176e+00 7.208674999999999500e+01 1.698710000000000036e+03
3.099999999999999978e-02 7.611799999999999677e-01 3.129694999999999894e+00 6.932704999999999984e+01 1.698075000000000045e+03
3.200000000000000067e-02 7.603050000000000086e-01 2.711334999999999607e+00 6.622825000000000273e+01 1.697375000000000000e+03
3.300000000000000155e-02 7.593920000000000670e-01 2.110465000000000035e+00 6.290034999999999599e+01 1.696619999999999891e+03
3.400000000000000244e-02 7.584910000000000263e-01 1.415149999999999686e+00 5.949899999999999523e+01 1.695845000000000027e+03
3.500000000000000333e-02 7.576469999999999594e-01 7.128300000000002967e-01 5.619630000000000081e+01 1.695085000000000036e+03
3.600000000000000422e-02 7.568975000000000009e-01 7.669000000000014694e-02 5.315380000000000393e+01 1.694369999999999891e+03
3.700000000000000511e-02 7.562649999999999650e-01 -4.414450000000003094e-01 5.050254999999999939e+01 1.693724999999999909e+03
3.799999999999999906e-02 7.557640000000001024e-01 -8.117250000000000298e-01 4.833355000000000246e+01 1.693180000000000064e+03
3.899999999999999994e-02 7.553965000000000263e-01 -1.022029999999999994e+00 4.669709999999999894e+01 1.692744999999999891e+03
4.000000000000000083e-02 7.551594999999999835e-01 -1.071455000000000046e+00 4.560890000000000555e+01 1.692429999999999836e+03
4.100000000000000172e-02 7.550475000000000936e-01 -9.633589999999998543e-01 4.506090000000000373e+01 1.692235000000000127e+03
4.200000000000000261e-02 7.550555000000001016e-01 -7.001249999999999973e-01 4.503179999999999694e+01 1.692164999999999964e+03
4.300000000000000350e-02 7.551775000000000571e-01 -2.805549999999999988e-01 4.549634999999999962e+01 1.692210000000000036e+03
4.400000000000000439e-02 7.554115000000000135e-01 2.997199999999999864e-01 4.642969999999999686e+01 1.692365000000000009e+03
4.499999999999999833e-02 7.557534999999999670e-01 1.045514999999999750e+00 4.780809999999999604e+01 1.692625000000000000e+03
4.599999999999999922e-02 7.561984999999999957e-01 1.958299999999999930e+00 4.960604999999999620e+01 1.692980000000000018e+03
4.700000000000000011e-02 7.567405000000000381e-01 3.032745000000000246e+00 5.179234999999999900e+01 1.693440000000000055e+03
4.800000000000000100e-02 7.573654999999999138e-01 4.254610000000000447e+00 5.432645000000000834e+01 1.693980000000000018e+03
4.900000000000000189e-02 7.580605000000000260e-01 5.600505000000000067e+00 5.715644999999999953e+01 1.694595000000000027e+03
5.000000000000000278e-02 7.588075000000000792e-01 7.039326500000000486e+00 6.021994999999999720e+01 1.695265000000000100e+03
5.100000000000000366e-02 7.595875000000000821e-01 8.535111999999999810e+00 6.344699999999999562e+01 1.695985000000000127e+03
5.200000000000000455e-02 7.603815000000000435e-01 1.005019999999999847e+01 6.676454999999999984e+01 1.696740000000000009e+03
5.300000000000000544e-02 7.611719999999999597e-01 1.154880999999999958e+01 7.010160000000000480e+01 1.697505000000000109e+03
5.399999999999999939e-02 7.619454999999999423e-01 1.299971000000000032e+01 7.339445000000000618e+01 1.698275000000000091e+03
5.500000000000000028e-02 7.626900000000000901e-01 1.437796499999999966e+01 7.659064999999999657e+01 1.699029999999999973e+03
5.600000000000000117e-02 7.633995000000000086e-01 1.566593500000000105e+01 7.965164999999998940e+01 1.699764999999999873e+03
5.700000000000000205e-02 7.640715000000000146e-01 1.685325000000000273e+01 8.255384999999999707e+01 1.700470000000000027e+03
5.800000000000000294e-02 7.647049999999999681e-01 1.793599999999999994e+01 8.528780000000000427e+01 1.701139999999999873e+03
5.900000000000000383e-02 7.653030000000000665e-01 1.891539999999999822e+01 8.785654999999999859e+01 1.701780000000000200e+03
6.000000000000000472e-02 7.658705000000000096e-01 1.979684999999999917e+01 9.027344999999999686e+01 1.702384999999999991e+03
6.099999999999999867e-02 7.664115000000000233e-01 2.058854999999999791e+01 9.255865000000000009e+01 1.702965000000000146e+03
6.199999999999999956e-02 7.669340000000000046e-01 2.129990000000000094e+01 9.473654999999999404e+01 1.703514999999999873e+03
6.300000000000000044e-02 7.674425000000000274e-01 2.194084999999999752e+01 9.683279999999999177e+01 1.704050000000000182e+03
6.400000000000000133e-02 7.679420000000000135e-01 2.252064999999999984e+01 9.887160000000000082e+01 1.704565000000000055e+03
6.500000000000000222e-02 7.684374999999999956e-01 2.304729999999999990e+01 1.008731999999999971e+02 1.705065000000000055e+03
6.600000000000000311e-02 7.689304999999999612e-01 2.352640000000000242e+01 1.028509499999999974e+02 1.705559999999999945e+03
6.700000000000000400e-02 7.694214999999999804e-01 2.396134999999999948e+01 1.048130000000000024e+02 1.706055000000000064e+03
6.800000000000000488e-02 7.699089999999999545e-01 2.435269999999999868e+01 1.067590000000000003e+02 1.706545000000000073e+03
6.900000000000000577e-02 7.703910000000000480e-01 2.469850000000000279e+01 1.086814999999999998e+02 1.707025000000000091e+03
7.000000000000000666e-02 7.708625000000000060e-01 2.499474999999999980e+01 1.105660000000000025e+02 1.707494999999999891e+03
7.100000000000000755e-02 7.713185000000000180e-01 2.523620000000000019e+01 1.123940000000000055e+02 1.707954999999999927e+03
7.200000000000000844e-02 7.717519999999999936e-01 2.541644999999999754e+01 1.141424999999999983e+02 1.708394999999999982e+03
7.300000000000000933e-02 7.721594999999999986e-01 2.552929999999999922e+01 1.157880000000000109e+02 1.708820000000000164e+03
7.399999999999999634e-02 7.725340000000000540e-01 2.556899999999999906e+01 1.173075000000000045e+02 1.709210000000000036e+03
7.499999999999999722e-02 7.728709999999999747e-01 2.553070000000000306e+01 1.186795000000000044e+02 1.709565000000000055e+03
7.599999999999999811e-02 7.731664999999999788e-01 2.541110000000000113e+01 1.198855000000000075e+02 1.709889999999999873e+03
7.699999999999999900e-02 7.734175000000000910e-01 2.520819999999999794e+01 1.209114999999999895e+02 1.710164999999999964e+03
7.799999999999999989e-02 7.736224999999999907e-01 2.492174999999999940e+01 1.217469999999999999e+02 1.710405000000000200e+03
7.900000000000000078e-02 7.737804999999999822e-01 2.455315000000000225e+01 1.223875000000000028e+02 1.710590000000000146e+03
8.000000000000000167e-02 7.738914999999999544e-01 2.410564999999999714e+01 1.228329999999999984e+02 1.710734999999999900e+03
8.100000000000000255e-02 7.739570000000000061e-01 2.358404999999999774e+01 1.230869999999999891e+02 1.710835000000000036e+03
8.200000000000000344e-02 7.739800000000000013e-01 2.299490000000000123e+01 1.231595000000000084e+02 1.710889999999999873e+03
8.300000000000000433e-02 7.739629999999999566e-01 2.234629999999999939e+01 1.230625000000000000e+02 1.710900000000000091e+03
8.400000000000000522e-02 7.739104999999999457e-01 2.164770000000000039e+01 1.228119999999999976e+02 1.710875000000000000e+03
8.500000000000000611e-02 7.738270000000000426e-01 2.090975000000000250e+01 1.224290000000000020e+02 1.710809999999999945e+03
8.600000000000000699e-02 7.737184999999999757e-01 2.014399999999999835e+01 1.219344999999999999e+02 1.710719999999999800e+03
8.700000000000000788e-02 7.735905000000000697e-01 1.936230000000000118e+01 1.213520000000000039e+02 1.710605000000000018e+03
8.800000000000000877e-02 7.734479999999999134e-01 1.857655000000000101e+01 1.207049999999999983e+02 1.710465000000000146e+03
8.899999999999999578e-02 7.732974999999999710e-01 1.779804999999999993e+01 1.200174999999999983e+02 1.710320000000000164e+03
8.999999999999999667e-02 7.731434999999999835e-01 1.703699999999999903e+01 1.193114999999999952e+02 1.710159999999999854e+03
9.099999999999999756e-02 7.729894999999999960e-01 1.630194999999999794e+01 1.186059999999999945e+02 1.710000000000000000e+03
9.199999999999999845e-02 7.728399999999999714e-01 1.559969999999999857e+01 1.179174999999999898e+02 1.709835000000000036e+03
9.299999999999999933e-02 7.726975000000000371e-01 1.493475000000000108e+01 1.172574999999999932e+02 1.709674999999999955e+03
9.400000000000000022e-02 7.725619999999999710e-01 1.430914999999999893e+01 1.166345000000000027e+02 1.709519999999999982e+03
9.500000000000000111e-02 7.724349999999999827e-01 1.372285500000000091e+01 1.160515000000000043e+02 1.709375000000000000e+03
9.600000000000000200e-02 7.723150000000000848e-01 1.317360500000000023e+01 1.155074999999999932e+02 1.709235000000000127e+03
9.700000000000000289e-02 7.722010000000000263e-01 1.265731500000000054e+01 1.149975000000000023e+02 1.709110000000000127e+03
9.800000000000000377e-02 7.720905000000000129e-01 1.216836500000000143e+01 1.145144999999999982e+02 1.708980000000000018e+03
9.900000000000000466e-02 7.719810000000000283e-01 1.170014499999999913e+01 1.140469999999999970e+02 1.708865000000000009e+03
1.000000000000000056e-01 7.718689999999999163e-01 1.124534500000000037e+01 1.135840000000000032e+02 1.708744999999999891e+03
1.010000000000000064e-01 7.717525000000000635e-01 1.079647999999999897e+01 1.131129999999999995e+02 1.708625000000000000e+03
1.020000000000000073e-01 7.716285000000000505e-01 1.034633000000000003e+01 1.126209999999999951e+02 1.708500000000000000e+03
1.030000000000000082e-01 7.714940000000000131e-01 9.888144999999999740e+00 1.120970000000000084e+02 1.708369999999999891e+03
1.040000000000000091e-01 7.713479999999999226e-01 9.416349999999999554e+00 1.115320000000000107e+02 1.708235000000000127e+03
1.050000000000000100e-01 7.711885000000000545e-01 8.926470000000000127e+00 1.109189999999999969e+02 1.708089999999999918e+03
1.059999999999999970e-01 7.710160000000000347e-01 8.415745000000001141e+00 1.102545000000000073e+02 1.707930000000000064e+03
1.069999999999999979e-01 7.708300000000000152e-01 7.882985000000000575e+00 1.095364999999999895e+02 1.707759999999999991e+03
1.079999999999999988e-01 7.706319999999999837e-01 7.328879999999999839e+00 1.087690000000000055e+02 1.707579999999999927e+03
1.089999999999999997e-01 7.704239999999999977e-01 6.755935000000000024e+00 1.079574999999999960e+02 1.707389999999999873e+03
1.100000000000000006e-01 7.702090000000000325e-01 6.168345000000000411e+00 1.071119999999999948e+02 1.707190000000000055e+03
1.110000000000000014e-01 7.699899999999999523e-01 5.571810000000000151e+00 1.062434999999999974e+02 1.706990000000000009e+03
1.120000000000000023e-01 7.697715000000000529e-01 4.973364999999999370e+00 1.053689999999999998e+02 1.706779999999999973e+03
1.130000000000000032e-01 7.695570000000000466e-01 4.380964999999999776e+00 1.045035499999999900e+02 1.706575000000000045e+03
1.140000000000000041e-01 7.693520000000000358e-01 3.803141500000000175e+00 1.036646000000000072e+02 1.706375000000000000e+03
1.150000000000000050e-01 7.691594999999999960e-01 3.248578499999999813e+00 1.028704999999999927e+02 1.706180000000000064e+03
1.160000000000000059e-01 7.689844999999999597e-01 2.725699999999999790e+00 1.021381499999999960e+02 1.706005000000000109e+03
1.170000000000000068e-01 7.688300000000000134e-01 2.242259999999999920e+00 1.014828499999999991e+02 1.705840000000000146e+03
1.180000000000000077e-01 7.686990000000000212e-01 1.804990549999999860e+00 1.009177500000000123e+02 1.705694999999999936e+03
1.190000000000000085e-01 7.685934999999999295e-01 1.419269000000000114e+00 1.004535999999999945e+02 1.705565000000000055e+03
1.200000000000000094e-01 7.685155000000000181e-01 1.088890750000000018e+00 1.000974500000000091e+02 1.705470000000000027e+03
1.209999999999999964e-01 7.684649999999999537e-01 8.159410999999999747e-01 9.985299999999999443e+01 1.705394999999999982e+03
1.219999999999999973e-01 7.684414999999999996e-01 6.007325000000000026e-01 9.971899999999999409e+01 1.705345000000000027e+03
1.229999999999999982e-01 7.684429999999999872e-01 4.418469999999999898e-01 9.969280000000000541e+01 1.705320000000000164e+03
1.239999999999999991e-01 7.684690000000000687e-01 3.362910000000000066e-01 9.976675000000000182e+01 1.705320000000000164e+03
1.250000000000000000e-01 7.685144999999999893e-01 2.796990000000000309e-01 9.993009999999999593e+01 1.705340000000000146e+03
1.260000000000000009e-01 7.685779999999999834e-01 2.666020000000000056e-01 1.001718999999999937e+02 1.705380000000000109e+03
1.270000000000000018e-01 7.686554999999999360e-01 2.907289999999999597e-01 1.004774500000000046e+02 1.705440000000000055e+03
1.280000000000000027e-01 7.687429999999999541e-01 3.453089999999999771e-01 1.008323000000000036e+02 1.705509999999999991e+03
1.290000000000000036e-01 7.688375000000000625e-01 4.233925000000000050e-01 1.012210000000000036e+02 1.705590000000000146e+03
1.300000000000000044e-01 7.689360000000000639e-01 5.181069999999999842e-01 1.016299999999999955e+02 1.705679999999999836e+03
1.310000000000000053e-01 7.690339999999999954e-01 6.229090000000000460e-01 1.020450000000000017e+02 1.705769999999999982e+03
1.320000000000000062e-01 7.691304999999999392e-01 7.317670000000000563e-01 1.024534999999999911e+02 1.705865000000000009e+03
1.330000000000000071e-01 7.692215000000000025e-01 8.393224999999999714e-01 1.028460000000000036e+02 1.705950000000000045e+03
1.340000000000000080e-01 7.693060000000000453e-01 9.409909000000000745e-01 1.032139999999999986e+02 1.706034999999999854e+03
1.350000000000000089e-01 7.693830000000000391e-01 1.033028000000000057e+00 1.035499999999999972e+02 1.706115000000000009e+03
1.360000000000000098e-01 7.694514999999999549e-01 1.112546999999999953e+00 1.038499999999999943e+02 1.706190000000000055e+03
1.370000000000000107e-01 7.695104999999999862e-01 1.177540999999999949e+00 1.041115000000000066e+02 1.706255000000000109e+03
1.380000000000000115e-01 7.695605000000000917e-01 1.226834999999999898e+00 1.043329999999999984e+02 1.706315000000000055e+03
1.390000000000000124e-01 7.696015000000000494e-01 1.260021000000000058e+00 1.045150000000000006e+02 1.706365000000000009e+03
1.400000000000000133e-01 7.696334999999999704e-01 1.277420000000000000e+00 1.046599999999999966e+02 1.706404999999999973e+03
1.410000000000000142e-01 7.696589999999999820e-01 1.279939999999999856e+00 1.047704999999999984e+02 1.706434999999999945e+03
1.420000000000000151e-01 7.696769999999999445e-01 1.269004999999999939e+00 1.048505000000000109e+02 1.706465000000000146e+03
1.430000000000000160e-01 7.696899999999999853e-01 1.246410000000000018e+00 1.049039999999999964e+02 1.706480000000000018e+03
1.440000000000000169e-01 7.696979999999999933e-01 1.214204999999999979e+00 1.049360000000000070e+02 1.706494999999999891e+03
1.450000000000000178e-01 7.697030000000000260e-01 1.174539999999999917e+00 1.049505000000000052e+02 1.706505000000000109e+03
1.459999999999999909e-01 7.697049999999999725e-01 1.129561000000000037e+00 1.049519999999999982e+02 1.706509999999999991e+03
1.469999999999999918e-01 7.697060000000000013e-01 1.081280000000000019e+00 1.049430000000000121e+02 1.706509999999999991e+03
1.479999999999999927e-01 7.697050000000000836e-01 1.031484999999999985e+00 1.049279999999999973e+02 1.706514999999999873e+03
1.489999999999999936e-01 7.697039999999999438e-01 9.816354999999999942e-01 1.049089999999999918e+02 1.706509999999999991e+03
1.499999999999999944e-01 7.697024999999999562e-01 9.328535000000000021e-01 1.048870000000000005e+02 1.706505000000000109e+03
1.509999999999999953e-01 7.697000000000000508e-01 8.858624999999999972e-01 1.048619999999999948e+02 1.706500000000000000e+03
1.519999999999999962e-01 7.696970000000000756e-01 8.410290000000000266e-01 1.048345000000000056e+02 1.706500000000000000e+03
1.529999999999999971e-01 7.696920000000000428e-01 7.983669999999999378e-01 1.048019999999999925e+02 1.706490000000000009e+03
1.539999999999999980e-01 7.696864999999999402e-01 7.576365000000000460e-01 1.047639999999999958e+02 1.706485000000000127e+03
1.549999999999999989e-01 7.696780000000000843e-01 7.183840000000000225e-01 1.047175000000000011e+02 1.706474999999999909e+03
1.559999999999999998e-01 7.696659999999999613e-01 6.800500000000000433e-01 1.046614999999999895e+02 1.706460000000000036e+03
1.570000000000000007e-01 7.696515000000000439e-01 6.420550000000000423e-01 1.045914999999999964e+02 1.706445000000000164e+03
1.580000000000000016e-01 7.696324999999999417e-01 6.038810000000000011e-01 1.045080000000000098e+02 1.706430000000000064e+03
1.590000000000000024e-01 7.696095000000000574e-01 5.651424999999999921e-01 1.044069999999999965e+02 1.706404999999999973e+03
