# t [s], A [cm^2], U [cm/s], P [cPa], c [cm/s]
1.000000000000000021e-03 2.047375000000000167e-01 2.880849999999999800e-01 1.044660000000000082e+02 2.149654999999999745e+03
2.000000000000000042e-03 2.046844999999999914e-01 1.842078999999999800e+00 1.010377000000000010e+02 2.149269999999999982e+03
3.000000000000000062e-03 2.045365000000000100e-01 3.783842999999999623e+00 9.623465000000000202e+01 2.148250000000000000e+03
4.000000000000000083e-03 2.043325000000000002e-01 5.975223500000000243e+00 9.094710000000000605e+01 2.146864999999999782e+03
5.000000000000000104e-03 2.041129999999999889e-01 8.334344999999999004e+00 8.615854999999999109e+01 2.145390000000000327e+03
6.000000000000000125e-03 2.039009999999999989e-01 1.067057499999999948e+01 8.221439999999999770e+01 2.143980000000000018e+03
7.000000000000000146e-03 2.037025000000000086e-01 1.275173500000000004e+01 7.886410000000000764e+01 2.142684999999999945e+03
8.000000000000000167e-03 2.035214999999999941e-01 1.448866999999999905e+01 7.587170000000000414e+01 2.141529999999999745e+03
9.000000000000001055e-03 2.033634999999999748e-01 1.591945000000000121e+01 7.330025000000000546e+01 2.140529999999999745e+03
1.000000000000000194e-02 2.032319999999999960e-01 1.708194999999999908e+01 7.123309999999999320e+01 2.139710000000000036e+03
1.099999999999999936e-02 2.031255000000000144e-01 1.799514999999999887e+01 6.964714999999999634e+01 2.139054999999999836e+03
1.200000000000000025e-02 2.030434999999999879e-01 1.867309999999999803e+01 6.846535000000000082e+01 2.138559999999999945e+03
1.300000000000000114e-02 2.029790000000000205e-01 1.911850000000000094e+01 6.755870000000000175e+01 2.138175000000000182e+03
1.400000000000000203e-02 2.029279999999999973e-01 1.934915000000000163e+01 6.679779999999999518e+01 2.137880000000000109e+03
1.499999999999999944e-02 2.028880000000000128e-01 1.944684999999999775e+01 6.620855000000000246e+01 2.137659999999999854e+03
1.600000000000000033e-02 2.028659999999999908e-01 1.956105000000000160e+01 6.605644999999999811e+01 2.137545000000000073e+03
1.700000000000000122e-02 2.028719999999999968e-01 1.984410000000000096e+01 6.671914999999999907e+01 2.137590000000000146e+03
1.800000000000000211e-02 2.029139999999999833e-01 2.036864999999999881e+01 6.843205000000000382e+01 2.137855000000000018e+03
1.900000000000000300e-02 2.029914999999999914e-01 2.108715000000000117e+01 7.109690000000000509e+01 2.138349999999999909e+03
2.000000000000000042e-02 2.030949999999999978e-01 2.185314999999999941e+01 7.427330000000000609e+01 2.139000000000000000e+03
2.100000000000000130e-02 2.032069999999999987e-01 2.248554999999999993e+01 7.733889999999999532e+01 2.139710000000000036e+03
2.200000000000000219e-02 2.033079999999999887e-01 2.283879999999999910e+01 7.971864999999999668e+01 2.140369999999999891e+03
2.299999999999999961e-02 2.033834999999999948e-01 2.284955000000000069e+01 8.107415000000000305e+01 2.140869999999999891e+03
2.400000000000000050e-02 2.034279999999999977e-01 2.254615000000000080e+01 8.138405000000000200e+01 2.141175000000000182e+03
2.500000000000000139e-02 2.034420000000000117e-01 2.202224999999999966e+01 8.089820000000000277e+01 2.141289999999999964e+03
2.600000000000000228e-02 2.034360000000000057e-01 2.139150000000000063e+01 8.000175000000000125e+01 2.141264999999999873e+03
2.700000000000000316e-02 2.034190000000000165e-01 2.074309999999999832e+01 7.905395000000000039e+01 2.141164999999999964e+03
2.800000000000000058e-02 2.033989999999999965e-01 2.011514999999999986e+01 7.826750000000001251e+01 2.141039999999999964e+03
2.900000000000000147e-02 2.033800000000000052e-01 1.949289999999999878e+01 7.766505000000000791e+01 2.140925000000000182e+03
3.000000000000000236e-02 2.033610000000000140e-01 1.882760000000000034e+01 7.711500000000000909e+01 2.140800000000000182e+03
3.099999999999999978e-02 2.033375000000000044e-01 1.806615000000000038e+01 7.642085000000000150e+01 2.140654999999999745e+03
3.200000000000000067e-02 2.033050000000000135e-01 1.718094999999999928e+01 7.542560000000000286e+01 2.140454999999999927e+03
3.300000000000000155e-02 2.032614999999999839e-01 1.618880000000000052e+01 7.409440000000000737e+01 2.140190000000000055e+03
3.400000000000000244e-02 2.032090000000000007e-01 1.515450000000000053e+01 7.254975000000000307e+01 2.139860000000000127e+03
3.500000000000000333e-02 2.031530000000000002e-01 1.417675000000000018e+01 7.104810000000000514e+01 2.139515000000000327e+03
3.600000000000000422e-02 2.031045000000000211e-01 1.336280000000000001e+01 6.990850000000000364e+01 2.139204999999999927e+03
3.700000000000000511e-02 2.030724999999999891e-01 1.279895000000000138e+01 6.941835000000000377e+01 2.138994999999999891e+03
3.799999999999999906e-02 2.030649999999999955e-01 1.252810000000000024e+01 6.974824999999999875e+01 2.138930000000000291e+03
3.899999999999999994e-02 2.030849999999999878e-01 1.253910000000000124e+01 7.090234999999999843e+01 2.139045000000000073e+03
4.000000000000000083e-02 2.031314999999999926e-01 1.277029999999999887e+01 7.271545000000000414e+01 2.139314999999999600e+03
4.100000000000000172e-02 2.031965000000000021e-01 1.312444999999999951e+01 7.489189999999999259e+01 2.139715000000000146e+03
4.200000000000000261e-02 2.032710000000000072e-01 1.348900000000000077e+01 7.707150000000000034e+01 2.140175000000000182e+03
4.300000000000000350e-02 2.033425000000000094e-01 1.375665000000000049e+01 7.890100000000001046e+01 2.140625000000000000e+03
4.400000000000000439e-02 2.033995000000000108e-01 1.384135000000000026e+01 8.009510000000000218e+01 2.140994999999999891e+03
4.499999999999999833e-02 2.034345000000000181e-01 1.368765000000000143e+01 8.047374999999999545e+01 2.141220000000000255e+03
4.599999999999999922e-02 2.034414999999999973e-01 1.327214999999999989e+01 7.997395000000000209e+01 2.141275000000000091e+03
4.700000000000000011e-02 2.034179999999999877e-01 1.259975000000000023e+01 7.863660000000000139e+01 2.141145000000000437e+03
4.800000000000000100e-02 2.033659999999999912e-01 1.169572999999999929e+01 7.657795000000000130e+01 2.140824999999999818e+03
4.900000000000000189e-02 2.032889999999999975e-01 1.059706500000000062e+01 7.395519999999999072e+01 2.140349999999999909e+03
5.000000000000000278e-02 2.031914999999999971e-01 9.345204999999999984e+00 7.093449999999999989e+01 2.139734999999999673e+03
5.100000000000000366e-02 2.030784999999999951e-01 7.981440000000000090e+00 6.766925000000000523e+01 2.139029999999999745e+03
5.200000000000000455e-02 2.029555000000000109e-01 6.544769999999999754e+00 6.428929999999999723e+01 2.138255000000000109e+03
5.300000000000000544e-02 2.028264999999999929e-01 5.072580000000000311e+00 6.090125000000000455e+01 2.137440000000000055e+03
5.399999999999999939e-02 2.026959999999999873e-01 3.602084999999999759e+00 5.759505000000000052e+01 2.136610000000000127e+03
5.500000000000000028e-02 2.025675000000000114e-01 2.172204999999999941e+00 5.445380000000000109e+01 2.135800000000000182e+03
5.600000000000000117e-02 2.024449999999999861e-01 8.245800000000000907e-01 5.156180000000000518e+01 2.135015000000000327e+03
5.700000000000000205e-02 2.023314999999999975e-01 -3.966300000000000381e-01 4.900919999999999987e+01 2.134289999999999964e+03
5.800000000000000294e-02 2.022309999999999941e-01 -1.446277000000000035e+00 4.689119999999999777e+01 2.133644999999999982e+03
5.900000000000000383e-02 2.021479999999999944e-01 -2.280839999999999979e+00 4.530299999999999727e+01 2.133109999999999673e+03
6.000000000000000472e-02 2.020850000000000146e-01 -2.861639999999999961e+00 4.433174999999999955e+01 2.132695000000000164e+03
6.099999999999999867e-02 2.020464999999999900e-01 -3.158005000000000173e+00 4.404725000000000534e+01 2.132435000000000400e+03
6.199999999999999956e-02 2.020349999999999924e-01 -3.149964999999999904e+00 4.449374999999999858e+01 2.132345000000000255e+03
6.300000000000000044e-02 2.020504999999999940e-01 -2.829939999999999678e+00 4.568384999999999962e+01 2.132420000000000073e+03
6.400000000000000133e-02 2.020945000000000102e-01 -2.203368999999999911e+00 4.759664999999999679e+01 2.132680000000000291e+03
6.500000000000000222e-02 2.021660000000000124e-01 -1.288194499999999909e+00 5.017849999999999966e+01 2.133114999999999782e+03
6.600000000000000311e-02 2.022629999999999983e-01 -1.134550000000000836e-01 5.334730000000000416e+01 2.133710000000000036e+03
6.700000000000000400e-02 2.023825000000000207e-01 1.282885000000000053e+00 5.699915000000000020e+01 2.134444999999999709e+03
6.800000000000000488e-02 2.025210000000000066e-01 2.856496499999999994e+00 6.101609999999999445e+01 2.135310000000000400e+03
6.900000000000000577e-02 2.026740000000000208e-01 4.559500500000000400e+00 6.527460000000000662e+01 2.136264999999999873e+03
7.000000000000000666e-02 2.028365000000000029e-01 6.343304999999999971e+00 6.965370000000000061e+01 2.137289999999999964e+03
7.100000000000000755e-02 2.030049999999999910e-01 8.161394999999998845e+00 7.404249999999998977e+01 2.138355000000000018e+03
7.200000000000000844e-02 2.031755000000000089e-01 9.971560000000000201e+00 7.834645000000000437e+01 2.139435000000000400e+03
7.300000000000000933e-02 2.033435000000000104e-01 1.173792999999999864e+01 8.249209999999999354e+01 2.140510000000000218e+03
7.399999999999999634e-02 2.035069999999999935e-01 1.343234999999999957e+01 8.642945000000000277e+01 2.141550000000000182e+03
7.499999999999999722e-02 2.036640000000000117e-01 1.503485000000000049e+01 9.013290000000000646e+01 2.142559999999999945e+03
7.599999999999999811e-02 2.038135000000000085e-01 1.653385000000000105e+01 9.359969999999999857e+01 2.143519999999999982e+03
7.699999999999999900e-02 2.039555000000000118e-01 1.792490000000000094e+01 9.684550000000000125e+01 2.144440000000000055e+03
7.799999999999999989e-02 2.040899999999999936e-01 1.921014999999999873e+01 9.990184999999999604e+01 2.145309999999999945e+03
7.900000000000000078e-02 2.042180000000000106e-01 2.039594999999999914e+01 1.028077000000000112e+02 2.146140000000000327e+03
8.000000000000000167e-02 2.043409999999999949e-01 2.149184999999999945e+01 1.056050000000000040e+02 2.146940000000000055e+03
8.100000000000000255e-02 2.044600000000000029e-01 2.250835000000000008e+01 1.083335000000000008e+02 2.147710000000000036e+03
8.200000000000000344e-02 2.045764999999999945e-01 2.345579999999999998e+01 1.110264999999999986e+02 2.148469999999999800e+03
8.300000000000000433e-02 2.046919999999999851e-01 2.434319999999999951e+01 1.137090000000000032e+02 2.149220000000000255e+03
8.400000000000000522e-02 2.048059999999999881e-01 2.517725000000000080e+01 1.163935000000000031e+02 2.149965000000000146e+03
8.500000000000000611e-02 2.049205000000000054e-01 2.596204999999999785e+01 1.190829999999999984e+02 2.150699999999999818e+03
8.600000000000000699e-02 2.050350000000000228e-01 2.669899999999999807e+01 1.217690000000000055e+02 2.151444999999999709e+03
8.700000000000000788e-02 2.051479999999999970e-01 2.738670000000000115e+01 1.244344999999999999e+02 2.152179999999999836e+03
8.800000000000000877e-02 2.052599999999999980e-01 2.802134999999999820e+01 1.270564999999999998e+02 2.152904999999999745e+03
8.899999999999999578e-02 2.053699999999999970e-01 2.859705000000000297e+01 1.296050000000000182e+02 2.153619999999999891e+03
8.999999999999999667e-02 2.054765000000000064e-01 2.910634999999999906e+01 1.320484999999999900e+02 2.154315000000000055e+03
9.099999999999999756e-02 2.055784999999999973e-01 2.954054999999999964e+01 1.343530000000000086e+02 2.154979999999999563e+03
9.199999999999999845e-02 2.056749999999999967e-01 2.989039999999999964e+01 1.364850000000000136e+02 2.155610000000000127e+03
9.299999999999999933e-02 2.057645000000000168e-01 3.014659999999999940e+01 1.384120000000000061e+02 2.156195000000000164e+03
9.400000000000000022e-02 2.058460000000000012e-01 3.030039999999999978e+01 1.401059999999999945e+02 2.156729999999999563e+03
9.500000000000000111e-02 2.059174999999999756e-01 3.034414999999999907e+01 1.415414999999999850e+02 2.157204999999999927e+03
9.600000000000000200e-02 2.059795000000000098e-01 3.027179999999999893e+01 1.426999999999999886e+02 2.157605000000000018e+03
9.700000000000000289e-02 2.060299999999999909e-01 3.007959999999999923e+01 1.435680000000000121e+02 2.157945000000000164e+03
9.800000000000000377e-02 2.060694999999999888e-01 2.976644999999999897e+01 1.441404999999999745e+02 2.158210000000000036e+03
9.900000000000000466e-02 2.060970000000000024e-01 2.933419999999999916e+01 1.444214999999999804e+02 2.158400000000000091e+03
1.000000000000000056e-01 2.061129999999999907e-01 2.878784999999999883e+01 1.444219999999999970e+02 2.158510000000000218e+03
1.010000000000000064e-01 2.061180000000000234e-01 2.813524999999999920e+01 1.441599999999999966e+02 2.158550000000000182e+03
1.020000000000000073e-01 2.061124999999999763e-01 2.738734999999999786e+01 1.436625000000000227e+02 2.158525000000000091e+03
1.030000000000000082e-01 2.060974999999999890e-01 2.655730000000000146e+01 1.429619999999999891e+02 2.158440000000000055e+03
1.040000000000000091e-01 2.060750000000000082e-01 2.566009999999999991e+01 1.420935000000000059e+02 2.158295000000000073e+03
1.050000000000000100e-01 2.060450000000000059e-01 2.471199999999999974e+01 1.410960000000000036e+02 2.158109999999999673e+03
1.059999999999999970e-01 2.060095000000000121e-01 2.372970000000000113e+01 1.400079999999999814e+02 2.157885000000000218e+03
1.069999999999999979e-01 2.059705000000000008e-01 2.272979999999999734e+01 1.388675000000000068e+02 2.157640000000000327e+03
1.079999999999999988e-01 2.059285000000000143e-01 2.172785000000000011e+01 1.377085000000000150e+02 2.157364999999999782e+03
1.089999999999999997e-01 2.058849999999999847e-01 2.073809999999999931e+01 1.365620000000000118e+02 2.157090000000000146e+03
1.100000000000000006e-01 2.058420000000000250e-01 1.977284999999999826e+01 1.354515000000000100e+02 2.156809999999999945e+03
1.110000000000000014e-01 2.057994999999999963e-01 1.884205000000000041e+01 1.343965000000000032e+02 2.156539999999999964e+03
1.120000000000000023e-01 2.057585000000000108e-01 1.795289999999999964e+01 1.334085000000000036e+02 2.156269999999999982e+03
1.130000000000000032e-01 2.057194999999999996e-01 1.711015000000000086e+01 1.324915000000000020e+02 2.156014999999999873e+03
1.140000000000000041e-01 2.056830000000000047e-01 1.631555000000000177e+01 1.316465000000000032e+02 2.155775000000000091e+03
1.150000000000000050e-01 2.056485000000000118e-01 1.556814999999999927e+01 1.308634999999999877e+02 2.155555000000000291e+03
1.160000000000000059e-01 2.056159999999999932e-01 1.486459999999999937e+01 1.301310000000000002e+02 2.155335000000000036e+03
1.170000000000000068e-01 2.055855000000000044e-01 1.419950000000000045e+01 1.294309999999999832e+02 2.155135000000000218e+03
1.180000000000000077e-01 2.055549999999999877e-01 1.356544999999999845e+01 1.287425000000000068e+02 2.154935000000000400e+03
1.190000000000000085e-01 2.055254999999999999e-01 1.295429999999999993e+01 1.280430000000000064e+02 2.154739999999999782e+03
1.200000000000000094e-01 2.054949999999999832e-01 1.235670000000000002e+01 1.273100000000000023e+02 2.154539999999999964e+03
1.209999999999999964e-01 2.054635000000000211e-01 1.176365000000000016e+01 1.265204999999999984e+02 2.154335000000000036e+03
1.219999999999999973e-01 2.054290000000000005e-01 1.116633999999999993e+01 1.256544999999999845e+02 2.154109999999999673e+03
1.229999999999999982e-01 2.053924999999999779e-01 1.055711499999999958e+01 1.246949999999999932e+02 2.153875000000000000e+03
1.239999999999999991e-01 2.053515000000000201e-01 9.929770000000001318e+00 1.236304999999999978e+02 2.153605000000000018e+03
1.250000000000000000e-01 2.053070000000000173e-01 9.280060000000000642e+00 1.224540000000000077e+02 2.153319999999999709e+03
1.260000000000000009e-01 2.052579999999999960e-01 8.605985000000000440e+00 1.211655000000000086e+02 2.153005000000000109e+03
1.270000000000000018e-01 2.052049999999999985e-01 7.907925000000000537e+00 1.197704999999999984e+02 2.152664999999999964e+03
1.280000000000000027e-01 2.051479999999999970e-01 7.188684999999999548e+00 1.182810000000000059e+02 2.152300000000000182e+03
1.290000000000000036e-01 2.050874999999999782e-01 6.453459999999999752e+00 1.167145000000000010e+02 2.151909999999999854e+03
1.300000000000000044e-01 2.050239999999999840e-01 5.709554999999999936e+00 1.150949999999999989e+02 2.151500000000000000e+03
1.310000000000000053e-01 2.049584999999999879e-01 4.966039999999999566e+00 1.134475000000000051e+02 2.151074999999999818e+03
1.320000000000000062e-01 2.048925000000000052e-01 4.233264999999999390e+00 1.118040000000000020e+02 2.150654999999999745e+03
1.330000000000000071e-01 2.048254999999999937e-01 3.522324999999999928e+00 1.101924999999999955e+02 2.150225000000000364e+03
1.340000000000000080e-01 2.047609999999999986e-01 2.844495000000000218e+00 1.086444999999999936e+02 2.149810000000000400e+03
1.350000000000000089e-01 2.046985000000000054e-01 2.210650000000000226e+00 1.071875000000000000e+02 2.149400000000000091e+03
1.360000000000000098e-01 2.046394999999999742e-01 1.630737199999999998e+00 1.058464999999999918e+02 2.149015000000000327e+03
1.370000000000000107e-01 2.045845000000000025e-01 1.113299500000000108e+00 1.046419999999999959e+02 2.148659999999999854e+03
1.380000000000000115e-01 2.045345000000000080e-01 6.651249999999999662e-01 1.035895000000000010e+02 2.148340000000000146e+03
1.390000000000000124e-01 2.044909999999999783e-01 2.909780000000000144e-01 1.026984999999999957e+02 2.148055000000000291e+03
1.400000000000000133e-01 2.044535000000000102e-01 -6.516999999999995019e-03 1.019735000000000014e+02 2.147804999999999836e+03
1.410000000000000142e-01 2.044225000000000070e-01 -2.269240000000000146e-01 1.014134999999999991e+02 2.147600000000000364e+03
1.420000000000000151e-01 2.043975000000000097e-01 -3.718899999999999983e-01 1.010109999999999957e+02 2.147430000000000291e+03
1.430000000000000160e-01 2.043785000000000185e-01 -4.449836500000000084e-01 1.007560000000000002e+02 2.147304999999999836e+03
1.440000000000000169e-01 2.043655000000000055e-01 -4.514490000000000447e-01 1.006345000000000027e+02 2.147215000000000146e+03
1.450000000000000178e-01 2.043574999999999975e-01 -3.979184999999999528e-01 1.006290000000000049e+02 2.147159999999999854e+03
1.459999999999999909e-01 2.043540000000000079e-01 -2.920874999999999999e-01 1.007205000000000013e+02 2.147130000000000109e+03
1.469999999999999918e-01 2.043544999999999945e-01 -1.423854999999999982e-01 1.008894999999999982e+02 2.147130000000000109e+03
1.479999999999999927e-01 2.043584999999999985e-01 4.235894999999999938e-02 1.011154999999999973e+02 2.147149999999999636e+03
1.489999999999999936e-01 2.043645000000000045e-01 2.532360000000000166e-01 1.013799999999999955e+02 2.147184999999999945e+03
1.499999999999999944e-01 2.043725000000000125e-01 4.815474999999999617e-01 1.016645000000000039e+02 2.147235000000000127e+03
1.509999999999999953e-01 2.043814999999999937e-01 7.190739999999999910e-01 1.019519999999999982e+02 2.147289999999999964e+03
1.519999999999999962e-01 2.043915000000000037e-01 9.583000000000000407e-01 1.022289999999999992e+02 2.147349999999999909e+03
1.529999999999999971e-01 2.044004999999999850e-01 1.192609999999999948e+00 1.024834999999999923e+02 2.147404999999999745e+03
1.539999999999999980e-01 2.044095000000000217e-01 1.416430000000000078e+00 1.027059999999999889e+02 2.147465000000000146e+03
1.549999999999999989e-01 2.044170000000000154e-01 1.625305000000000000e+00 1.028900000000000006e+02 2.147514999999999873e+03
1.559999999999999998e-01 2.044234999999999802e-01 1.815984999999999960e+00 1.030324999999999989e+02 2.147555000000000291e+03
1.570000000000000007e-01 2.044285000000000130e-01 1.986394999999999911e+00 1.031315000000000026e+02 2.147585000000000036e+03
1.580000000000000016e-01 2.044320000000000026e-01 2.135580000000000034e+00 1.031885000000000048e+02 2.147609999999999673e+03
1.590000000000000024e-01 2.044345000000000190e-01 2.263630000000000031e+00 1.032065000000000055e+02 2.147630000000000109e+03
