# t [s], A [cm^2], U [cm/s], P [cPa], c [cm/s]
1.000000000000000021e-03 1.245845000000000147e-01 3.609689999999999843e-01 1.033875000000000028e+02 1.998539999999999964e+03
2.000000000000000042e-03 1.245560000000000000e-01 1.979860000000000175e+00 9.996145000000001346e+01 1.998164999999999964e+03
3.000000000000000062e-03 1.244685000000000097e-01 3.950656500000000015e+00 9.541210000000000946e+01 1.997069999999999936e+03
4.000000000000000083e-03 1.243434999999999957e-01 6.141562999999999661e+00 9.048765000000000214e+01 1.995534999999999854e+03
5.000000000000000104e-03 1.242045000000000093e-01 8.482809999999998851e+00 8.602824999999999989e+01 1.993839999999999918e+03
6.000000000000000125e-03 1.240669999999999967e-01 1.082117000000000040e+01 8.234234999999999616e+01 1.992174999999999955e+03
7.000000000000000146e-03 1.239360000000000045e-01 1.296378999999999948e+01 7.924054999999999893e+01 1.990610000000000127e+03
8.000000000000000167e-03 1.238134999999999930e-01 1.481397000000000119e+01 7.647464999999999691e+01 1.989180000000000064e+03
9.000000000000001055e-03 1.237034999999999940e-01 1.638984999999999914e+01 7.403434999999998922e+01 1.987910000000000082e+03
1.000000000000000194e-02 1.236075000000000090e-01 1.772664999999999935e+01 7.198990000000000578e+01 1.986809999999999945e+03
1.099999999999999936e-02 1.235259999999999969e-01 1.883905000000000030e+01 7.033379999999999654e+01 1.985894999999999982e+03
1.200000000000000025e-02 1.234584999999999988e-01 1.973685000000000045e+01 6.900879999999999370e+01 1.985144999999999982e+03
1.300000000000000114e-02 1.234030000000000127e-01 2.042589999999999861e+01 6.793489999999999895e+01 1.984530000000000200e+03
1.400000000000000203e-02 1.233575000000000088e-01 2.091259999999999764e+01 6.701519999999999300e+01 1.984034999999999854e+03
1.499999999999999944e-02 1.233189999999999842e-01 2.123199999999999932e+01 6.620420000000000016e+01 1.983625000000000000e+03
1.600000000000000033e-02 1.232880000000000087e-01 2.147120000000000317e+01 6.560054999999999836e+01 1.983305000000000064e+03
1.700000000000000122e-02 1.232690000000000036e-01 2.175155000000000172e+01 6.544740000000000180e+01 1.983110000000000127e+03
1.800000000000000211e-02 1.232655000000000001e-01 2.217654999999999887e+01 6.600835000000000719e+01 1.983090000000000146e+03
1.900000000000000300e-02 1.232835000000000042e-01 2.278164999999999907e+01 6.740279999999999916e+01 1.983295000000000073e+03
2.000000000000000042e-02 1.233199999999999852e-01 2.351709999999999923e+01 6.950844999999999629e+01 1.983724999999999909e+03
2.100000000000000130e-02 1.233719999999999956e-01 2.426839999999999975e+01 7.198059999999999548e+01 1.984315000000000055e+03
2.200000000000000219e-02 1.234299999999999981e-01 2.490055000000000263e+01 7.436599999999999966e+01 1.984985000000000127e+03
2.299999999999999961e-02 1.234849999999999975e-01 2.530434999999999945e+01 7.625029999999999575e+01 1.985630000000000109e+03
2.400000000000000050e-02 1.235284999999999855e-01 2.542694999999999794e+01 7.737805000000000177e+01 1.986155000000000200e+03
2.500000000000000139e-02 1.235575000000000007e-01 2.528009999999999735e+01 7.770640000000000214e+01 1.986505000000000109e+03
2.600000000000000228e-02 1.235709999999999864e-01 2.492530000000000001e+01 7.738304999999999723e+01 1.986684999999999945e+03
2.700000000000000316e-02 1.235720000000000013e-01 2.444599999999999795e+01 7.666745000000000232e+01 1.986715000000000146e+03
2.800000000000000058e-02 1.235650000000000082e-01 2.391774999999999807e+01 7.582929999999998927e+01 1.986650000000000091e+03
2.900000000000000147e-02 1.235539999999999972e-01 2.338680000000000092e+01 7.506354999999999222e+01 1.986530000000000200e+03
3.000000000000000236e-02 1.235424999999999995e-01 2.286314999999999742e+01 7.444644999999999868e+01 1.986400000000000091e+03
3.099999999999999978e-02 1.235315000000000024e-01 2.232719999999999771e+01 7.393965000000000032e+01 1.986275000000000091e+03
3.200000000000000067e-02 1.235195000000000043e-01 2.174555000000000149e+01 7.343240000000000123e+01 1.986144999999999982e+03
3.300000000000000155e-02 1.235060000000000047e-01 2.109004999999999797e+01 7.280169999999999675e+01 1.985990000000000009e+03
3.400000000000000244e-02 1.234869999999999857e-01 2.035320000000000107e+01 7.197034999999999627e+01 1.985789999999999964e+03
3.500000000000000333e-02 1.234645000000000048e-01 1.955675000000000097e+01 7.094570000000000221e+01 1.985529999999999973e+03
3.600000000000000422e-02 1.234379999999999922e-01 1.875050000000000239e+01 6.982845000000000368e+01 1.985235000000000127e+03
3.700000000000000511e-02 1.234109999999999929e-01 1.800215000000000032e+01 6.879110000000000014e+01 1.984925000000000182e+03
3.799999999999999906e-02 1.233864999999999962e-01 1.738149999999999906e+01 6.803409999999999513e+01 1.984655000000000200e+03
3.899999999999999994e-02 1.233700000000000074e-01 1.694399999999999906e+01 6.773195000000001187e+01 1.984460000000000036e+03
4.000000000000000083e-02 1.233644999999999881e-01 1.671734999999999971e+01 6.798689999999999145e+01 1.984384999999999991e+03
4.100000000000000172e-02 1.233720000000000094e-01 1.669514999999999816e+01 6.880150000000000432e+01 1.984454999999999927e+03
4.200000000000000261e-02 1.233914999999999873e-01 1.683845000000000169e+01 7.007574999999999932e+01 1.984664999999999964e+03
4.300000000000000350e-02 1.234215000000000034e-01 1.708384999999999820e+01 7.162720000000000198e+01 1.984990000000000009e+03
4.400000000000000439e-02 1.234564999999999968e-01 1.735484999999999900e+01 7.322675000000000978e+01 1.985380000000000109e+03
4.499999999999999833e-02 1.234929999999999917e-01 1.757440000000000069e+01 7.463925000000000409e+01 1.985795000000000073e+03
4.599999999999999922e-02 1.235249999999999959e-01 1.767620000000000147e+01 7.566104999999998881e+01 1.986164999999999964e+03
4.700000000000000011e-02 1.235485000000000055e-01 1.761120000000000019e+01 7.614624999999999488e+01 1.986429999999999836e+03
4.800000000000000100e-02 1.235595000000000165e-01 1.735160000000000124e+01 7.601930000000000121e+01 1.986565000000000055e+03
4.900000000000000189e-02 1.235564999999999997e-01 1.688970000000000127e+01 7.527369999999999095e+01 1.986545000000000073e+03
5.000000000000000278e-02 1.235394999999999965e-01 1.623479999999999990e+01 7.396030000000000371e+01 1.986355000000000018e+03
5.100000000000000366e-02 1.235084999999999933e-01 1.540879999999999939e+01 7.216960000000000264e+01 1.986014999999999873e+03
5.200000000000000455e-02 1.234655000000000058e-01 1.444100000000000072e+01 7.001285000000000025e+01 1.985525000000000091e+03
5.300000000000000544e-02 1.234125000000000083e-01 1.336445000000000149e+01 6.760609999999999786e+01 1.984930000000000064e+03
5.399999999999999939e-02 1.233515000000000028e-01 1.221359999999999957e+01 6.505979999999999563e+01 1.984240000000000009e+03
5.500000000000000028e-02 1.232869999999999938e-01 1.102294000000000018e+01 6.247364999999999924e+01 1.983500000000000000e+03
5.600000000000000117e-02 1.232189999999999952e-01 9.827199999999999491e+00 5.993689999999999429e+01 1.982730000000000018e+03
5.700000000000000205e-02 1.231509999999999966e-01 8.661704999999999544e+00 5.753144999999999953e+01 1.981960000000000036e+03
5.800000000000000294e-02 1.230860000000000010e-01 7.562929999999999708e+00 5.533570000000000277e+01 1.981210000000000036e+03
5.900000000000000383e-02 1.230254999999999960e-01 6.568725000000000591e+00 5.342794999999999561e+01 1.980514999999999873e+03
6.000000000000000472e-02 1.229719999999999980e-01 5.717634999999999579e+00 5.188745000000000118e+01 1.979894999999999982e+03
6.099999999999999867e-02 1.229270000000000085e-01 5.047789999999999999e+00 5.079380000000000450e+01 1.979380000000000109e+03
6.199999999999999956e-02 1.228940000000000032e-01 4.595134999999999970e+00 5.022289999999999566e+01 1.978994999999999891e+03
6.300000000000000044e-02 1.228744999999999976e-01 4.391384999999999650e+00 5.024244999999999806e+01 1.978760000000000218e+03
6.400000000000000133e-02 1.228704999999999936e-01 4.461935000000000429e+00 5.090670000000000073e+01 1.978694999999999936e+03
6.500000000000000222e-02 1.228829999999999922e-01 4.824089999999999989e+00 5.225099999999999767e+01 1.978820000000000164e+03
6.600000000000000311e-02 1.229139999999999955e-01 5.485794999999999533e+00 5.428849999999999909e+01 1.979154999999999973e+03
6.700000000000000400e-02 1.229635000000000034e-01 6.445014999999999716e+00 5.700809999999999889e+01 1.979699999999999818e+03
6.800000000000000488e-02 1.230315000000000158e-01 7.689829999999999721e+00 6.037454999999999927e+01 1.980454999999999927e+03
6.900000000000000577e-02 1.231164999999999898e-01 9.199154999999999305e+00 6.433070000000000732e+01 1.981410000000000082e+03
7.000000000000000666e-02 1.232179999999999942e-01 1.094407999999999959e+01 6.880105000000000359e+01 1.982554999999999836e+03
7.100000000000000755e-02 1.233344999999999997e-01 1.288947999999999894e+01 7.369655000000000200e+01 1.983869999999999891e+03
7.200000000000000844e-02 1.234629999999999894e-01 1.499579999999999913e+01 7.892000000000000171e+01 1.985329999999999927e+03
7.300000000000000933e-02 1.236020000000000035e-01 1.722149999999999892e+01 8.437170000000000414e+01 1.986909999999999854e+03
7.399999999999999634e-02 1.237485000000000113e-01 1.952455000000000140e+01 8.995464999999998668e+01 1.988585000000000036e+03
7.499999999999999722e-02 1.238994999999999957e-01 2.186464999999999748e+01 9.557959999999999923e+01 1.990324999999999818e+03
7.599999999999999811e-02 1.240539999999999976e-01 2.420485000000000042e+01 1.011685999999999979e+02 1.992099999999999909e+03
7.699999999999999900e-02 1.242090000000000138e-01 2.651275000000000048e+01 1.066581000000000046e+02 1.993894999999999982e+03
7.799999999999999989e-02 1.243630000000000013e-01 2.876164999999999949e+01 1.120014999999999930e+02 1.995680000000000064e+03
7.900000000000000078e-02 1.245140000000000136e-01 3.093079999999999785e+01 1.171680000000000064e+02 1.997434999999999945e+03
8.000000000000000167e-02 1.246619999999999950e-01 3.300580000000000069e+01 1.221440000000000055e+02 1.999164999999999964e+03
8.100000000000000255e-02 1.248060000000000003e-01 3.497794999999999987e+01 1.269284999999999997e+02 2.000849999999999909e+03
8.200000000000000344e-02 1.249460000000000015e-01 3.684350000000000591e+01 1.315320000000000107e+02 2.002490000000000009e+03
8.300000000000000433e-02 1.250809999999999977e-01 3.860295000000000698e+01 1.359735000000000014e+02 2.004085000000000036e+03
8.400000000000000522e-02 1.252135000000000054e-01 4.025969999999999516e+01 1.402754999999999939e+02 2.005640000000000100e+03
8.500000000000000611e-02 1.253409999999999802e-01 4.181875000000000142e+01 1.444615000000000009e+02 2.007154999999999973e+03
8.600000000000000699e-02 1.254665000000000086e-01 4.328594999999999970e+01 1.485519999999999925e+02 2.008634999999999991e+03
8.700000000000000788e-02 1.255890000000000062e-01 4.466679999999999495e+01 1.525645000000000095e+02 2.010085000000000036e+03
8.800000000000000877e-02 1.257089999999999874e-01 4.596580000000000155e+01 1.565070000000000050e+02 2.011509999999999991e+03
8.899999999999999578e-02 1.258269999999999944e-01 4.718564999999999543e+01 1.603820000000000050e+02 2.012909999999999854e+03
8.999999999999999667e-02 1.259429999999999994e-01 4.832739999999999725e+01 1.641854999999999905e+02 2.014289999999999964e+03
9.099999999999999756e-02 1.260570000000000024e-01 4.939005000000000223e+01 1.679050000000000011e+02 2.015639999999999873e+03
9.199999999999999845e-02 1.261680000000000024e-01 5.037085000000000434e+01 1.715229999999999961e+02 2.016965000000000146e+03
9.299999999999999933e-02 1.262759999999999994e-01 5.126525000000000176e+01 1.750169999999999959e+02 2.018259999999999991e+03
9.400000000000000022e-02 1.263805000000000067e-01 5.206745000000000090e+01 1.783620000000000232e+02 2.019505000000000109e+03
9.500000000000000111e-02 1.264810000000000101e-01 5.277075000000000671e+01 1.815305000000000177e+02 2.020704999999999927e+03
9.600000000000000200e-02 1.265765000000000085e-01 5.336820000000000164e+01 1.844964999999999975e+02 2.021849999999999909e+03
9.700000000000000289e-02 1.266665000000000152e-01 5.385259999999999536e+01 1.872330000000000041e+02 2.022930000000000064e+03
9.800000000000000377e-02 1.267504999999999882e-01 5.421719999999999828e+01 1.897154999999999916e+02 2.023934999999999945e+03
9.900000000000000466e-02 1.268269999999999953e-01 5.445635000000000048e+01 1.919254999999999995e+02 2.024860000000000127e+03
1.000000000000000056e-01 1.268960000000000088e-01 5.456539999999999679e+01 1.938449999999999989e+02 2.025695000000000164e+03
1.010000000000000064e-01 1.269575000000000009e-01 5.454149999999999920e+01 1.954629999999999939e+02 2.026440000000000055e+03
1.020000000000000073e-01 1.270104999999999984e-01 5.438374999999999915e+01 1.967735000000000127e+02 2.027079999999999927e+03
1.030000000000000082e-01 1.270550000000000013e-01 5.409314999999999429e+01 1.977764999999999986e+02 2.027630000000000109e+03
1.040000000000000091e-01 1.270904999999999951e-01 5.367345000000000255e+01 1.984764999999999873e+02 2.028070000000000164e+03
1.050000000000000100e-01 1.271180000000000088e-01 5.313045000000000329e+01 1.988874999999999886e+02 2.028410000000000082e+03
1.059999999999999970e-01 1.271370000000000000e-01 5.247240000000000038e+01 1.990255000000000223e+02 2.028654999999999973e+03
1.069999999999999979e-01 1.271484999999999976e-01 5.170964999999999634e+01 1.989134999999999991e+02 2.028799999999999955e+03
1.079999999999999988e-01 1.271530000000000160e-01 5.085439999999999827e+01 1.985785000000000196e+02 2.028865000000000009e+03
1.089999999999999997e-01 1.271509999999999863e-01 4.992029999999999745e+01 1.980509999999999877e+02 2.028845000000000027e+03
1.100000000000000006e-01 1.271430000000000060e-01 4.892194999999999538e+01 1.973629999999999995e+02 2.028759999999999991e+03
1.110000000000000014e-01 1.271295000000000064e-01 4.787440000000000140e+01 1.965480000000000018e+02 2.028610000000000127e+03
1.120000000000000023e-01 1.271130000000000038e-01 4.679264999999999475e+01 1.956370000000000005e+02 2.028414999999999964e+03
1.130000000000000032e-01 1.270924999999999971e-01 4.569105000000000416e+01 1.946625000000000227e+02 2.028174999999999955e+03
1.140000000000000041e-01 1.270695000000000019e-01 4.458305000000000007e+01 1.936504999999999939e+02 2.027905000000000200e+03
1.150000000000000050e-01 1.270445000000000046e-01 4.348029999999999973e+01 1.926250000000000000e+02 2.027615000000000009e+03
1.160000000000000059e-01 1.270189999999999930e-01 4.239294999999999902e+01 1.916055000000000064e+02 2.027309999999999945e+03
1.170000000000000068e-01 1.269925000000000082e-01 4.132889999999999731e+01 1.906064999999999827e+02 2.027000000000000000e+03
1.180000000000000077e-01 1.269665000000000099e-01 4.029420000000000357e+01 1.896370000000000005e+02 2.026680000000000064e+03
1.190000000000000085e-01 1.269399999999999973e-01 3.929225000000000279e+01 1.887009999999999934e+02 2.026369999999999891e+03
1.200000000000000094e-01 1.269144999999999857e-01 3.832460000000000377e+01 1.877980000000000018e+02 2.026059999999999945e+03
1.209999999999999964e-01 1.268890000000000018e-01 3.739074999999999704e+01 1.869230000000000018e+02 2.025755000000000109e+03
1.219999999999999973e-01 1.268644999999999912e-01 3.648824999999999363e+01 1.860674999999999955e+02 2.025454999999999927e+03
1.229999999999999982e-01 1.268394999999999939e-01 3.561325000000000074e+01 1.852199999999999989e+02 2.025159999999999854e+03
1.239999999999999991e-01 1.268150000000000110e-01 3.476050000000000040e+01 1.843665000000000020e+02 2.024860000000000127e+03
1.250000000000000000e-01 1.267900000000000138e-01 3.392405000000000115e+01 1.834925000000000068e+02 2.024559999999999945e+03
1.260000000000000009e-01 1.267645000000000022e-01 3.309709999999999752e+01 1.825815000000000055e+02 2.024250000000000000e+03
1.270000000000000018e-01 1.267380000000000173e-01 3.227295000000000158e+01 1.816195000000000164e+02 2.023929999999999836e+03
1.280000000000000027e-01 1.267095000000000027e-01 3.144485000000000241e+01 1.805910000000000082e+02 2.023595000000000027e+03
1.290000000000000036e-01 1.266800000000000148e-01 3.060670000000000002e+01 1.794839999999999804e+02 2.023239999999999782e+03
1.300000000000000044e-01 1.266479999999999828e-01 2.975314999999999799e+01 1.782884999999999991e+02 2.022860000000000127e+03
1.310000000000000053e-01 1.266140000000000043e-01 2.887984999999999758e+01 1.769970000000000141e+02 2.022454999999999927e+03
1.320000000000000062e-01 1.265775000000000095e-01 2.798379999999999868e+01 1.756045000000000016e+02 2.022019999999999982e+03
1.330000000000000071e-01 1.265379999999999838e-01 2.706340000000000146e+01 1.741125000000000114e+02 2.021550000000000182e+03
1.340000000000000080e-01 1.264959999999999973e-01 2.611885000000000190e+01 1.725240000000000009e+02 2.021050000000000182e+03
1.350000000000000089e-01 1.264510000000000078e-01 2.515174999999999983e+01 1.708449999999999989e+02 2.020525000000000091e+03
1.360000000000000098e-01 1.264040000000000163e-01 2.416529999999999845e+01 1.690875000000000057e+02 2.019964999999999918e+03
1.370000000000000107e-01 1.263545000000000085e-01 2.316450000000000031e+01 1.672665000000000077e+02 2.019380000000000109e+03
1.380000000000000115e-01 1.263035000000000130e-01 2.215545000000000186e+01 1.653979999999999961e+02 2.018775000000000091e+03
1.390000000000000124e-01 1.262510000000000021e-01 2.114545000000000030e+01 1.635020000000000095e+02 2.018154999999999973e+03
1.400000000000000133e-01 1.261975000000000180e-01 2.014284999999999926e+01 1.615994999999999777e+02 2.017525000000000091e+03
1.410000000000000142e-01 1.261440000000000061e-01 1.915625000000000000e+01 1.597135000000000105e+02 2.016889999999999873e+03
1.420000000000000151e-01 1.260904999999999943e-01 1.819474999999999909e+01 1.578654999999999973e+02 2.016255000000000109e+03
1.430000000000000160e-01 1.260374999999999968e-01 1.726699999999999946e+01 1.560765000000000100e+02 2.015625000000000000e+03
1.440000000000000169e-01 1.259859999999999869e-01 1.638129999999999953e+01 1.543659999999999854e+02 2.015019999999999982e+03
1.450000000000000178e-01 1.259365000000000068e-01 1.554504999999999981e+01 1.527514999999999930e+02 2.014430000000000064e+03
1.459999999999999909e-01 1.258894999999999875e-01 1.476445000000000007e+01 1.512465000000000259e+02 2.013869999999999891e+03
1.469999999999999918e-01 1.258450000000000124e-01 1.404445000000000121e+01 1.498609999999999900e+02 2.013340000000000146e+03
1.479999999999999927e-01 1.258035000000000125e-01 1.338844999999999885e+01 1.486014999999999873e+02 2.012849999999999909e+03
1.489999999999999936e-01 1.257655000000000023e-01 1.279824999999999946e+01 1.474714999999999918e+02 2.012394999999999982e+03
1.499999999999999944e-01 1.257310000000000094e-01 1.227400000000000091e+01 1.464694999999999823e+02 2.011980000000000018e+03
1.509999999999999953e-01 1.256995000000000196e-01 1.181437500000000007e+01 1.455904999999999916e+02 2.011599999999999909e+03
1.519999999999999962e-01 1.256709999999999772e-01 1.141672999999999938e+01 1.448274999999999864e+02 2.011259999999999991e+03
1.529999999999999971e-01 1.256464999999999943e-01 1.107702499999999901e+01 1.441694999999999993e+02 2.010965000000000146e+03
1.539999999999999980e-01 1.256245000000000001e-01 1.079041499999999942e+01 1.436045000000000016e+02 2.010694999999999936e+03
1.549999999999999989e-01 1.256049999999999944e-01 1.055118500000000026e+01 1.431200000000000045e+02 2.010465000000000146e+03
1.559999999999999998e-01 1.255880000000000052e-01 1.035319499999999948e+01 1.427010000000000218e+02 2.010255000000000109e+03
1.570000000000000007e-01 1.255729999999999902e-01 1.018992000000000075e+01 1.423340000000000032e+02 2.010075000000000045e+03
1.580000000000000016e-01 1.255594999999999906e-01 1.005507500000000043e+01 1.420054999999999836e+02 2.009914999999999964e+03
1.590000000000000024e-01 1.255479999999999929e-01 9.942409999999998860e+00 1.417030000000000030e+02 2.009769999999999982e+03
