# t [s], A [cm^2], U [cm/s], P [cPa], c [cm/s]
1.000000000000000021e-03 8.172424999999999828e-01 2.793499999999997374e-03 9.203669999999999618e+01 1.802824999999999818e+03
2.000000000000000042e-03 8.172515000000000196e-01 3.575629999999999781e-02 9.203034999999999854e+01 1.802819999999999936e+03
3.000000000000000062e-03 8.173620000000000330e-01 2.276423499999999933e-01 9.225849999999999795e+01 1.802860000000000127e+03
4.000000000000000083e-03 8.173410000000000952e-01 2.376840000000000064e-01 9.222624999999999318e+01 1.802855000000000018e+03
5.000000000000000104e-03 8.172090000000000742e-01 6.460450000000000914e-02 9.180780000000000030e+01 1.802784999999999854e+03
6.000000000000000125e-03 8.170785000000000409e-01 -1.263250000000000206e-01 9.122495000000000687e+01 1.802679999999999836e+03
7.000000000000000146e-03 8.168435000000000556e-01 -5.072900000000000187e-01 9.027164999999999395e+01 1.802505000000000109e+03
8.000000000000000167e-03 8.164690000000000003e-01 -1.137485000000000079e+00 8.878624999999999545e+01 1.802235000000000127e+03
9.000000000000001055e-03 8.159549999999999859e-01 -1.999349999999999961e+00 8.671510000000000673e+01 1.801855000000000018e+03
1.000000000000000194e-02 8.152565000000000506e-01 -3.133955000000000268e+00 8.392900000000000205e+01 1.801335000000000036e+03
1.099999999999999936e-02 8.144124999999999837e-01 -4.439839999999999343e+00 8.049080000000000723e+01 1.800679999999999836e+03
1.200000000000000025e-02 8.135950000000000681e-01 -5.592001500000000291e+00 7.685730000000000928e+01 1.799964999999999918e+03
1.300000000000000114e-02 8.129815000000000236e-01 -6.244215000000000515e+00 7.365269999999999584e+01 1.799295000000000073e+03
1.400000000000000203e-02 8.126339999999999675e-01 -6.247669999999999391e+00 7.129285000000000139e+01 1.798750000000000000e+03
1.499999999999999944e-02 8.124845000000000539e-01 -5.699765000000000192e+00 6.979879999999999995e+01 1.798355000000000018e+03
1.600000000000000033e-02 8.123894999999999866e-01 -4.857655000000000278e+00 6.884614999999999441e+01 1.798059999999999945e+03
1.700000000000000122e-02 8.122104999999999464e-01 -3.999144999999999950e+00 6.796054999999999779e+01 1.797789999999999964e+03
1.800000000000000211e-02 8.118754999999999722e-01 -3.295984999999999943e+00 6.675350000000000250e+01 1.797480000000000018e+03
1.900000000000000300e-02 8.114010000000000389e-01 -2.758239999999999803e+00 6.508275000000000432e+01 1.797095000000000027e+03
2.000000000000000042e-02 8.108619999999999717e-01 -2.278815000000000257e+00 6.305395000000000039e+01 1.796654999999999973e+03
2.100000000000000130e-02 8.103354999999999864e-01 -1.738829999999999876e+00 6.088435000000000485e+01 1.796179999999999836e+03
2.200000000000000219e-02 8.098484999999999712e-01 -1.100484999999999713e+00 5.873430000000000462e+01 1.795695000000000164e+03
2.299999999999999961e-02 8.093684999999999352e-01 -4.431300000000000239e-01 5.659870000000000090e+01 1.795204999999999927e+03
2.400000000000000050e-02 8.088159999999999794e-01 5.829500000000020776e-02 5.428990000000000293e+01 1.794684999999999945e+03
2.500000000000000139e-02 8.080955000000000776e-01 1.925050000000001482e-01 5.150155000000000172e+01 1.794085000000000036e+03
2.600000000000000228e-02 8.071340000000000181e-01 -2.143699999999997274e-01 4.792345000000000255e+01 1.793339999999999918e+03
2.700000000000000316e-02 8.059074999999999989e-01 -1.234690000000000509e+00 4.336735000000000184e+01 1.792424999999999955e+03
2.800000000000000058e-02 8.044584999999999653e-01 -2.808479999999999421e+00 3.785694999999999766e+01 1.791329999999999927e+03
2.900000000000000147e-02 8.028834999999999722e-01 -4.758370000000000211e+00 3.164654999999999774e+01 1.790090000000000146e+03
3.000000000000000236e-02 8.013084999999999791e-01 -6.840214999999999712e+00 2.516519500000000065e+01 1.788779999999999973e+03
3.099999999999999978e-02 7.998570000000000402e-01 -8.803845000000000809e+00 1.891774900000000059e+01 1.787480000000000018e+03
3.200000000000000067e-02 7.986310000000000908e-01 -1.044118849999999910e+01 1.338389499999999899e+01 1.786295000000000073e+03
3.300000000000000155e-02 7.976955000000000018e-01 -1.161131500000000116e+01 8.941964999999999719e+00 1.785295000000000073e+03
3.400000000000000244e-02 7.970825000000000271e-01 -1.224296499999999988e+01 5.830459999999999532e+00 1.784534999999999854e+03
3.500000000000000333e-02 7.967925000000000146e-01 -1.232164999999999999e+01 4.145360000000000156e+00 1.784055000000000064e+03
3.600000000000000422e-02 7.968089999999999895e-01 -1.186945000000000050e+01 3.865080000000000293e+00 1.783849999999999909e+03
3.700000000000000511e-02 7.971019999999999772e-01 -1.092484999999999928e+01 4.889060000000000628e+00 1.783914999999999964e+03
3.799999999999999906e-02 7.976425000000000320e-01 -9.529609999999999914e+00 7.076394999999999769e+00 1.784240000000000009e+03
3.899999999999999994e-02 7.983994999999999287e-01 -7.724207000000000711e+00 1.027323000000000164e+01 1.784779999999999973e+03
4.000000000000000083e-02 7.993414999999999271e-01 -5.551925000000000665e+00 1.432402500000000067e+01 1.785519999999999982e+03
4.100000000000000172e-02 8.004359999999999253e-01 -3.066559999999999953e+00 1.907025499999999951e+01 1.786410000000000082e+03
4.200000000000000261e-02 8.016429999999999945e-01 -3.384499999999999176e-01 2.434309499999999815e+01 1.787434999999999945e+03
4.300000000000000350e-02 8.029195000000000082e-01 2.544364999999999988e+00 2.995953000000000088e+01 1.788554999999999836e+03
4.400000000000000439e-02 8.042165000000000008e-01 5.480794999999999639e+00 3.572419999999999618e+01 1.789724999999999909e+03
4.499999999999999833e-02 8.054874999999999119e-01 8.365809999999999746e+00 4.143999999999999773e+01 1.790904999999999973e+03
4.599999999999999922e-02 8.066915000000000058e-01 1.110152500000000053e+01 4.692304999999999637e+01 1.792059999999999945e+03
4.700000000000000011e-02 8.077954999999999997e-01 1.360663499999999893e+01 5.201939999999999742e+01 1.793159999999999854e+03
4.800000000000000100e-02 8.087805000000000133e-01 1.582329000000000008e+01 5.661820000000000164e+01 1.794180000000000064e+03
4.900000000000000189e-02 8.096389999999999976e-01 1.771974999999999767e+01 6.065990000000000748e+01 1.795095000000000027e+03
5.000000000000000278e-02 8.103744999999999976e-01 1.928954999999999842e+01 6.413639999999999475e+01 1.795909999999999854e+03
5.100000000000000366e-02 8.110010000000000829e-01 2.054775000000000063e+01 6.708639999999999759e+01 1.796615000000000009e+03
5.200000000000000455e-02 8.115384999999999405e-01 2.152615000000000123e+01 6.958594999999999686e+01 1.797230000000000018e+03
5.300000000000000544e-02 8.120125000000000259e-01 2.226875000000000071e+01 7.173770000000000380e+01 1.797775000000000091e+03
5.399999999999999939e-02 8.124495000000000466e-01 2.282755000000000223e+01 7.366034999999999400e+01 1.798255000000000109e+03
5.500000000000000028e-02 8.128775000000000306e-01 2.325919999999999987e+01 7.547944999999999993e+01 1.798710000000000036e+03
5.600000000000000117e-02 8.133234999999999770e-01 2.362230000000000274e+01 7.731945000000000334e+01 1.799160000000000082e+03
5.700000000000000205e-02 8.138125000000000497e-01 2.397404999999999831e+01 7.929644999999999300e+01 1.799625000000000000e+03
5.800000000000000294e-02 8.143659999999999233e-01 2.436650000000000205e+01 8.151060000000001082e+01 1.800119999999999891e+03
5.900000000000000383e-02 8.149990000000000290e-01 2.484244999999999948e+01 8.403900000000000148e+01 1.800679999999999836e+03
6.000000000000000472e-02 8.157189999999999719e-01 2.543144999999999811e+01 8.692859999999998877e+01 1.801299999999999955e+03
6.099999999999999867e-02 8.165270000000000028e-01 2.614689999999999870e+01 9.019120000000000914e+01 1.802000000000000000e+03
6.199999999999999956e-02 8.174124999999999863e-01 2.698460000000000036e+01 9.380084999999999695e+01 1.802764999999999873e+03
6.300000000000000044e-02 8.183575000000000710e-01 2.792360000000000042e+01 9.769519999999999982e+01 1.803595000000000027e+03
6.400000000000000133e-02 8.193380000000000107e-01 2.892835000000000178e+01 1.017810999999999950e+02 1.804465000000000146e+03
6.500000000000000222e-02 8.203255000000000408e-01 2.995284999999999798e+01 1.059412999999999982e+02 1.805355000000000018e+03
6.600000000000000311e-02 8.212895000000000056e-01 3.094519999999999982e+01 1.100469999999999970e+02 1.806244999999999891e+03
6.700000000000000400e-02 8.221994999999999720e-01 3.185229999999999961e+01 1.139664999999999964e+02 1.807099999999999909e+03
6.800000000000000488e-02 8.230294999999999694e-01 3.262434999999999974e+01 1.175769999999999982e+02 1.807909999999999854e+03
6.900000000000000577e-02 8.237570000000000725e-01 3.321829999999999927e+01 1.207725000000000080e+02 1.808639999999999873e+03
7.000000000000000666e-02 8.243650000000000144e-01 3.360099999999999909e+01 1.234724999999999966e+02 1.809269999999999982e+03
7.100000000000000755e-02 8.248444999999999805e-01 3.375045000000000073e+01 1.256229999999999905e+02 1.809799999999999955e+03
7.200000000000000844e-02 8.251924999999999955e-01 3.365755000000000052e+01 1.272019999999999982e+02 1.810210000000000036e+03
7.300000000000000933e-02 8.254129999999999523e-01 3.332524999999999693e+01 1.282164999999999964e+02 1.810500000000000000e+03
7.399999999999999634e-02 8.255170000000000563e-01 3.276870000000000260e+01 1.287035000000000196e+02 1.810679999999999836e+03
7.499999999999999722e-02 8.255179999999999740e-01 3.201314999999999600e+01 1.287219999999999800e+02 1.810759999999999991e+03
7.599999999999999811e-02 8.254360000000000586e-01 3.109270000000000067e+01 1.283505000000000109e+02 1.810750000000000000e+03
7.699999999999999900e-02 8.252919999999999146e-01 3.004755000000000109e+01 1.276804999999999950e+02 1.810664999999999964e+03
7.799999999999999989e-02 8.251085000000000225e-01 2.892140000000000200e+01 1.268114999999999952e+02 1.810525000000000091e+03
7.900000000000000078e-02 8.249085000000000445e-01 2.775914999999999822e+01 1.258425000000000011e+02 1.810360000000000127e+03
8.000000000000000167e-02 8.247115000000000418e-01 2.660374999999999801e+01 1.248660000000000139e+02 1.810174999999999955e+03
8.100000000000000255e-02 8.245365000000000055e-01 2.549405000000000143e+01 1.239669999999999845e+02 1.810000000000000000e+03
8.200000000000000344e-02 8.243970000000000464e-01 2.446284999999999954e+01 1.232119999999999891e+02 1.809845000000000027e+03
8.300000000000000433e-02 8.243034999999999668e-01 2.353515000000000157e+01 1.226525000000000034e+02 1.809719999999999800e+03
8.400000000000000522e-02 8.242614999999999803e-01 2.272735000000000127e+01 1.223190000000000026e+02 1.809634999999999991e+03
8.500000000000000611e-02 8.242720000000000047e-01 2.204674999999999940e+01 1.222220000000000084e+02 1.809599999999999909e+03
8.600000000000000699e-02 8.243314999999999948e-01 2.149170000000000158e+01 1.223524999999999920e+02 1.809599999999999909e+03
8.700000000000000788e-02 8.244329999999999714e-01 2.105230000000000246e+01 1.226854999999999905e+02 1.809650000000000091e+03
8.800000000000000877e-02 8.245664999999999800e-01 2.071124999999999972e+01 1.231784999999999997e+02 1.809735000000000127e+03
8.899999999999999578e-02 8.247189999999999799e-01 2.044539999999999935e+01 1.237800000000000011e+02 1.809840000000000146e+03
8.999999999999999667e-02 8.248754999999999837e-01 2.022735000000000127e+01 1.244284999999999997e+02 1.809960000000000036e+03
9.099999999999999756e-02 8.250220000000000331e-01 2.002749999999999986e+01 1.250594999999999999e+02 1.810085000000000036e+03
9.199999999999999845e-02 8.251444999999999474e-01 1.981584999999999752e+01 1.256099999999999994e+02 1.810194999999999936e+03
9.299999999999999933e-02 8.252295000000000602e-01 1.956455000000000055e+01 1.260209999999999866e+02 1.810280000000000200e+03
9.400000000000000022e-02 8.252665000000000139e-01 1.924895000000000067e+01 1.262429999999999950e+02 1.810339999999999918e+03
9.500000000000000111e-02 8.252479999999999816e-01 1.885014999999999930e+01 1.262369999999999948e+02 1.810349999999999909e+03
9.600000000000000200e-02 8.251705000000000290e-01 1.835549999999999926e+01 1.259800000000000040e+02 1.810315000000000055e+03
9.700000000000000289e-02 8.250334999999999752e-01 1.775965000000000060e+01 1.254650000000000034e+02 1.810220000000000027e+03
9.800000000000000377e-02 8.248400000000000176e-01 1.706504999999999939e+01 1.246999999999999886e+02 1.810079999999999927e+03
9.900000000000000466e-02 8.245970000000000244e-01 1.628109999999999857e+01 1.237100000000000080e+02 1.809894999999999982e+03
1.000000000000000056e-01 8.243150000000000199e-01 1.542419999999999902e+01 1.225330000000000155e+02 1.809664999999999964e+03
1.010000000000000064e-01 8.240054999999999463e-01 1.451613000000000042e+01 1.212189999999999941e+02 1.809404999999999973e+03
1.020000000000000073e-01 8.236829999999999430e-01 1.358286000000000016e+01 1.198275000000000006e+02 1.809119999999999891e+03
1.030000000000000082e-01 8.233620000000000383e-01 1.265278999999999954e+01 1.184199999999999875e+02 1.808829999999999927e+03
1.040000000000000091e-01 8.230565000000000797e-01 1.175494499999999931e+01 1.170600000000000023e+02 1.808539999999999964e+03
1.050000000000000100e-01 8.227805000000000257e-01 1.091721499999999878e+01 1.158085000000000093e+02 1.808269999999999982e+03
1.059999999999999970e-01 8.225445000000000118e-01 1.016451999999999956e+01 1.147169999999999987e+02 1.808025000000000091e+03
1.069999999999999979e-01 8.223584999999999923e-01 9.517469999999999430e+00 1.138294999999999959e+02 1.807820000000000164e+03
1.079999999999999988e-01 8.222279999999999589e-01 8.991160000000000707e+00 1.131760000000000019e+02 1.807654999999999973e+03
1.089999999999999997e-01 8.221555000000000391e-01 8.594424999999999315e+00 1.127740000000000009e+02 1.807545000000000073e+03
1.100000000000000006e-01 8.221410000000000107e-01 8.329649999999999110e+00 1.126255000000000024e+02 1.807480000000000018e+03
1.110000000000000014e-01 8.221799999999999109e-01 8.192830000000000723e+00 1.127210000000000036e+02 1.807470000000000027e+03
1.120000000000000023e-01 8.222670000000000812e-01 8.174125000000000085e+00 1.130354999999999990e+02 1.807505000000000109e+03
1.130000000000000032e-01 8.223940000000000694e-01 8.258699999999999264e+00 1.135374999999999943e+02 1.807585000000000036e+03
1.140000000000000041e-01 8.225504999999999622e-01 8.427785000000000082e+00 1.141850000000000023e+02 1.807699999999999818e+03
1.150000000000000050e-01 8.227254999999999985e-01 8.659874999999999545e+00 1.149329999999999927e+02 1.807829999999999927e+03
1.160000000000000059e-01 8.229085000000000427e-01 8.932000000000000384e+00 1.157330000000000041e+02 1.807984999999999900e+03
1.170000000000000068e-01 8.230895000000000294e-01 9.220980000000000842e+00 1.165390000000000015e+02 1.808144999999999982e+03
1.180000000000000077e-01 8.232580000000000453e-01 9.504615000000001146e+00 1.173064999999999998e+02 1.808305000000000064e+03
1.190000000000000085e-01 8.234059999999999713e-01 9.762734999999999275e+00 1.179975000000000023e+02 1.808449999999999818e+03
1.200000000000000094e-01 8.235274999999999679e-01 9.978055000000001229e+00 1.185805000000000007e+02 1.808574999999999818e+03
1.209999999999999964e-01 8.236175000000000024e-01 1.013699000000000083e+01 1.190319999999999965e+02 1.808679999999999836e+03
1.219999999999999973e-01 8.236734999999999474e-01 1.022979499999999931e+01 1.193375000000000057e+02 1.808755000000000109e+03
1.229999999999999982e-01 8.236950000000000660e-01 1.025122000000000000e+01 1.194915000000000020e+02 1.808805000000000064e+03
1.239999999999999991e-01 8.236835000000000129e-01 1.020017499999999977e+01 1.194975000000000023e+02 1.808819999999999936e+03
1.250000000000000000e-01 8.236425000000000551e-01 1.007971000000000039e+01 1.193649999999999949e+02 1.808809999999999945e+03
1.260000000000000009e-01 8.235755000000000159e-01 9.896444999999999936e+00 1.191129999999999995e+02 1.808775000000000091e+03
1.270000000000000018e-01 8.234884999999999566e-01 9.660140000000000171e+00 1.187634999999999934e+02 1.808714999999999918e+03
1.280000000000000027e-01 8.233885000000000787e-01 9.382989999999999498e+00 1.183444999999999965e+02 1.808634999999999991e+03
1.290000000000000036e-01 8.232819999999999583e-01 9.078614999999999213e+00 1.178834999999999980e+02 1.808549999999999955e+03
1.300000000000000044e-01 8.231749999999999901e-01 8.761324999999999363e+00 1.174110000000000014e+02 1.808460000000000036e+03
1.310000000000000053e-01 8.230744999999999312e-01 8.445264999999999134e+00 1.169544999999999959e+02 1.808369999999999891e+03
1.320000000000000062e-01 8.229855000000000365e-01 8.143575000000000230e+00 1.165384999999999991e+02 1.808279999999999973e+03
1.330000000000000071e-01 8.229120000000000879e-01 7.867365000000000386e+00 1.161829999999999927e+02 1.808204999999999927e+03
1.340000000000000080e-01 8.228569999999999496e-01 7.625624999999999432e+00 1.159035000000000082e+02 1.808144999999999982e+03
1.350000000000000089e-01 8.228215000000000945e-01 7.424405000000000143e+00 1.157085000000000008e+02 1.808095000000000027e+03
1.360000000000000098e-01 8.228064999999999962e-01 7.266804999999999737e+00 1.155995000000000061e+02 1.808065000000000055e+03
1.370000000000000107e-01 8.228094999999999715e-01 7.152969999999999828e+00 1.155745000000000005e+02 1.808045000000000073e+03
1.380000000000000115e-01 8.228284999999999627e-01 7.080255000000001075e+00 1.156219999999999999e+02 1.808050000000000182e+03
1.390000000000000124e-01 8.228595000000000770e-01 7.043649999999999523e+00 1.157305000000000064e+02 1.808065000000000055e+03
1.400000000000000133e-01 8.228990000000000471e-01 7.036279999999999646e+00 1.158810000000000002e+02 1.808090000000000146e+03
1.410000000000000142e-01 8.229414999999999925e-01 7.049949999999999939e+00 1.160559999999999974e+02 1.808115000000000009e+03
1.420000000000000151e-01 8.229830000000000201e-01 7.075815000000000410e+00 1.162340000000000089e+02 1.808150000000000091e+03
1.430000000000000160e-01 8.230195000000000149e-01 7.104934999999999334e+00 1.163969999999999914e+02 1.808179999999999836e+03
1.440000000000000169e-01 8.230469999999999731e-01 7.128885000000000360e+00 1.165275000000000034e+02 1.808204999999999927e+03
1.450000000000000178e-01 8.230619999999999603e-01 7.140215000000000423e+00 1.166115000000000066e+02 1.808224999999999909e+03
1.459999999999999909e-01 8.230634999999999479e-01 7.132870000000000488e+00 1.166380000000000052e+02 1.808235000000000127e+03
1.469999999999999918e-01 8.230490000000000306e-01 7.102524999999999977e+00 1.166004999999999967e+02 1.808230000000000018e+03
1.479999999999999927e-01 8.230195000000000149e-01 7.046750000000000291e+00 1.164975000000000023e+02 1.808210000000000036e+03
1.489999999999999936e-01 8.229754999999999709e-01 6.965149999999999508e+00 1.163305000000000007e+02 1.808179999999999836e+03
1.499999999999999944e-01 8.229189999999999561e-01 6.859315000000000495e+00 1.161074999999999875e+02 1.808139999999999873e+03
1.509999999999999953e-01 8.228524999999999867e-01 6.732714999999999783e+00 1.158375000000000057e+02 1.808085000000000036e+03
1.519999999999999962e-01 8.227789999999999271e-01 6.590485000000001037e+00 1.155339999999999918e+02 1.808025000000000091e+03
1.529999999999999971e-01 8.227029999999999621e-01 6.439045000000000130e+00 1.152135000000000105e+02 1.807960000000000036e+03
1.539999999999999980e-01 8.226284999999999847e-01 6.285769999999999413e+00 1.148934999999999889e+02 1.807894999999999982e+03
1.549999999999999989e-01 8.225594999999999990e-01 6.138469999999999871e+00 1.145910000000000082e+02 1.807829999999999927e+03
1.559999999999999998e-01 8.225000000000000089e-01 6.004965000000000330e+00 1.143245000000000005e+02 1.807769999999999982e+03
1.570000000000000007e-01 8.224534999999999485e-01 5.892580000000000595e+00 1.141094999999999970e+02 1.807724999999999909e+03
1.580000000000000016e-01 8.224229999999999041e-01 5.807729999999999393e+00 1.139590000000000032e+02 1.807679999999999836e+03
1.590000000000000024e-01 8.224104999999999333e-01 5.755549999999999500e+00 1.138845000000000027e+02 1.807664999999999964e+03
