# t [s], A [cm^2], U [cm/s], P [cPa], c [cm/s]
1.000000000000000021e-03 5.487874999999999837e-01 3.859549999999996317e-03 9.628745000000000687e+01 1.532329999999999927e+03
2.000000000000000042e-03 5.487790000000000168e-01 -6.317149999999999242e-04 9.626435000000000741e+01 1.532325000000000045e+03
3.000000000000000062e-03 5.488260000000000360e-01 9.029784999999998507e-02 9.635380000000000678e+01 1.532349999999999909e+03
4.000000000000000083e-03 5.488709999999999978e-01 1.841204499999999911e-01 9.646585000000000321e+01 1.532375000000000000e+03
5.000000000000000104e-03 5.488539999999999530e-01 1.667858499999999855e-01 9.642834999999999468e+01 1.532369999999999891e+03
6.000000000000000125e-03 5.487984999999999669e-01 7.181450000000000333e-02 9.623650000000000659e+01 1.532329999999999927e+03
7.000000000000000146e-03 5.487454999999999972e-01 -2.442600000000000326e-02 9.597630000000000905e+01 1.532275000000000091e+03
8.000000000000000167e-03 5.486699999999999910e-01 -1.748429999999999707e-01 9.560280000000000200e+01 1.532190000000000055e+03
9.000000000000001055e-03 5.485419999999999741e-01 -4.401799999999999047e-01 9.502805000000000746e+01 1.532059999999999945e+03
1.000000000000000194e-02 5.483584999999999710e-01 -8.230999999999999428e-01 9.421240000000000236e+01 1.531875000000000000e+03
1.099999999999999936e-02 5.481095000000000272e-01 -1.332270000000000287e+00 9.311129999999999995e+01 1.531625000000000000e+03
1.200000000000000025e-02 5.477810000000000734e-01 -1.979359999999999786e+00 9.167349999999999000e+01 1.531284999999999854e+03
1.300000000000000114e-02 5.473839999999999817e-01 -2.721924999999999706e+00 8.991105000000000302e+01 1.530865000000000009e+03
1.400000000000000203e-02 5.469629999999999770e-01 -3.445640000000000480e+00 8.794159999999999400e+01 1.530380000000000109e+03
1.499999999999999944e-02 5.465740000000000043e-01 -4.009533499999999862e+00 8.595170000000000243e+01 1.529875000000000000e+03
1.600000000000000033e-02 5.462550000000000461e-01 -4.308077500000000448e+00 8.411824999999998909e+01 1.529380000000000109e+03
1.700000000000000122e-02 5.460149999999999171e-01 -4.305873500000000575e+00 8.254529999999999745e+01 1.528929999999999836e+03
1.800000000000000211e-02 5.458330000000000126e-01 -4.036594000000000015e+00 8.124205000000000609e+01 1.528529999999999973e+03
1.900000000000000300e-02 5.456749999999999101e-01 -3.578891499999999670e+00 8.013814999999999600e+01 1.528170000000000073e+03
2.000000000000000042e-02 5.455039999999999889e-01 -3.024099000000000093e+00 7.911995000000000289e+01 1.527829999999999927e+03
2.100000000000000130e-02 5.452940000000000564e-01 -2.446496999999999922e+00 7.807384999999999309e+01 1.527490000000000009e+03
2.200000000000000219e-02 5.450375000000000636e-01 -1.884184999999999999e+00 7.692289999999999850e+01 1.527125000000000000e+03
2.299999999999999961e-02 5.447414999999999896e-01 -1.336154999999999760e+00 7.564504999999999768e+01 1.526740000000000009e+03
2.400000000000000050e-02 5.444255000000000067e-01 -7.752300000000000857e-01 7.426750000000001251e+01 1.526329999999999927e+03
2.500000000000000139e-02 5.441070000000000073e-01 -1.698349999999999582e-01 7.284335000000000093e+01 1.525910000000000082e+03
2.600000000000000228e-02 5.437989999999999213e-01 4.953249999999997932e-01 7.142185000000000628e+01 1.525480000000000018e+03
2.700000000000000316e-02 5.434995000000000243e-01 1.206944999999999935e+00 7.002394999999999925e+01 1.525055000000000064e+03
2.800000000000000058e-02 5.431969999999999299e-01 1.921564999999999745e+00 6.863060000000000116e+01 1.524630000000000109e+03
2.900000000000000147e-02 5.428705000000000336e-01 2.573350000000000470e+00 6.718449999999999989e+01 1.524199999999999818e+03
3.000000000000000236e-02 5.424944999999999906e-01 3.087984999999999758e+00 6.560325000000000273e+01 1.523730000000000018e+03
3.099999999999999978e-02 5.420504999999999907e-01 3.399040000000000283e+00 6.380020000000000380e+01 1.523215000000000146e+03
3.200000000000000067e-02 5.415265000000000217e-01 3.463049999999999962e+00 6.170839999999999748e+01 1.522639999999999873e+03
3.300000000000000155e-02 5.409239999999999604e-01 3.269849999999999479e+00 5.930004999999999882e+01 1.521990000000000009e+03
3.400000000000000244e-02 5.402584999999999749e-01 2.845084999999999642e+00 5.659874999999999545e+01 1.521275000000000091e+03
3.500000000000000333e-02 5.395560000000000356e-01 2.245194999999999830e+00 5.367950000000000443e+01 1.520505000000000109e+03
3.600000000000000422e-02 5.388490000000000224e-01 1.546269999999999811e+00 5.065805000000000291e+01 1.519699999999999818e+03
3.700000000000000511e-02 5.381724999999999426e-01 8.306349999999991240e-01 4.767354999999999876e+01 1.518894999999999982e+03
3.799999999999999906e-02 5.375564999999999927e-01 1.749349999999996186e-01 4.486950000000000216e+01 1.518125000000000000e+03
3.899999999999999994e-02 5.370254999999999335e-01 -3.582350000000000811e-01 4.237610000000000099e+01 1.517420000000000073e+03
4.000000000000000083e-02 5.365969999999999906e-01 -7.242000000000001769e-01 4.029860000000000042e+01 1.516809999999999945e+03
4.100000000000000172e-02 5.362804999999999378e-01 -8.962550000000000239e-01 3.871094999999999686e+01 1.516315000000000055e+03
4.200000000000000261e-02 5.360795000000000421e-01 -8.627049999999998331e-01 3.765509999999999735e+01 1.515949999999999818e+03
4.300000000000000350e-02 5.359920000000000240e-01 -6.224000000000000643e-01 3.714489999999999981e+01 1.515724999999999909e+03
4.400000000000000439e-02 5.360150000000000192e-01 -1.800390000000000046e-01 3.717229999999999990e+01 1.515640000000000100e+03
4.499999999999999833e-02 5.361420000000000075e-01 4.576850000000000085e-01 3.771505000000000507e+01 1.515695000000000164e+03
4.599999999999999922e-02 5.363679999999999559e-01 1.284355000000000135e+00 3.874300000000000210e+01 1.515889999999999873e+03
4.700000000000000011e-02 5.366865000000000663e-01 2.294229999999999769e+00 4.022259999999999991e+01 1.516200000000000045e+03
4.800000000000000100e-02 5.370924999999999727e-01 3.481184999999999974e+00 4.211889999999999645e+01 1.516639999999999873e+03
4.900000000000000189e-02 5.375784999999999592e-01 4.836744999999999628e+00 4.439544999999999675e+01 1.517184999999999945e+03
5.000000000000000278e-02 5.381365000000000176e-01 6.348075000000000578e+00 4.701294999999999646e+01 1.517824999999999818e+03
5.100000000000000366e-02 5.387579999999999592e-01 7.996733500000000383e+00 4.992770000000000152e+01 1.518555000000000064e+03
5.200000000000000455e-02 5.394299999999999651e-01 9.758219999999999672e+00 5.309065000000000367e+01 1.519365000000000009e+03
5.300000000000000544e-02 5.401415000000000521e-01 1.160289500000000018e+01 5.644760000000000133e+01 1.520239999999999782e+03
5.399999999999999939e-02 5.408775000000000110e-01 1.349752499999999955e+01 5.994065000000000509e+01 1.521160000000000082e+03
5.500000000000000028e-02 5.416269999999999696e-01 1.540769499999999859e+01 6.351069999999999993e+01 1.522110000000000127e+03
5.600000000000000117e-02 5.423759999999999692e-01 1.730012999999999934e+01 6.710049999999999670e+01 1.523079999999999927e+03
5.700000000000000205e-02 5.431144999999999445e-01 1.914470000000000027e+01 7.065789999999999793e+01 1.524059999999999945e+03
5.800000000000000294e-02 5.438344999999999985e-01 2.091639999999999944e+01 7.413875000000000171e+01 1.525025000000000091e+03
5.900000000000000383e-02 5.445299999999999585e-01 2.259600000000000009e+01 7.750880000000000791e+01 1.525974999999999909e+03
6.000000000000000472e-02 5.451969999999999317e-01 2.417049999999999699e+01 8.074504999999999200e+01 1.526900000000000091e+03
6.099999999999999867e-02 5.458355000000000290e-01 2.563304999999999723e+01 8.383564999999998690e+01 1.527789999999999964e+03
6.199999999999999956e-02 5.464454999999999174e-01 2.698219999999999885e+01 8.677944999999999709e+01 1.528650000000000091e+03
6.300000000000000044e-02 5.470304999999999751e-01 2.822109999999999985e+01 8.958445000000000391e+01 1.529474999999999909e+03
6.400000000000000133e-02 5.475934999999999553e-01 2.935630000000000095e+01 9.226579999999999870e+01 1.530269999999999982e+03
6.500000000000000222e-02 5.481395000000000017e-01 3.039710000000000178e+01 9.484440000000000737e+01 1.531034999999999854e+03
6.600000000000000311e-02 5.486744999999999539e-01 3.135430000000000206e+01 9.734449999999999648e+01 1.531779999999999973e+03
6.700000000000000400e-02 5.492019999999999680e-01 3.223975000000000080e+01 9.979059999999999775e+01 1.532514999999999873e+03
6.800000000000000488e-02 5.497279999999999944e-01 3.306494999999999607e+01 1.022074499999999944e+02 1.533230000000000018e+03
6.900000000000000577e-02 5.502560000000000784e-01 3.384080000000000155e+01 1.046167499999999961e+02 1.533944999999999936e+03
7.000000000000000666e-02 5.507900000000000018e-01 3.457675000000000409e+01 1.070364999999999895e+02 1.534664999999999964e+03
7.100000000000000755e-02 5.513304999999999456e-01 3.527994999999999948e+01 1.094800000000000040e+02 1.535384999999999991e+03
7.200000000000000844e-02 5.518794999999999673e-01 3.595490000000000208e+01 1.119525000000000006e+02 1.536105000000000018e+03
7.300000000000000933e-02 5.524344999999999395e-01 3.660314999999999941e+01 1.144539999999999935e+02 1.536840000000000146e+03
7.399999999999999634e-02 5.529945000000000555e-01 3.722325000000000017e+01 1.169770000000000039e+02 1.537574999999999818e+03
7.499999999999999722e-02 5.535550000000000193e-01 3.781074999999999875e+01 1.195060000000000002e+02 1.538315000000000055e+03
7.599999999999999811e-02 5.541110000000000202e-01 3.835885000000000389e+01 1.220219999999999914e+02 1.539050000000000182e+03
7.699999999999999900e-02 5.546575000000000255e-01 3.885885000000000389e+01 1.245005000000000024e+02 1.539775000000000091e+03
7.799999999999999989e-02 5.551880000000000148e-01 3.930079999999999529e+01 1.269134999999999991e+02 1.540485000000000127e+03
7.900000000000000078e-02 5.556965000000000376e-01 3.967449999999999477e+01 1.292334999999999923e+02 1.541175000000000182e+03
8.000000000000000167e-02 5.561770000000000325e-01 3.996994999999999720e+01 1.314314999999999998e+02 1.541835000000000036e+03
8.100000000000000255e-02 5.566245000000000775e-01 4.017815000000000225e+01 1.334809999999999945e+02 1.542454999999999927e+03
8.200000000000000344e-02 5.570334999999999592e-01 4.029160000000000252e+01 1.353590000000000089e+02 1.543034999999999854e+03
8.300000000000000433e-02 5.574014999999999942e-01 4.030480000000000018e+01 1.370480000000000018e+02 1.543559999999999945e+03
8.400000000000000522e-02 5.577254999999999852e-01 4.021420000000000528e+01 1.385330000000000155e+02 1.544029999999999973e+03
8.500000000000000611e-02 5.580045000000000144e-01 4.001895000000000380e+01 1.398064999999999998e+02 1.544450000000000045e+03
8.600000000000000699e-02 5.582380000000000120e-01 3.972034999999999627e+01 1.408665000000000020e+02 1.544804999999999836e+03
8.700000000000000788e-02 5.584270000000000067e-01 3.932224999999999682e+01 1.417144999999999868e+02 1.545099999999999909e+03
8.800000000000000877e-02 5.585740000000000149e-01 3.883060000000000400e+01 1.423589999999999804e+02 1.545345000000000027e+03
8.899999999999999578e-02 5.586809999999999832e-01 3.825360000000000582e+01 1.428129999999999882e+02 1.545525000000000091e+03
8.999999999999999667e-02 5.587520000000000264e-01 3.760089999999999577e+01 1.430925000000000011e+02 1.545660000000000082e+03
9.099999999999999756e-02 5.587914999999999965e-01 3.688394999999999868e+01 1.432179999999999893e+02 1.545744999999999891e+03
9.199999999999999845e-02 5.588035000000000085e-01 3.611489999999999867e+01 1.432104999999999961e+02 1.545789999999999964e+03
9.299999999999999933e-02 5.587944999999999718e-01 3.530679999999999552e+01 1.430939999999999941e+02 1.545805000000000064e+03
9.400000000000000022e-02 5.587674999999999725e-01 3.447270000000000323e+01 1.428930000000000007e+02 1.545784999999999854e+03
9.500000000000000111e-02 5.587290000000000312e-01 3.362545000000000073e+01 1.426305000000000121e+02 1.545740000000000009e+03
9.600000000000000200e-02 5.586820000000000119e-01 3.277720000000000056e+01 1.423294999999999959e+02 1.545679999999999836e+03
9.700000000000000289e-02 5.586324999999999763e-01 3.193884999999999863e+01 1.420095000000000027e+02 1.545610000000000127e+03
9.800000000000000377e-02 5.585814999999999531e-01 3.111995000000000289e+01 1.416895000000000095e+02 1.545539999999999964e+03
9.900000000000000466e-02 5.585345000000000448e-01 3.032795000000000130e+01 1.413829999999999814e+02 1.545460000000000036e+03
1.000000000000000056e-01 5.584914999999999186e-01 2.956844999999999857e+01 1.411009999999999991e+02 1.545384999999999991e+03
1.010000000000000064e-01 5.584545000000000758e-01 2.884495000000000076e+01 1.408499999999999943e+02 1.545315000000000055e+03
1.020000000000000073e-01 5.584230000000000027e-01 2.815859999999999985e+01 1.406334999999999980e+02 1.545255000000000109e+03
1.030000000000000082e-01 5.583970000000000322e-01 2.750854999999999961e+01 1.404499999999999886e+02 1.545200000000000045e+03
1.040000000000000091e-01 5.583754999999999136e-01 2.689205000000000112e+01 1.402939999999999827e+02 1.545150000000000091e+03
1.050000000000000100e-01 5.583569999999999922e-01 2.630489999999999995e+01 1.401599999999999966e+02 1.545099999999999909e+03
1.059999999999999970e-01 5.583375000000000421e-01 2.574134999999999707e+01 1.400364999999999895e+02 1.545065000000000055e+03
1.069999999999999979e-01 5.583164999999999933e-01 2.519490000000000052e+01 1.399125000000000227e+02 1.545025000000000091e+03
1.079999999999999988e-01 5.582905000000000229e-01 2.465845000000000198e+01 1.397750000000000057e+02 1.544974999999999909e+03
1.089999999999999997e-01 5.582570000000000032e-01 2.412464999999999904e+01 1.396120000000000232e+02 1.544924999999999955e+03
1.100000000000000006e-01 5.582130000000000702e-01 2.358650000000000091e+01 1.394095000000000084e+02 1.544865000000000009e+03
1.110000000000000014e-01 5.581570000000000142e-01 2.303734999999999999e+01 1.391574999999999989e+02 1.544795000000000073e+03
1.120000000000000023e-01 5.580869999999999997e-01 2.247165000000000035e+01 1.388449999999999989e+02 1.544715000000000146e+03
1.130000000000000032e-01 5.580015000000000391e-01 2.188485000000000014e+01 1.384660000000000082e+02 1.544610000000000127e+03
1.140000000000000041e-01 5.578999999999999515e-01 2.127369999999999806e+01 1.380140000000000100e+02 1.544490000000000009e+03
1.150000000000000050e-01 5.577820000000000000e-01 2.063660000000000139e+01 1.374879999999999995e+02 1.544349999999999909e+03
1.160000000000000059e-01 5.576484999999999914e-01 1.997350000000000136e+01 1.368880000000000052e+02 1.544190000000000055e+03
1.170000000000000068e-01 5.574999999999999956e-01 1.928590000000000160e+01 1.362189999999999941e+02 1.544009999999999991e+03
1.180000000000000077e-01 5.573384999999999589e-01 1.857700000000000173e+01 1.354859999999999900e+02 1.543809999999999945e+03
1.190000000000000085e-01 5.571665000000000090e-01 1.785139999999999816e+01 1.347005000000000052e+02 1.543599999999999909e+03
1.200000000000000094e-01 5.569864999999999400e-01 1.711495000000000033e+01 1.338725000000000023e+02 1.543375000000000000e+03
1.209999999999999964e-01 5.568015000000000603e-01 1.637460000000000093e+01 1.330160000000000196e+02 1.543139999999999873e+03
1.219999999999999973e-01 5.566149999999999709e-01 1.563824999999999932e+01 1.321459999999999866e+02 1.542900000000000091e+03
1.229999999999999982e-01 5.564299999999999802e-01 1.491406499999999902e+01 1.312785000000000082e+02 1.542654999999999973e+03
1.239999999999999991e-01 5.562504999999999811e-01 1.421042999999999878e+01 1.304284999999999854e+02 1.542414999999999964e+03
1.250000000000000000e-01 5.560789999999999900e-01 1.353555499999999867e+01 1.296120000000000232e+02 1.542184999999999945e+03
1.260000000000000009e-01 5.559184999999999821e-01 1.289716500000000110e+01 1.288435000000000059e+02 1.541960000000000036e+03
1.270000000000000018e-01 5.557725000000000026e-01 1.230220999999999876e+01 1.281355000000000075e+02 1.541750000000000000e+03
1.280000000000000027e-01 5.556419999999999693e-01 1.175658499999999940e+01 1.274989999999999952e+02 1.541559999999999945e+03
1.290000000000000036e-01 5.555295000000000094e-01 1.126477500000000020e+01 1.269420000000000073e+02 1.541389999999999873e+03
1.300000000000000044e-01 5.554350000000000120e-01 1.083006499999999939e+01 1.264699999999999989e+02 1.541240000000000009e+03
1.310000000000000053e-01 5.553589999999999360e-01 1.045394999999999897e+01 1.260859999999999985e+02 1.541110000000000127e+03
1.320000000000000062e-01 5.553019999999999623e-01 1.013670499999999919e+01 1.257899999999999920e+02 1.541005000000000109e+03
1.330000000000000071e-01 5.552624999999999922e-01 9.876829999999999998e+00 1.255794999999999959e+02 1.540925000000000182e+03
1.340000000000000080e-01 5.552394999999999969e-01 9.671709999999999141e+00 1.254489999999999981e+02 1.540865000000000009e+03
1.350000000000000089e-01 5.552304999999999602e-01 9.517310000000000159e+00 1.253909999999999911e+02 1.540824999999999818e+03
1.360000000000000098e-01 5.552344999999999642e-01 9.408815000000000595e+00 1.253965000000000032e+02 1.540809999999999945e+03
1.370000000000000107e-01 5.552485000000000337e-01 9.340489999999999071e+00 1.254544999999999959e+02 1.540799999999999955e+03
1.380000000000000115e-01 5.552705000000000002e-01 9.306110000000000326e+00 1.255550000000000068e+02 1.540815000000000055e+03
1.390000000000000124e-01 5.552974999999999994e-01 9.299284999999999357e+00 1.256850000000000023e+02 1.540835000000000036e+03
1.400000000000000133e-01 5.553280000000000438e-01 9.313499999999999446e+00 1.258349999999999937e+02 1.540860000000000127e+03
1.410000000000000142e-01 5.553590000000000471e-01 9.342504999999999171e+00 1.259925000000000068e+02 1.540894999999999982e+03
1.420000000000000151e-01 5.553894999999999804e-01 9.380435000000000301e+00 1.261494999999999891e+02 1.540930000000000064e+03
1.430000000000000160e-01 5.554170000000000496e-01 9.421894999999999243e+00 1.262965000000000089e+02 1.540965000000000146e+03
1.440000000000000169e-01 5.554405000000000037e-01 9.462205000000000865e+00 1.264269999999999925e+02 1.540994999999999891e+03
1.450000000000000178e-01 5.554594999999999949e-01 9.497475000000001444e+00 1.265354999999999990e+02 1.541019999999999982e+03
1.459999999999999909e-01 5.554725000000000357e-01 9.524585000000000079e+00 1.266179999999999950e+02 1.541045000000000073e+03
1.469999999999999918e-01 5.554795000000000149e-01 9.541229999999998768e+00 1.266730000000000018e+02 1.541059999999999945e+03
1.479999999999999927e-01 5.554810000000000025e-01 9.545909999999999229e+00 1.266989999999999981e+02 1.541070000000000164e+03
1.489999999999999936e-01 5.554764999999999286e-01 9.537860000000000227e+00 1.266970000000000027e+02 1.541075000000000045e+03
1.499999999999999944e-01 5.554669999999999330e-01 9.517155000000000697e+00 1.266684999999999945e+02 1.541065000000000055e+03
1.509999999999999953e-01 5.554529999999999745e-01 9.484310000000000684e+00 1.266169999999999902e+02 1.541054999999999836e+03
1.519999999999999962e-01 5.554354999999999709e-01 9.440539999999998599e+00 1.265455000000000041e+02 1.541039999999999964e+03
1.529999999999999971e-01 5.554149999999999920e-01 9.387480000000000047e+00 1.264594999999999914e+02 1.541019999999999982e+03
1.539999999999999980e-01 5.553924999999999557e-01 9.326964999999999506e+00 1.263619999999999948e+02 1.541000000000000000e+03
1.549999999999999989e-01 5.553700000000000303e-01 9.261174999999999713e+00 1.262584999999999980e+02 1.540970000000000027e+03
1.559999999999999998e-01 5.553474999999999939e-01 9.192429999999999879e+00 1.261529999999999916e+02 1.540944999999999936e+03
1.570000000000000007e-01 5.553254999999999164e-01 9.122790000000000177e+00 1.260499999999999972e+02 1.540920000000000073e+03
1.580000000000000016e-01 5.553055000000000074e-01 9.054515000000000313e+00 1.259530000000000030e+02 1.540889999999999873e+03
1.590000000000000024e-01 5.552884999999999627e-01 8.989340000000000330e+00 1.258665000000000020e+02 1.540865000000000009e+03
