# t [s], A [cm^2], U [cm/s], P [cPa], c [cm/s]
1.000000000000000021e-03 2.136260000000000103e-01 3.426975999999999911e-01 9.972454999999999359e+01 2.248690000000000055e+03
2.000000000000000042e-03 2.135529999999999928e-01 1.961349499999999857e+00 9.590685000000000571e+01 2.248099999999999909e+03
3.000000000000000062e-03 2.133784999999999987e-01 3.975175999999999821e+00 9.050739999999998986e+01 2.246739999999999782e+03
4.000000000000000083e-03 2.131549999999999834e-01 6.263245999999999647e+00 8.485089999999999577e+01 2.245024999999999636e+03
5.000000000000000104e-03 2.129305000000000225e-01 8.701879999999999171e+00 8.006444999999999368e+01 2.243315000000000055e+03
6.000000000000000125e-03 2.127235000000000098e-01 1.099658499999999961e+01 7.625405000000000655e+01 2.241760000000000218e+03
7.000000000000000146e-03 2.125334999999999863e-01 1.289241000000000170e+01 7.292955000000000609e+01 2.240375000000000000e+03
8.000000000000000167e-03 2.123670000000000002e-01 1.439360000000000106e+01 7.000750000000000739e+01 2.239189999999999600e+03
9.000000000000001055e-03 2.122310000000000030e-01 1.557295000000000051e+01 6.766625000000000512e+01 2.238220000000000255e+03
1.000000000000000194e-02 2.121240000000000070e-01 1.646274999999999977e+01 6.591505000000000791e+01 2.237474999999999909e+03
1.099999999999999936e-02 2.120444999999999969e-01 1.709769999999999968e+01 6.469055000000000177e+01 2.236934999999999945e+03
1.200000000000000025e-02 2.119880000000000098e-01 1.749145000000000039e+01 6.386475000000000080e+01 2.236555000000000291e+03
1.300000000000000114e-02 2.119455000000000089e-01 1.764434999999999931e+01 6.321925000000000239e+01 2.236279999999999745e+03
1.400000000000000203e-02 2.119134999999999769e-01 1.764419999999999789e+01 6.271679999999999922e+01 2.236085000000000036e+03
1.499999999999999944e-02 2.119010000000000060e-01 1.770805000000000007e+01 6.275329999999999586e+01 2.236019999999999982e+03
1.600000000000000033e-02 2.119269999999999765e-01 1.807150000000000034e+01 6.396394999999999698e+01 2.236204999999999927e+03
1.700000000000000122e-02 2.120025000000000104e-01 1.882350000000000279e+01 6.670664999999999623e+01 2.236739999999999782e+03
1.800000000000000211e-02 2.121234999999999926e-01 1.982985000000000042e+01 7.068189999999999884e+01 2.237599999999999909e+03
1.900000000000000300e-02 2.122680000000000122e-01 2.079285000000000139e+01 7.497270000000000323e+01 2.238640000000000327e+03
2.000000000000000042e-02 2.124024999999999941e-01 2.139505000000000123e+01 7.844370000000000687e+01 2.239625000000000000e+03
2.100000000000000130e-02 2.124964999999999771e-01 2.143999999999999773e+01 8.023964999999999748e+01 2.240335000000000036e+03
2.200000000000000219e-02 2.125350000000000017e-01 2.092370000000000019e+01 8.012279999999999802e+01 2.240655000000000200e+03
2.299999999999999961e-02 2.125205000000000011e-01 2.001299999999999812e+01 7.850780000000000314e+01 2.240585000000000036e+03
2.400000000000000050e-02 2.124719999999999942e-01 1.895270000000000010e+01 7.621004999999999541e+01 2.240260000000000218e+03
2.500000000000000139e-02 2.124115000000000031e-01 1.795490000000000208e+01 7.405955000000000155e+01 2.239835000000000036e+03
2.600000000000000228e-02 2.123595000000000066e-01 1.712134999999999962e+01 7.257150000000000034e+01 2.239449999999999818e+03
2.700000000000000316e-02 2.123234999999999983e-01 1.642664999999999864e+01 7.180439999999998690e+01 2.239179999999999836e+03
2.800000000000000058e-02 2.122999999999999887e-01 1.575594999999999857e+01 7.142799999999999727e+01 2.239000000000000000e+03
2.900000000000000147e-02 2.122775000000000079e-01 1.497360000000000113e+01 7.093659999999999854e+01 2.238840000000000146e+03
3.000000000000000236e-02 2.122425000000000006e-01 1.399334999999999951e+01 6.990590000000000259e+01 2.238595000000000255e+03
3.099999999999999978e-02 2.121889999999999887e-01 1.282574999999999932e+01 6.819700000000000273e+01 2.238225000000000364e+03
3.200000000000000067e-02 2.121190000000000020e-01 1.158562000000000047e+01 6.603700000000000614e+01 2.237724999999999909e+03
3.300000000000000155e-02 2.120444999999999969e-01 1.045786000000000016e+01 6.395005000000000450e+01 2.237194999999999709e+03
3.400000000000000244e-02 2.119844999999999924e-01 9.635529999999999262e+00 6.256864999999999810e+01 2.236760000000000218e+03
3.500000000000000333e-02 2.119575000000000209e-01 9.254464999999999719e+00 6.240474999999999994e+01 2.236534999999999854e+03
3.600000000000000422e-02 2.119734999999999814e-01 9.349624999999999631e+00 6.366910000000000025e+01 2.236625000000000000e+03
3.700000000000000511e-02 2.120345000000000146e-01 9.845150000000000290e+00 6.619935000000000969e+01 2.237029999999999745e+03
3.799999999999999906e-02 2.121290000000000120e-01 1.057702000000000098e+01 6.950710000000000832e+01 2.237690000000000055e+03
3.899999999999999994e-02 2.122404999999999986e-01 1.133553500000000014e+01 7.291245000000000687e+01 2.238474999999999909e+03
4.000000000000000083e-02 2.123459999999999792e-01 1.191329999999999956e+01 7.571324999999998795e+01 2.239234999999999673e+03
4.100000000000000172e-02 2.124240000000000017e-01 1.214484999999999992e+01 7.733740000000000236e+01 2.239815000000000055e+03
4.200000000000000261e-02 2.124599999999999822e-01 1.193050000000000033e+01 7.744315000000000282e+01 2.240090000000000146e+03
4.300000000000000350e-02 2.124440000000000217e-01 1.124231999999999942e+01 7.595130000000000337e+01 2.240000000000000000e+03
4.400000000000000439e-02 2.123760000000000092e-01 1.011390000000000100e+01 7.301474999999999227e+01 2.239534999999999854e+03
4.499999999999999833e-02 2.122614999999999919e-01 8.621169999999999334e+00 6.894474999999999909e+01 2.238730000000000018e+03
4.599999999999999922e-02 2.121109999999999940e-01 6.860685000000000144e+00 6.412250000000000227e+01 2.237664999999999964e+03
4.700000000000000011e-02 2.119364999999999999e-01 4.931775499999999646e+00 5.892275000000000063e+01 2.236420000000000073e+03
4.800000000000000100e-02 2.117479999999999918e-01 2.926285000000000025e+00 5.366460000000000008e+01 2.235069999999999709e+03
4.900000000000000189e-02 2.115575000000000094e-01 9.254000000000002224e-01 4.859494999999999720e+01 2.233694999999999709e+03
5.000000000000000278e-02 2.113730000000000053e-01 -9.980700000000002348e-01 4.389804999999999779e+01 2.232364999999999782e+03
5.100000000000000366e-02 2.112005000000000132e-01 -2.775372500000000020e+00 3.971809999999999974e+01 2.231114999999999782e+03
5.200000000000000455e-02 2.110469999999999846e-01 -4.338174999999999670e+00 3.618334999999999724e+01 2.230000000000000000e+03
5.300000000000000544e-02 2.109175000000000078e-01 -5.617615000000000691e+00 3.342229999999999990e+01 2.229055000000000291e+03
5.399999999999999939e-02 2.108180000000000054e-01 -6.546574999999999811e+00 3.156684999999999874e+01 2.228319999999999709e+03
5.500000000000000028e-02 2.107534999999999825e-01 -7.064659999999999940e+00 3.074354999999999905e+01 2.227829999999999927e+03
5.600000000000000117e-02 2.107284999999999853e-01 -7.124454999999999316e+00 3.105669999999999931e+01 2.227614999999999782e+03
5.700000000000000205e-02 2.107459999999999889e-01 -6.697470000000000034e+00 3.256959999999999411e+01 2.227715000000000146e+03
5.800000000000000294e-02 2.108079999999999954e-01 -5.778154999999999930e+00 3.528960000000000008e+01 2.228125000000000000e+03
5.900000000000000383e-02 2.109145000000000048e-01 -4.385264999999999525e+00 3.916094999999999970e+01 2.228855000000000018e+03
6.000000000000000472e-02 2.110630000000000006e-01 -2.560414999999999885e+00 4.406700000000000017e+01 2.229889999999999873e+03
6.099999999999999867e-02 2.112490000000000201e-01 -3.643950000000000244e-01 4.984069999999999823e+01 2.231194999999999709e+03
6.199999999999999956e-02 2.114655000000000007e-01 2.127819999999999823e+00 5.627935000000000088e+01 2.232734999999999673e+03
6.300000000000000044e-02 2.117064999999999919e-01 4.832543499999999881e+00 6.316244999999999976e+01 2.234449999999999818e+03
6.400000000000000133e-02 2.119630000000000125e-01 7.662654999999999106e+00 7.026765000000000327e+01 2.236295000000000073e+03
6.500000000000000222e-02 2.122275000000000134e-01 1.053239499999999929e+01 7.738474999999999682e+01 2.238199999999999818e+03
6.600000000000000311e-02 2.124935000000000018e-01 1.336180500000000038e+01 8.432739999999999725e+01 2.240130000000000109e+03
6.700000000000000400e-02 2.127530000000000254e-01 1.608070000000000022e+01 9.094249999999999545e+01 2.242019999999999982e+03
6.800000000000000488e-02 2.130019999999999969e-01 1.863199999999999790e+01 9.711764999999999759e+01 2.243840000000000146e+03
6.900000000000000577e-02 2.132355000000000222e-01 2.097465000000000046e+01 1.027854499999999973e+02 2.245554999999999836e+03
7.000000000000000666e-02 2.134524999999999895e-01 2.308504999999999896e+01 1.079275499999999965e+02 2.247159999999999854e+03
7.100000000000000755e-02 2.136514999999999942e-01 2.495704999999999885e+01 1.125695000000000050e+02 2.248635000000000218e+03
7.200000000000000844e-02 2.138339999999999963e-01 2.660065000000000168e+01 1.167775000000000034e+02 2.249989999999999782e+03
7.300000000000000933e-02 2.140024999999999844e-01 2.803929999999999723e+01 1.206490000000000009e+02 2.251244999999999891e+03
7.399999999999999634e-02 2.141605000000000036e-01 2.930539999999999878e+01 1.242955000000000041e+02 2.252425000000000182e+03
7.499999999999999722e-02 2.143105000000000149e-01 3.043639999999999901e+01 1.278335000000000008e+02 2.253550000000000182e+03
7.599999999999999811e-02 2.144584999999999964e-01 3.146969999999999956e+01 1.313704999999999927e+02 2.254644999999999982e+03
7.699999999999999900e-02 2.146055000000000046e-01 3.243894999999999840e+01 1.349895000000000209e+02 2.255750000000000000e+03
7.799999999999999989e-02 2.147560000000000024e-01 3.337075000000000102e+01 1.387484999999999786e+02 2.256864999999999782e+03
7.900000000000000078e-02 2.149105000000000043e-01 3.428244999999999720e+01 1.426700000000000159e+02 2.258010000000000218e+03
8.000000000000000167e-02 2.150704999999999978e-01 3.518139999999999645e+01 1.467439999999999998e+02 2.259199999999999818e+03
8.100000000000000255e-02 2.152344999999999953e-01 3.606490000000000151e+01 1.509304999999999950e+02 2.260414999999999964e+03
8.200000000000000344e-02 2.154014999999999957e-01 3.692135000000000389e+01 1.551655000000000086e+02 2.261650000000000091e+03
8.300000000000000433e-02 2.155684999999999962e-01 3.773189999999999600e+01 1.593654999999999973e+02 2.262889999999999873e+03
8.400000000000000522e-02 2.157324999999999937e-01 3.847249999999999659e+01 1.634399999999999977e+02 2.264114999999999782e+03
8.500000000000000611e-02 2.158915000000000139e-01 3.911639999999999873e+01 1.672944999999999993e+02 2.265295000000000073e+03
8.600000000000000699e-02 2.160404999999999964e-01 3.963620000000000232e+01 1.708389999999999986e+02 2.266409999999999854e+03
8.700000000000000788e-02 2.161774999999999947e-01 4.000615000000000521e+01 1.739939999999999998e+02 2.267435000000000400e+03
8.800000000000000877e-02 2.162994999999999779e-01 4.020399999999999352e+01 1.766945000000000050e+02 2.268355000000000018e+03
8.899999999999999578e-02 2.164039999999999853e-01 4.021259999999999479e+01 1.788940000000000055e+02 2.269144999999999982e+03
8.999999999999999667e-02 2.164900000000000158e-01 4.002120000000000033e+01 1.805649999999999977e+02 2.269800000000000182e+03
9.099999999999999756e-02 2.165559999999999985e-01 3.962599999999999767e+01 1.817010000000000218e+02 2.270305000000000291e+03
9.199999999999999845e-02 2.166019999999999890e-01 3.903059999999999974e+01 1.823160000000000025e+02 2.270664999999999964e+03
9.299999999999999933e-02 2.166285000000000016e-01 3.824600000000000222e+01 1.824435000000000002e+02 2.270880000000000109e+03
9.400000000000000022e-02 2.166374999999999829e-01 3.728974999999999795e+01 1.821315000000000168e+02 2.270960000000000036e+03
9.500000000000000111e-02 2.166305000000000036e-01 3.618524999999999636e+01 1.814429999999999836e+02 2.270920000000000073e+03
9.600000000000000200e-02 2.166089999999999960e-01 3.496009999999999707e+01 1.804490000000000123e+02 2.270779999999999745e+03
9.700000000000000289e-02 2.165765000000000051e-01 3.364489999999999981e+01 1.792270000000000039e+02 2.270550000000000182e+03
9.800000000000000377e-02 2.165350000000000052e-01 3.227174999999999727e+01 1.778534999999999968e+02 2.270250000000000000e+03
9.900000000000000466e-02 2.164880000000000138e-01 3.087225000000000108e+01 1.764025000000000034e+02 2.269909999999999854e+03
1.000000000000000056e-01 2.164379999999999915e-01 2.947664999999999935e+01 1.749435000000000002e+02 2.269539999999999964e+03
1.010000000000000064e-01 2.163869999999999960e-01 2.811234999999999928e+01 1.735355000000000132e+02 2.269164999999999964e+03
1.020000000000000073e-01 2.163374999999999881e-01 2.680284999999999940e+01 1.722264999999999873e+02 2.268795000000000073e+03
1.030000000000000082e-01 2.162910000000000110e-01 2.556690000000000040e+01 1.710540000000000020e+02 2.268444999999999709e+03
1.040000000000000091e-01 2.162494999999999834e-01 2.441779999999999973e+01 1.700395000000000039e+02 2.268135000000000218e+03
1.050000000000000100e-01 2.162124999999999742e-01 2.336319999999999908e+01 1.691924999999999955e+02 2.267850000000000364e+03
1.059999999999999970e-01 2.161814999999999987e-01 2.240474999999999994e+01 1.685070000000000050e+02 2.267610000000000127e+03
1.069999999999999979e-01 2.161555000000000004e-01 2.153855000000000075e+01 1.679655000000000200e+02 2.267409999999999854e+03
1.079999999999999988e-01 2.161339999999999928e-01 2.075529999999999831e+01 1.675370000000000061e+02 2.267239999999999782e+03
1.089999999999999997e-01 2.161160000000000025e-01 2.004135000000000133e+01 1.671814999999999998e+02 2.267099999999999909e+03
1.100000000000000006e-01 2.161000000000000143e-01 1.937959999999999994e+01 1.668530000000000086e+02 2.266974999999999909e+03
1.110000000000000014e-01 2.160845000000000127e-01 1.875054999999999694e+01 1.664995000000000118e+02 2.266855000000000018e+03
1.120000000000000023e-01 2.160674999999999957e-01 1.813394999999999868e+01 1.660709999999999980e+02 2.266724999999999909e+03
1.130000000000000032e-01 2.160475000000000034e-01 1.750999999999999801e+01 1.655190000000000055e+02 2.266574999999999818e+03
1.140000000000000041e-01 2.160225000000000062e-01 1.686074999999999946e+01 1.648020000000000209e+02 2.266385000000000218e+03
1.150000000000000050e-01 2.159920000000000173e-01 1.617115000000000080e+01 1.638884999999999934e+02 2.266154999999999745e+03
1.160000000000000059e-01 2.159530000000000061e-01 1.543040000000000056e+01 1.627580000000000098e+02 2.265869999999999891e+03
1.170000000000000068e-01 2.159070000000000156e-01 1.463240000000000052e+01 1.614039999999999964e+02 2.265529999999999745e+03
1.180000000000000077e-01 2.158525000000000027e-01 1.377619999999999933e+01 1.598329999999999984e+02 2.265135000000000218e+03
1.190000000000000085e-01 2.157910000000000106e-01 1.286635000000000062e+01 1.580659999999999741e+02 2.264675000000000182e+03
1.200000000000000094e-01 2.157215000000000105e-01 1.191201500000000024e+01 1.561370000000000005e+02 2.264164999999999964e+03
1.209999999999999964e-01 2.156474999999999920e-01 1.092705000000000126e+01 1.540889999999999986e+02 2.263619999999999891e+03
1.219999999999999973e-01 2.155684999999999962e-01 9.928549999999999542e+00 1.519739999999999895e+02 2.263039999999999964e+03
1.229999999999999982e-01 2.154880000000000129e-01 8.936135000000000161e+00 1.498474999999999966e+02 2.262445000000000164e+03
1.239999999999999991e-01 2.154079999999999884e-01 7.970274999999999999e+00 1.477649999999999864e+02 2.261855000000000018e+03
1.250000000000000000e-01 2.153289999999999926e-01 7.051504999999999690e+00 1.457830000000000155e+02 2.261264999999999873e+03
1.260000000000000009e-01 2.152545000000000153e-01 6.198835000000000761e+00 1.439479999999999791e+02 2.260710000000000036e+03
1.270000000000000018e-01 2.151850000000000152e-01 5.428879999999999484e+00 1.423015000000000043e+02 2.260194999999999709e+03
1.280000000000000027e-01 2.151224999999999943e-01 4.754945000000000199e+00 1.408745000000000118e+02 2.259730000000000018e+03
1.290000000000000036e-01 2.150684999999999958e-01 4.186424999999999841e+00 1.396865000000000236e+02 2.259320000000000164e+03
1.300000000000000044e-01 2.150225000000000053e-01 3.728460000000000107e+00 1.387450000000000045e+02 2.258974999999999909e+03
1.310000000000000053e-01 2.149860000000000104e-01 3.381850000000000023e+00 1.380475000000000136e+02 2.258694999999999709e+03
1.320000000000000062e-01 2.149579999999999824e-01 3.143245000000000289e+00 1.375805000000000007e+02 2.258475000000000364e+03
1.330000000000000071e-01 2.149385000000000046e-01 3.005494999999999806e+00 1.373220000000000027e+02 2.258324999999999818e+03
1.340000000000000080e-01 2.149265000000000203e-01 2.958229999999999915e+00 1.372429999999999950e+02 2.258230000000000018e+03
1.350000000000000089e-01 2.149210000000000009e-01 2.988490000000000091e+00 1.373085000000000093e+02 2.258180000000000291e+03
1.360000000000000098e-01 2.149205000000000143e-01 3.081450000000000244e+00 1.374825000000000159e+02 2.258170000000000073e+03
1.370000000000000107e-01 2.149240000000000039e-01 3.221200000000000063e+00 1.377249999999999943e+02 2.258190000000000055e+03
1.380000000000000115e-01 2.149304999999999966e-01 3.391434999999999977e+00 1.379989999999999952e+02 2.258230000000000018e+03
1.390000000000000124e-01 2.149380000000000179e-01 3.576170000000000293e+00 1.382685000000000173e+02 2.258279999999999745e+03
1.400000000000000133e-01 2.149455000000000116e-01 3.760349999999999859e+00 1.385009999999999764e+02 2.258335000000000036e+03
1.410000000000000142e-01 2.149515000000000176e-01 3.930390000000000050e+00 1.386689999999999827e+02 2.258375000000000000e+03
1.420000000000000151e-01 2.149550000000000072e-01 4.074584999999999901e+00 1.387500000000000000e+02 2.258404999999999745e+03
1.430000000000000160e-01 2.149564999999999948e-01 4.183494999999999742e+00 1.387264999999999873e+02 2.258414999999999964e+03
1.440000000000000169e-01 2.149535000000000196e-01 4.250164999999999971e+00 1.385875000000000057e+02 2.258394999999999982e+03
1.450000000000000178e-01 2.149469999999999992e-01 4.270235000000000447e+00 1.383294999999999959e+02 2.258345000000000255e+03
1.459999999999999909e-01 2.149355000000000016e-01 4.241965000000000430e+00 1.379524999999999864e+02 2.258264999999999873e+03
1.469999999999999918e-01 2.149199999999999999e-01 4.166100000000000136e+00 1.374639999999999986e+02 2.258155000000000200e+03
1.479999999999999927e-01 2.149010000000000087e-01 4.045685000000000642e+00 1.368754999999999882e+02 2.258015000000000327e+03
1.489999999999999936e-01 2.148780000000000134e-01 3.885689999999999866e+00 1.362019999999999982e+02 2.257855000000000018e+03
1.499999999999999944e-01 2.148525000000000018e-01 3.692604999999999915e+00 1.354615000000000009e+02 2.257664999999999964e+03
1.509999999999999953e-01 2.148245000000000016e-01 3.473934999999999995e+00 1.346750000000000114e+02 2.257465000000000146e+03
1.519999999999999962e-01 2.147944999999999993e-01 3.237664999999999793e+00 1.338605000000000018e+02 2.257244999999999891e+03
1.529999999999999971e-01 2.147640000000000104e-01 2.991735000000000255e+00 1.330374999999999943e+02 2.257019999999999982e+03
1.539999999999999980e-01 2.147330000000000072e-01 2.743570000000000064e+00 1.322224999999999966e+02 2.256795000000000073e+03
1.549999999999999989e-01 2.147024999999999906e-01 2.499629999999999797e+00 1.314284999999999854e+02 2.256564999999999600e+03
1.559999999999999998e-01 2.146720000000000017e-01 2.265150000000000219e+00 1.306649999999999920e+02 2.256345000000000255e+03
1.570000000000000007e-01 2.146425000000000138e-01 2.043960000000000221e+00 1.299375000000000000e+02 2.256130000000000109e+03
1.580000000000000016e-01 2.146144999999999858e-01 1.838479999999999892e+00 1.292475000000000023e+02 2.255920000000000073e+03
1.590000000000000024e-01 2.145874999999999866e-01 1.649765499999999996e+00 1.285935000000000059e+02 2.255724999999999909e+03
