# t [s], A [cm^2], U [cm/s], P [cPa], c [cm/s]
1.000000000000000021e-03 5.751695000000000002e-01 3.815949999999998510e-03 1.025200000000000102e+02 1.612200000000000045e+03
2.000000000000000042e-03 5.751634999999999387e-01 5.454144999999999653e-03 1.024985000000000070e+02 1.612195000000000164e+03
3.000000000000000062e-03 5.752239999999999576e-01 1.238800999999999930e-01 1.026260000000000048e+02 1.612224999999999909e+03
4.000000000000000083e-03 5.752599999999999936e-01 2.046100999999999892e-01 1.027279999999999944e+02 1.612250000000000000e+03
5.000000000000000104e-03 5.752224999999999699e-01 1.486254999999999937e-01 1.026214999999999975e+02 1.612235000000000127e+03
6.000000000000000125e-03 5.751614999999999922e-01 3.859399999999996167e-02 1.023610000000000042e+02 1.612180000000000064e+03
7.000000000000000146e-03 5.750969999999999693e-01 -8.678049999999998265e-02 1.020074999999999932e+02 1.612105000000000018e+03
8.000000000000000167e-03 5.749840000000000506e-01 -3.198799999999999422e-01 1.014509999999999934e+02 1.611985000000000127e+03
9.000000000000001055e-03 5.748054999999999692e-01 -6.970499999999999474e-01 1.006076999999999941e+02 1.611809999999999945e+03
1.000000000000000194e-02 5.745545000000000790e-01 -1.219535000000000036e+00 9.942844999999999800e+01 1.611549999999999955e+03
1.099999999999999936e-02 5.742129999999999734e-01 -1.905340000000000034e+00 9.784414999999999907e+01 1.611204999999999927e+03
1.200000000000000025e-02 5.737829999999999320e-01 -2.729315000000000158e+00 9.583750000000000568e+01 1.610755000000000109e+03
1.300000000000000114e-02 5.733089999999999575e-01 -3.572570000000000245e+00 9.352459999999999241e+01 1.610220000000000027e+03
1.400000000000000203e-02 5.728594999999999660e-01 -4.261819999999999276e+00 9.114015000000000555e+01 1.609650000000000091e+03
1.499999999999999944e-02 5.724879999999999969e-01 -4.653971499999999928e+00 8.892759999999999820e+01 1.609095000000000027e+03
1.600000000000000033e-02 5.722104999999999553e-01 -4.692639499999999408e+00 8.704285000000000139e+01 1.608585000000000036e+03
1.700000000000000122e-02 5.720064999999999733e-01 -4.413142999999999816e+00 8.551144999999999641e+01 1.608139999999999873e+03
1.800000000000000211e-02 5.718330000000000357e-01 -3.911805000000000199e+00 8.424555000000000859e+01 1.607744999999999891e+03
1.900000000000000300e-02 5.716474999999999751e-01 -3.301897499999999930e+00 8.309569999999999368e+01 1.607375000000000000e+03
2.000000000000000042e-02 5.714179999999999815e-01 -2.673116500000000340e+00 8.191325000000000500e+01 1.607005000000000109e+03
2.100000000000000130e-02 5.711359999999999770e-01 -2.067149999999999821e+00 8.060229999999999961e+01 1.606615000000000009e+03
2.200000000000000219e-02 5.708130000000000148e-01 -1.477025000000000032e+00 7.914135000000000275e+01 1.606199999999999818e+03
2.299999999999999961e-02 5.704719999999999791e-01 -8.680650000000000865e-01 7.757019999999999982e+01 1.605755000000000109e+03
2.400000000000000050e-02 5.701319999999999721e-01 -2.080000000000001847e-01 7.595284999999999798e+01 1.605299999999999955e+03
2.500000000000000139e-02 5.698005000000000431e-01 5.080350000000000144e-01 7.433634999999999593e+01 1.604840000000000146e+03
2.600000000000000228e-02 5.694699999999999207e-01 1.246434999999999960e+00 7.272225000000000250e+01 1.604375000000000000e+03
2.700000000000000316e-02 5.691190000000000415e-01 1.939030000000000031e+00 7.105830000000000268e+01 1.603900000000000091e+03
2.800000000000000058e-02 5.687195000000000444e-01 2.498375000000000234e+00 6.924970000000000425e+01 1.603394999999999982e+03
2.900000000000000147e-02 5.682450000000000001e-01 2.838930000000000398e+00 6.718439999999999657e+01 1.602835000000000036e+03
3.000000000000000236e-02 5.676769999999999872e-01 2.898435000000000095e+00 6.476630000000000109e+01 1.602200000000000045e+03
3.099999999999999978e-02 5.670140000000000180e-01 2.654105000000000381e+00 6.194549999999999557e+01 1.601485000000000127e+03
3.200000000000000067e-02 5.662715000000000387e-01 2.128909999999999858e+00 5.873879999999999768e+01 1.600679999999999836e+03
3.300000000000000155e-02 5.654770000000000074e-01 1.386790000000000411e+00 5.523364999999999725e+01 1.599805000000000064e+03
3.400000000000000244e-02 5.646714999999999929e-01 5.193000000000003169e-01 5.157549999999999812e+01 1.598884999999999991e+03
3.500000000000000333e-02 5.638965000000000227e-01 -3.723000000000000753e-01 4.794464999999999577e+01 1.597960000000000036e+03
3.600000000000000422e-02 5.631889999999999397e-01 -1.193159999999999776e+00 4.452849999999999397e+01 1.597074999999999818e+03
3.700000000000000511e-02 5.625800000000000800e-01 -1.866014999999999979e+00 4.149710000000000321e+01 1.596264999999999873e+03
3.799999999999999906e-02 5.620905000000000484e-01 -2.336684999999999679e+00 3.898599999999999710e+01 1.595559999999999945e+03
3.899999999999999994e-02 5.617315000000000502e-01 -2.573845000000000383e+00 3.708769999999999811e+01 1.595000000000000000e+03
4.000000000000000083e-02 5.615065000000000195e-01 -2.564829500000000095e+00 3.585105000000000075e+01 1.594590000000000146e+03
4.100000000000000172e-02 5.614135000000000097e-01 -2.309763499999999858e+00 3.528725000000000023e+01 1.594345000000000027e+03
4.200000000000000261e-02 5.614474999999999882e-01 -1.815530000000000088e+00 3.537954999999999472e+01 1.594264999999999873e+03
4.300000000000000350e-02 5.615995000000000292e-01 -1.091325000000000101e+00 3.609319999999999595e+01 1.594339999999999918e+03
4.400000000000000439e-02 5.618640000000000301e-01 -1.464650000000000674e-01 3.738369999999999749e+01 1.594575000000000045e+03
4.499999999999999833e-02 5.622309999999999253e-01 1.009405000000000108e+00 3.920244999999999891e+01 1.594940000000000055e+03
4.599999999999999922e-02 5.626919999999999700e-01 2.364454999999999973e+00 4.149779999999999802e+01 1.595445000000000164e+03
4.700000000000000011e-02 5.632375000000000576e-01 3.902229999999999421e+00 4.421505000000000507e+01 1.596059999999999945e+03
4.800000000000000100e-02 5.638545000000000362e-01 5.599779999999999980e+00 4.729434999999999434e+01 1.596780000000000200e+03
4.900000000000000189e-02 5.645295000000000174e-01 7.427009999999999224e+00 5.066974999999999341e+01 1.597590000000000146e+03
5.000000000000000278e-02 5.652469999999999439e-01 9.347220999999999336e+00 5.426924999999999955e+01 1.598465000000000146e+03
5.100000000000000366e-02 5.659905000000000630e-01 1.131965500000000091e+01 5.801655000000000229e+01 1.599389999999999873e+03
5.200000000000000455e-02 5.667440000000000255e-01 1.330189999999999984e+01 6.183459999999999468e+01 1.600355000000000018e+03
5.300000000000000544e-02 5.674924999999999553e-01 1.525335499999999911e+01 6.564965000000000828e+01 1.601325000000000045e+03
5.399999999999999939e-02 5.682234999999999925e-01 1.713807500000000061e+01 6.939605000000000246e+01 1.602299999999999955e+03
5.500000000000000028e-02 5.689279999999999893e-01 1.892670000000000030e+01 7.301959999999999695e+01 1.603255000000000109e+03
5.600000000000000117e-02 5.695989999999999664e-01 2.059805000000000064e+01 7.648095000000000709e+01 1.604184999999999945e+03
5.700000000000000205e-02 5.702344999999999775e-01 2.213915000000000077e+01 7.975634999999999764e+01 1.605074999999999818e+03
5.800000000000000294e-02 5.708329999999999238e-01 2.354504999999999981e+01 8.283799999999999386e+01 1.605924999999999955e+03
5.900000000000000383e-02 5.713989999999999903e-01 2.481784999999999997e+01 8.573239999999999839e+01 1.606730000000000018e+03
6.000000000000000472e-02 5.719359999999999999e-01 2.596529999999999916e+01 8.845814999999998918e+01 1.607494999999999891e+03
6.099999999999999867e-02 5.724510000000000431e-01 2.699950000000000117e+01 9.104325000000000045e+01 1.608235000000000127e+03
6.199999999999999956e-02 5.729499999999999593e-01 2.793549999999999756e+01 9.352185000000000059e+01 1.608940000000000055e+03
6.300000000000000044e-02 5.734414999999999374e-01 2.878995000000000104e+01 9.593090000000000828e+01 1.609625000000000000e+03
6.400000000000000133e-02 5.739309999999999690e-01 2.957995000000000019e+01 9.830780000000000030e+01 1.610295000000000073e+03
6.500000000000000222e-02 5.744264999999999510e-01 3.032179999999999964e+01 1.006868000000000052e+02 1.610970000000000027e+03
6.600000000000000311e-02 5.749309999999999699e-01 3.102989999999999782e+01 1.030976500000000016e+02 1.611644999999999982e+03
6.700000000000000400e-02 5.754500000000000171e-01 3.171580000000000155e+01 1.055619999999999976e+02 1.612335000000000036e+03
6.800000000000000488e-02 5.759845000000000104e-01 3.238734999999999786e+01 1.080919999999999987e+02 1.613030000000000200e+03
6.900000000000000577e-02 5.765335000000000321e-01 3.304840000000000089e+01 1.106920000000000073e+02 1.613744999999999891e+03
7.000000000000000666e-02 5.770950000000000246e-01 3.369809999999999661e+01 1.133534999999999968e+02 1.614469999999999800e+03
7.100000000000000755e-02 5.776645000000000252e-01 3.433155000000000001e+01 1.160594999999999999e+02 1.615214999999999918e+03
7.200000000000000844e-02 5.782359999999999722e-01 3.494020000000000437e+01 1.187835000000000036e+02 1.615954999999999927e+03
7.300000000000000933e-02 5.788020000000000387e-01 3.551245000000000118e+01 1.214935000000000116e+02 1.616700000000000045e+03
7.399999999999999634e-02 5.793555000000000232e-01 3.603485000000000582e+01 1.241509999999999962e+02 1.617434999999999945e+03
7.499999999999999722e-02 5.798879999999999590e-01 3.649320000000000164e+01 1.267175000000000011e+02 1.618150000000000091e+03
7.599999999999999811e-02 5.803914999999999491e-01 3.687330000000000041e+01 1.291530000000000200e+02 1.618829999999999927e+03
7.699999999999999900e-02 5.808594999999999731e-01 3.716235000000000355e+01 1.314215000000000089e+02 1.619480000000000018e+03
7.799999999999999989e-02 5.812850000000000517e-01 3.734945000000000448e+01 1.334904999999999973e+02 1.620074999999999818e+03
7.900000000000000078e-02 5.816649999999999876e-01 3.742624999999999602e+01 1.353349999999999795e+02 1.620619999999999891e+03
8.000000000000000167e-02 5.819944999999999702e-01 3.738745000000000118e+01 1.369360000000000070e+02 1.621099999999999909e+03
8.100000000000000255e-02 5.822739999999999583e-01 3.723114999999999952e+01 1.382839999999999918e+02 1.621514999999999873e+03
8.200000000000000344e-02 5.825015000000000054e-01 3.695874999999999488e+01 1.393760000000000048e+02 1.621869999999999891e+03
8.300000000000000433e-02 5.826800000000000868e-01 3.657489999999999952e+01 1.402179999999999893e+02 1.622154999999999973e+03
8.400000000000000522e-02 5.828109999999999680e-01 3.608744999999999692e+01 1.408224999999999909e+02 1.622375000000000000e+03
8.500000000000000611e-02 5.828995000000000148e-01 3.550695000000000334e+01 1.412090000000000032e+02 1.622539999999999964e+03
8.600000000000000699e-02 5.829509999999999970e-01 3.484614999999999441e+01 1.414010000000000105e+02 1.622650000000000091e+03
8.700000000000000788e-02 5.829699999999999882e-01 3.411965000000000003e+01 1.414275000000000091e+02 1.622710000000000036e+03
8.800000000000000877e-02 5.829640000000000377e-01 3.334309999999999974e+01 1.413189999999999884e+02 1.622724999999999909e+03
8.899999999999999578e-02 5.829374999999999973e-01 3.253280000000000172e+01 1.411075000000000159e+02 1.622714999999999918e+03
8.999999999999999667e-02 5.828984999999999861e-01 3.170470000000000255e+01 1.408249999999999886e+02 1.622670000000000073e+03
9.099999999999999756e-02 5.828514999999999668e-01 3.087409999999999854e+01 1.405020000000000095e+02 1.622610000000000127e+03
9.199999999999999845e-02 5.828029999999999600e-01 3.005465000000000231e+01 1.401650000000000205e+02 1.622549999999999955e+03
9.299999999999999933e-02 5.827560000000000517e-01 2.925819999999999865e+01 1.398380000000000223e+02 1.622474999999999909e+03
9.400000000000000022e-02 5.827149999999999830e-01 2.849390000000000001e+01 1.395394999999999754e+02 1.622404999999999973e+03
9.500000000000000111e-02 5.826814999999999634e-01 2.776849999999999952e+01 1.392830000000000155e+02 1.622339999999999918e+03
9.600000000000000200e-02 5.826565000000000216e-01 2.708554999999999779e+01 1.390755000000000052e+02 1.622285000000000082e+03
9.700000000000000289e-02 5.826400000000000468e-01 2.644590000000000174e+01 1.389184999999999945e+02 1.622240000000000009e+03
9.800000000000000377e-02 5.826314999999999689e-01 2.584769999999999968e+01 1.388095000000000141e+02 1.622204999999999927e+03
9.900000000000000466e-02 5.826290000000000635e-01 2.528650000000000020e+01 1.387395000000000209e+02 1.622180000000000064e+03
1.000000000000000056e-01 5.826289999999999525e-01 2.475605000000000189e+01 1.386954999999999814e+02 1.622159999999999854e+03
1.010000000000000064e-01 5.826290000000000635e-01 2.424820000000000064e+01 1.386630000000000109e+02 1.622139999999999873e+03
1.020000000000000073e-01 5.826255000000000184e-01 2.375410000000000110e+01 1.386240000000000236e+02 1.622125000000000000e+03
1.030000000000000082e-01 5.826139999999999652e-01 2.326435000000000031e+01 1.385604999999999905e+02 1.622099999999999909e+03
1.040000000000000091e-01 5.825929999999999165e-01 2.276955000000000240e+01 1.384540000000000077e+02 1.622069999999999936e+03
1.050000000000000100e-01 5.825575000000000614e-01 2.226089999999999947e+01 1.382884999999999991e+02 1.622029999999999973e+03
1.059999999999999970e-01 5.825055000000000094e-01 2.173085000000000022e+01 1.380489999999999782e+02 1.621970000000000027e+03
1.069999999999999979e-01 5.824350000000000360e-01 2.117324999999999946e+01 1.377250000000000227e+02 1.621889999999999873e+03
1.079999999999999988e-01 5.823454999999999604e-01 2.058370000000000033e+01 1.373079999999999927e+02 1.621785000000000082e+03
1.089999999999999997e-01 5.822359999999999758e-01 1.995994999999999919e+01 1.367950000000000159e+02 1.621660000000000082e+03
1.100000000000000006e-01 5.821064999999999712e-01 1.930205000000000126e+01 1.361870000000000118e+02 1.621505000000000109e+03
1.110000000000000014e-01 5.819604999999999917e-01 1.861210000000000164e+01 1.354889999999999759e+02 1.621335000000000036e+03
1.120000000000000023e-01 5.817980000000000373e-01 1.789450000000000074e+01 1.347115000000000009e+02 1.621139999999999873e+03
1.130000000000000032e-01 5.816234999999999600e-01 1.715559999999999974e+01 1.338670000000000186e+02 1.620930000000000064e+03
1.140000000000000041e-01 5.814399999999999569e-01 1.640344999999999942e+01 1.329730000000000132e+02 1.620699999999999818e+03
1.150000000000000050e-01 5.812519999999999909e-01 1.564749999999999908e+01 1.320480000000000018e+02 1.620460000000000036e+03
1.160000000000000059e-01 5.810629999999999962e-01 1.489795999999999943e+01 1.311135000000000161e+02 1.620219999999999800e+03
1.170000000000000068e-01 5.808780000000000054e-01 1.416572999999999993e+01 1.301914999999999907e+02 1.619974999999999909e+03
1.180000000000000077e-01 5.807014999999999816e-01 1.346158499999999947e+01 1.293029999999999973e+02 1.619735000000000127e+03
1.190000000000000085e-01 5.805370000000000807e-01 1.279582500000000067e+01 1.284680000000000177e+02 1.619509999999999991e+03
1.200000000000000094e-01 5.803884999999999739e-01 1.217782000000000053e+01 1.277055000000000007e+02 1.619299999999999955e+03
1.209999999999999964e-01 5.802585000000000104e-01 1.161555500000000052e+01 1.270314999999999941e+02 1.619110000000000127e+03
1.219999999999999973e-01 5.801494999999999846e-01 1.111533999999999978e+01 1.264574999999999960e+02 1.618940000000000055e+03
1.229999999999999982e-01 5.800619999999999665e-01 1.068161500000000075e+01 1.259925000000000068e+02 1.618795000000000073e+03
1.239999999999999991e-01 5.799974999999999437e-01 1.031675000000000075e+01 1.256405000000000030e+02 1.618679999999999836e+03
1.250000000000000000e-01 5.799560000000000271e-01 1.002105999999999852e+01 1.254025000000000034e+02 1.618590000000000146e+03
1.260000000000000009e-01 5.799360000000000070e-01 9.792825000000000557e+00 1.252734999999999985e+02 1.618534999999999854e+03
1.270000000000000018e-01 5.799349999999999783e-01 9.628524999999999778e+00 1.252475000000000023e+02 1.618500000000000000e+03
1.280000000000000027e-01 5.799524999999999819e-01 9.523060000000000969e+00 1.253144999999999953e+02 1.618500000000000000e+03
1.290000000000000036e-01 5.799845000000000139e-01 9.470019999999999882e+00 1.254604999999999961e+02 1.618509999999999991e+03
1.300000000000000044e-01 5.800284999999999469e-01 9.461999999999999744e+00 1.256724999999999994e+02 1.618545000000000073e+03
1.310000000000000053e-01 5.800815000000000277e-01 9.491139999999999688e+00 1.259344999999999999e+02 1.618595000000000027e+03
1.320000000000000062e-01 5.801399999999999890e-01 9.549199999999999022e+00 1.262319999999999993e+02 1.618659999999999854e+03
1.330000000000000071e-01 5.802019999999999955e-01 9.628170000000000783e+00 1.265500000000000114e+02 1.618724999999999909e+03
1.340000000000000080e-01 5.802644999999999609e-01 9.720324999999998994e+00 1.268744999999999976e+02 1.618799999999999955e+03
1.350000000000000089e-01 5.803249999999999797e-01 9.818599999999999994e+00 1.271935000000000002e+02 1.618875000000000000e+03
1.360000000000000098e-01 5.803819999999999535e-01 9.916714999999999947e+00 1.274969999999999857e+02 1.618954999999999927e+03
1.370000000000000107e-01 5.804340000000000055e-01 1.000946499999999872e+01 1.277775000000000034e+02 1.619025000000000091e+03
1.380000000000000115e-01 5.804799999999999960e-01 1.009260000000000090e+01 1.280279999999999916e+02 1.619089999999999918e+03
1.390000000000000124e-01 5.805195000000000771e-01 1.016299000000000063e+01 1.282464999999999975e+02 1.619150000000000091e+03
1.400000000000000133e-01 5.805519999999999570e-01 1.021845500000000051e+01 1.284304999999999950e+02 1.619199999999999818e+03
1.410000000000000142e-01 5.805789999999999562e-01 1.025798500000000146e+01 1.285805000000000007e+02 1.619240000000000009e+03
1.420000000000000151e-01 5.805994999999999351e-01 1.028152000000000044e+01 1.286999999999999886e+02 1.619279999999999973e+03
1.430000000000000160e-01 5.806154999999999511e-01 1.028963500000000053e+01 1.287909999999999968e+02 1.619309999999999945e+03
1.440000000000000169e-01 5.806270000000000042e-01 1.028373500000000007e+01 1.288584999999999923e+02 1.619335000000000036e+03
1.450000000000000178e-01 5.806359999999999300e-01 1.026581000000000010e+01 1.289085000000000036e+02 1.619355000000000018e+03
1.459999999999999909e-01 5.806430000000000202e-01 1.023812000000000033e+01 1.289459999999999980e+02 1.619365000000000009e+03
1.469999999999999918e-01 5.806489999999999707e-01 1.020324000000000098e+01 1.289759999999999991e+02 1.619380000000000109e+03
1.479999999999999927e-01 5.806554999999999911e-01 1.016372000000000142e+01 1.290055000000000121e+02 1.619389999999999873e+03
1.489999999999999936e-01 5.806634999999999991e-01 1.012214999999999954e+01 1.290380000000000109e+02 1.619400000000000091e+03
1.499999999999999944e-01 5.806729999999999947e-01 1.008079000000000036e+01 1.290780000000000030e+02 1.619414999999999964e+03
1.509999999999999953e-01 5.806854999999999656e-01 1.004174499999999881e+01 1.291290000000000191e+02 1.619429999999999836e+03
1.519999999999999962e-01 5.807004999999999528e-01 1.000649500000000103e+01 1.291920000000000073e+02 1.619454999999999927e+03
1.529999999999999971e-01 5.807185000000000263e-01 9.976240000000000663e+00 1.292694999999999936e+02 1.619474999999999909e+03
1.539999999999999980e-01 5.807394999999999641e-01 9.951655000000000584e+00 1.293605000000000018e+02 1.619500000000000000e+03
1.549999999999999989e-01 5.807630000000000292e-01 9.932935000000000514e+00 1.294639999999999986e+02 1.619525000000000091e+03
1.559999999999999998e-01 5.807880000000000820e-01 9.919775000000001342e+00 1.295784999999999911e+02 1.619550000000000182e+03
1.570000000000000007e-01 5.808150000000000812e-01 9.911569999999999325e+00 1.297009999999999934e+02 1.619585000000000036e+03
1.580000000000000016e-01 5.808424999999999283e-01 9.907434999999999548e+00 1.298290000000000077e+02 1.619619999999999891e+03
1.590000000000000024e-01 5.808699999999999974e-01 9.906234999999998792e+00 1.299579999999999984e+02 1.619654999999999973e+03
