# t [s], A [cm^2], U [cm/s], P [cPa], c [cm/s]
1.000000000000000021e-03 1.492934999999999957e-01 3.116685000000000150e-01 9.219339999999999691e+01 1.817069999999999936e+03
2.000000000000000042e-03 1.492624999999999924e-01 1.821881500000000154e+00 8.929000000000000625e+01 1.816780000000000200e+03
3.000000000000000062e-03 1.491589999999999860e-01 3.664626000000000161e+00 8.543969999999998777e+01 1.815855000000000018e+03
4.000000000000000083e-03 1.490070000000000006e-01 5.707684999999999675e+00 8.117945000000000277e+01 1.814514999999999873e+03
5.000000000000000104e-03 1.488344999999999807e-01 7.900154999999999816e+00 7.722714999999999463e+01 1.813014999999999873e+03
6.000000000000000125e-03 1.486609999999999876e-01 1.012596000000000096e+01 7.392140000000000555e+01 1.811509999999999991e+03
7.000000000000000146e-03 1.484960000000000169e-01 1.221472999999999942e+01 7.117535000000000878e+01 1.810105000000000018e+03
8.000000000000000167e-03 1.483404999999999863e-01 1.404688499999999962e+01 6.875260000000000105e+01 1.808800000000000182e+03
9.000000000000001055e-03 1.481985000000000108e-01 1.561404999999999887e+01 6.657434999999999548e+01 1.807625000000000000e+03
1.000000000000000194e-02 1.480724999999999958e-01 1.695309999999999917e+01 6.469854999999999734e+01 1.806594999999999800e+03
1.099999999999999936e-02 1.479644999999999988e-01 1.808484999999999943e+01 6.315009999999999479e+01 1.805720000000000027e+03
1.200000000000000025e-02 1.478734999999999911e-01 1.902005000000000123e+01 6.189659999999999940e+01 1.804990000000000009e+03
1.300000000000000114e-02 1.477979999999999849e-01 1.977159999999999940e+01 6.089390000000000214e+01 1.804389999999999873e+03
1.400000000000000203e-02 1.477364999999999928e-01 2.034830000000000183e+01 6.008650000000000091e+01 1.803914999999999964e+03
1.499999999999999944e-02 1.476859999999999840e-01 2.075874999999999915e+01 5.940640000000000498e+01 1.803525000000000091e+03
1.600000000000000033e-02 1.476439999999999975e-01 2.103604999999999947e+01 5.882649999999999579e+01 1.803210000000000036e+03
1.700000000000000122e-02 1.476115000000000066e-01 2.125524999999999665e+01 5.842714999999999748e+01 1.802965000000000146e+03
1.800000000000000211e-02 1.475925000000000153e-01 2.151915000000000333e+01 5.839549999999999841e+01 1.802829999999999927e+03
1.900000000000000300e-02 1.475920000000000010e-01 2.191749999999999687e+01 5.893789999999999907e+01 1.802845000000000027e+03
2.000000000000000042e-02 1.476155000000000106e-01 2.248570000000000135e+01 6.015999999999999659e+01 1.803045000000000073e+03
2.100000000000000130e-02 1.476629999999999887e-01 2.318670000000000186e+01 6.198695000000000022e+01 1.803429999999999836e+03
2.200000000000000219e-02 1.477284999999999848e-01 2.392304999999999993e+01 6.416254999999999598e+01 1.803965000000000146e+03
2.299999999999999961e-02 1.478035000000000043e-01 2.456989999999999696e+01 6.632165000000000532e+01 1.804585000000000036e+03
2.400000000000000050e-02 1.478760000000000074e-01 2.501429999999999865e+01 6.809844999999999970e+01 1.805184999999999945e+03
2.500000000000000139e-02 1.479364999999999986e-01 2.518674999999999997e+01 6.922830000000000439e+01 1.805694999999999936e+03
2.600000000000000228e-02 1.479774999999999840e-01 2.507574999999999932e+01 6.961064999999999259e+01 1.806049999999999955e+03
2.700000000000000316e-02 1.479959999999999887e-01 2.472445000000000093e+01 6.931739999999999213e+01 1.806224999999999909e+03
2.800000000000000058e-02 1.479960000000000164e-01 2.421034999999999826e+01 6.855004999999999882e+01 1.806244999999999891e+03
2.900000000000000147e-02 1.479814999999999880e-01 2.361974999999999980e+01 6.756585000000001173e+01 1.806144999999999982e+03
3.000000000000000236e-02 1.479594999999999938e-01 2.302270000000000039e+01 6.659844999999999970e+01 1.805980000000000018e+03
3.099999999999999978e-02 1.479369999999999852e-01 2.245799999999999841e+01 6.579945000000000732e+01 1.805799999999999955e+03
3.200000000000000067e-02 1.479165000000000063e-01 2.193029999999999902e+01 6.521415000000000362e+01 1.805625000000000000e+03
3.300000000000000155e-02 1.478990000000000027e-01 2.141720000000000113e+01 6.479205000000000325e+01 1.805480000000000018e+03
3.400000000000000244e-02 1.478825000000000001e-01 2.088370000000000104e+01 6.442340000000000089e+01 1.805355000000000018e+03
3.500000000000000333e-02 1.478659999999999974e-01 2.029804999999999993e+01 6.398745000000000260e+01 1.805219999999999800e+03
3.600000000000000422e-02 1.478460000000000052e-01 1.964574999999999960e+01 6.339795000000000158e+01 1.805059999999999945e+03
3.700000000000000511e-02 1.478209999999999802e-01 1.893710000000000093e+01 6.263485000000000014e+01 1.804865000000000009e+03
3.799999999999999906e-02 1.477910000000000057e-01 1.820824999999999960e+01 6.175524999999999665e+01 1.804619999999999891e+03
3.899999999999999994e-02 1.477589999999999737e-01 1.751454999999999984e+01 6.088269999999999982e+01 1.804360000000000127e+03
4.000000000000000083e-02 1.477289999999999992e-01 1.691904999999999859e+01 6.017784999999999940e+01 1.804115000000000009e+03
4.100000000000000172e-02 1.477054999999999896e-01 1.647814999999999941e+01 5.979894999999999783e+01 1.803930000000000064e+03
4.200000000000000261e-02 1.476939999999999920e-01 1.622919999999999874e+01 5.986310000000000286e+01 1.803825000000000045e+03
4.300000000000000350e-02 1.476979999999999960e-01 1.618185000000000073e+01 6.041709999999999781e+01 1.803845000000000027e+03
4.400000000000000439e-02 1.477180000000000160e-01 1.631579999999999941e+01 6.142459999999999809e+01 1.803994999999999891e+03
4.499999999999999833e-02 1.477525000000000088e-01 1.658380000000000010e+01 6.277100000000000080e+01 1.804264999999999873e+03
4.599999999999999922e-02 1.477974999999999983e-01 1.691955000000000098e+01 6.428325000000000955e+01 1.804619999999999891e+03
4.700000000000000011e-02 1.478480000000000072e-01 1.724804999999999922e+01 6.575870000000000459e+01 1.805019999999999982e+03
4.800000000000000100e-02 1.478970000000000007e-01 1.749589999999999890e+01 6.699629999999999086e+01 1.805420000000000073e+03
4.900000000000000189e-02 1.479385000000000006e-01 1.760010000000000119e+01 6.782425000000000637e+01 1.805759999999999991e+03
5.000000000000000278e-02 1.479665000000000008e-01 1.751460000000000150e+01 6.811974999999999625e+01 1.805990000000000009e+03
5.100000000000000366e-02 1.479769999999999974e-01 1.721240000000000236e+01 6.781890000000001351e+01 1.806090000000000146e+03
5.200000000000000455e-02 1.479675000000000018e-01 1.668650000000000233e+01 6.691624999999999091e+01 1.806014999999999873e+03
5.300000000000000544e-02 1.479374999999999996e-01 1.594664999999999999e+01 6.545725000000000193e+01 1.805780000000000200e+03
5.399999999999999939e-02 1.478869999999999907e-01 1.501585000000000036e+01 6.352434999999999832e+01 1.805384999999999991e+03
5.500000000000000028e-02 1.478200000000000069e-01 1.392580000000000062e+01 6.122244999999999493e+01 1.804845000000000027e+03
5.600000000000000117e-02 1.477374999999999938e-01 1.271335499999999996e+01 5.866464999999999463e+01 1.804179999999999836e+03
5.700000000000000205e-02 1.476445000000000118e-01 1.141699999999999982e+01 5.596179999999999666e+01 1.803430000000000064e+03
5.800000000000000294e-02 1.475445000000000229e-01 1.007515000000000072e+01 5.321540000000000248e+01 1.802615000000000009e+03
5.900000000000000383e-02 1.474409999999999887e-01 8.725395000000000678e+00 5.051550000000000296e+01 1.801775000000000091e+03
6.000000000000000472e-02 1.473369999999999957e-01 7.404019999999999158e+00 4.794075000000000131e+01 1.800924999999999955e+03
6.099999999999999867e-02 1.472355000000000191e-01 6.146390000000000242e+00 4.556099999999999994e+01 1.800095000000000027e+03
6.199999999999999956e-02 1.471399999999999930e-01 4.987119999999999109e+00 4.343999999999999773e+01 1.799315000000000055e+03
6.300000000000000044e-02 1.470529999999999893e-01 3.960020000000000095e+00 4.163765000000000072e+01 1.798605000000000018e+03
6.400000000000000133e-02 1.469770000000000243e-01 3.097655500000000117e+00 4.021085000000000065e+01 1.797980000000000018e+03
6.500000000000000222e-02 1.469145000000000034e-01 2.430455499999999880e+00 3.921330000000000382e+01 1.797460000000000036e+03
6.600000000000000311e-02 1.468685000000000129e-01 1.985489000000000059e+00 3.869299999999999784e+01 1.797075000000000045e+03
6.700000000000000400e-02 1.468399999999999983e-01 1.785039999999999960e+00 3.868954999999999700e+01 1.796829999999999927e+03
6.800000000000000488e-02 1.468315000000000037e-01 1.845264999999999933e+00 3.923089999999999833e+01 1.796740000000000009e+03
6.900000000000000577e-02 1.468435000000000157e-01 2.175009999999999888e+00 4.033039999999999736e+01 1.796819999999999936e+03
7.000000000000000666e-02 1.468770000000000076e-01 2.775160000000000071e+00 4.198465000000000202e+01 1.797079999999999927e+03
7.100000000000000755e-02 1.469324999999999937e-01 3.638374999999999915e+00 4.417260000000000275e+01 1.797509999999999991e+03
7.200000000000000844e-02 1.470090000000000008e-01 4.749435000000000073e+00 4.685639999999999361e+01 1.798109999999999900e+03
7.300000000000000933e-02 1.471044999999999991e-01 6.086054999999999993e+00 4.998305000000000575e+01 1.798880000000000109e+03
7.399999999999999634e-02 1.472195000000000031e-01 7.620039999999999480e+00 5.348749999999999716e+01 1.799789999999999964e+03
7.499999999999999722e-02 1.473494999999999944e-01 9.318830000000000169e+00 5.729619999999999891e+01 1.800840000000000146e+03
7.599999999999999811e-02 1.474929999999999852e-01 1.114672999999999981e+01 6.133100000000000307e+01 1.802000000000000000e+03
7.699999999999999900e-02 1.476465000000000138e-01 1.306697000000000131e+01 6.551300000000000523e+01 1.803244999999999891e+03
7.799999999999999989e-02 1.478079999999999949e-01 1.504269999999999996e+01 6.976609999999999445e+01 1.804559999999999945e+03
7.900000000000000078e-02 1.479745000000000088e-01 1.703860000000000241e+01 7.402009999999999934e+01 1.805920000000000073e+03
8.000000000000000167e-02 1.481425000000000103e-01 1.902210000000000178e+01 7.821305000000000973e+01 1.807300000000000182e+03
8.100000000000000255e-02 1.483109999999999984e-01 2.096439999999999770e+01 8.229340000000000543e+01 1.808684999999999945e+03
8.200000000000000344e-02 1.484765000000000112e-01 2.284114999999999895e+01 8.622140000000000271e+01 1.810049999999999955e+03
8.300000000000000433e-02 1.486379999999999924e-01 2.463340000000000174e+01 8.996989999999999554e+01 1.811390000000000100e+03
8.400000000000000522e-02 1.487940000000000096e-01 2.632759999999999678e+01 9.352465000000000828e+01 1.812684999999999945e+03
8.500000000000000611e-02 1.489439999999999931e-01 2.791599999999999682e+01 9.688315000000000055e+01 1.813929999999999836e+03
8.600000000000000699e-02 1.490874999999999839e-01 2.939604999999999890e+01 1.000551499999999976e+02 1.815130000000000109e+03
8.700000000000000788e-02 1.492244999999999822e-01 3.077040000000000219e+01 1.030592000000000041e+02 1.816275000000000091e+03
8.800000000000000877e-02 1.493554999999999744e-01 3.204550000000000409e+01 1.059219999999999970e+02 1.817375000000000000e+03
8.899999999999999578e-02 1.494814999999999894e-01 3.323120000000000118e+01 1.086735000000000042e+02 1.818430000000000064e+03
8.999999999999999667e-02 1.496029999999999860e-01 3.433930000000000149e+01 1.113479999999999990e+02 1.819454999999999927e+03
9.099999999999999756e-02 1.497215000000000074e-01 3.538269999999999982e+01 1.139780000000000086e+02 1.820460000000000036e+03
9.199999999999999845e-02 1.498379999999999990e-01 3.637409999999999854e+01 1.165919999999999987e+02 1.821434999999999945e+03
9.299999999999999933e-02 1.499535000000000173e-01 3.732515000000000072e+01 1.192154999999999916e+02 1.822410000000000082e+03
9.400000000000000022e-02 1.500684999999999936e-01 3.824564999999999770e+01 1.218654999999999973e+02 1.823380000000000109e+03
9.500000000000000111e-02 1.501844999999999986e-01 3.914280000000000115e+01 1.245519999999999925e+02 1.824360000000000127e+03
9.600000000000000200e-02 1.503009999999999902e-01 4.002079999999999416e+01 1.272764999999999986e+02 1.825340000000000146e+03
9.700000000000000289e-02 1.504185000000000105e-01 4.088084999999999525e+01 1.300324999999999989e+02 1.826329999999999927e+03
9.800000000000000377e-02 1.505365000000000175e-01 4.172105000000000530e+01 1.328060000000000116e+02 1.827325000000000045e+03
9.900000000000000466e-02 1.506549999999999834e-01 4.253645000000000209e+01 1.355759999999999934e+02 1.828324999999999818e+03
1.000000000000000056e-01 1.507735000000000047e-01 4.331985000000000241e+01 1.383179999999999836e+02 1.829319999999999936e+03
1.010000000000000064e-01 1.508905000000000107e-01 4.406204999999999927e+01 1.410010000000000048e+02 1.830309999999999945e+03
1.020000000000000073e-01 1.510045000000000137e-01 4.475225000000000364e+01 1.435935000000000059e+02 1.831280000000000200e+03
1.030000000000000082e-01 1.511155000000000137e-01 4.537895000000000323e+01 1.460649999999999977e+02 1.832215000000000146e+03
1.040000000000000091e-01 1.512225000000000097e-01 4.593045000000000044e+01 1.483840000000000146e+02 1.833119999999999891e+03
1.050000000000000100e-01 1.513224999999999987e-01 4.639549999999999841e+01 1.505210000000000150e+02 1.833974999999999909e+03
1.059999999999999970e-01 1.514159999999999950e-01 4.676359999999999673e+01 1.524509999999999934e+02 1.834769999999999982e+03
1.069999999999999979e-01 1.515015000000000112e-01 4.702585000000000548e+01 1.541530000000000200e+02 1.835500000000000000e+03
1.079999999999999988e-01 1.515789999999999915e-01 4.717515000000000214e+01 1.556105000000000018e+02 1.836159999999999854e+03
1.089999999999999997e-01 1.516460000000000030e-01 4.720645000000000380e+01 1.568135000000000048e+02 1.836740000000000009e+03
1.100000000000000006e-01 1.517040000000000055e-01 4.711719999999999686e+01 1.577565000000000168e+02 1.837234999999999900e+03
1.110000000000000014e-01 1.517509999999999970e-01 4.690739999999999554e+01 1.584410000000000025e+02 1.837650000000000091e+03
1.120000000000000023e-01 1.517879999999999785e-01 4.657959999999999923e+01 1.588725000000000023e+02 1.837969999999999800e+03
1.130000000000000032e-01 1.518150000000000055e-01 4.613880000000000337e+01 1.590645000000000095e+02 1.838204999999999927e+03
1.140000000000000041e-01 1.518325000000000091e-01 4.559255000000000280e+01 1.590330000000000155e+02 1.838365000000000009e+03
1.150000000000000050e-01 1.518400000000000027e-01 4.495040000000000191e+01 1.587990000000000066e+02 1.838445000000000164e+03
1.160000000000000059e-01 1.518394999999999884e-01 4.422369999999999379e+01 1.583870000000000005e+02 1.838449999999999818e+03
1.170000000000000068e-01 1.518315000000000081e-01 4.342530000000000001e+01 1.578245000000000005e+02 1.838389999999999873e+03
1.180000000000000077e-01 1.518169999999999797e-01 4.256900000000000261e+01 1.571394999999999982e+02 1.838275000000000091e+03
1.190000000000000085e-01 1.517969999999999875e-01 4.166899999999999693e+01 1.563605000000000018e+02 1.838110000000000127e+03
1.200000000000000094e-01 1.517720000000000180e-01 4.073969999999999914e+01 1.555169999999999959e+02 1.837904999999999973e+03
1.209999999999999964e-01 1.517439999999999900e-01 3.979484999999999673e+01 1.546349999999999909e+02 1.837674999999999955e+03
1.219999999999999973e-01 1.517135000000000011e-01 3.884759999999999991e+01 1.537390000000000043e+02 1.837414999999999964e+03
1.229999999999999982e-01 1.516810000000000103e-01 3.790959999999999752e+01 1.528509999999999991e+02 1.837150000000000091e+03
1.239999999999999991e-01 1.516484999999999916e-01 3.699094999999999800e+01 1.519884999999999877e+02 1.836875000000000000e+03
1.250000000000000000e-01 1.516155000000000141e-01 3.610020000000000095e+01 1.511655000000000086e+02 1.836599999999999909e+03
1.260000000000000009e-01 1.515839999999999965e-01 3.524360000000000070e+01 1.503915000000000077e+02 1.836329999999999927e+03
1.270000000000000018e-01 1.515535000000000077e-01 3.442544999999999789e+01 1.496719999999999970e+02 1.836065000000000055e+03
1.280000000000000027e-01 1.515245000000000064e-01 3.364789999999999992e+01 1.490070000000000050e+02 1.835820000000000164e+03
1.290000000000000036e-01 1.514969999999999928e-01 3.291114999999999924e+01 1.483950000000000102e+02 1.835585000000000036e+03
1.300000000000000044e-01 1.514710000000000223e-01 3.221335000000000548e+01 1.478280000000000030e+02 1.835360000000000127e+03
1.310000000000000053e-01 1.514469999999999983e-01 3.155109999999999815e+01 1.472959999999999923e+02 1.835150000000000091e+03
1.320000000000000062e-01 1.514230000000000020e-01 3.091935000000000144e+01 1.467880000000000109e+02 1.834950000000000045e+03
1.330000000000000071e-01 1.514004999999999934e-01 3.031204999999999927e+01 1.462884999999999991e+02 1.834755000000000109e+03
1.340000000000000080e-01 1.513784999999999992e-01 2.972220000000000084e+01 1.457824999999999989e+02 1.834565000000000055e+03
1.350000000000000089e-01 1.513559999999999905e-01 2.914245000000000019e+01 1.452534999999999741e+02 1.834369999999999891e+03
1.360000000000000098e-01 1.513325000000000087e-01 2.856515000000000271e+01 1.446870000000000118e+02 1.834170000000000073e+03
1.370000000000000107e-01 1.513079999999999981e-01 2.798295000000000243e+01 1.440674999999999955e+02 1.833960000000000036e+03
1.380000000000000115e-01 1.512815000000000132e-01 2.738895000000000124e+01 1.433824999999999932e+02 1.833735000000000127e+03
1.390000000000000124e-01 1.512525000000000119e-01 2.677734999999999843e+01 1.426214999999999975e+02 1.833490000000000009e+03
1.400000000000000133e-01 1.512209999999999943e-01 2.614304999999999879e+01 1.417764999999999986e+02 1.833220000000000027e+03
1.410000000000000142e-01 1.511859999999999871e-01 2.548270000000000124e+01 1.408419999999999845e+02 1.832925000000000182e+03
1.420000000000000151e-01 1.511474999999999902e-01 2.479404999999999859e+01 1.398174999999999955e+02 1.832605000000000018e+03
1.430000000000000160e-01 1.511059999999999903e-01 2.407670000000000243e+01 1.387049999999999841e+02 1.832255000000000109e+03
1.440000000000000169e-01 1.510604999999999865e-01 2.333169999999999789e+01 1.375095000000000027e+02 1.831880000000000109e+03
1.450000000000000178e-01 1.510124999999999940e-01 2.256194999999999951e+01 1.362390000000000043e+02 1.831474999999999909e+03
1.459999999999999909e-01 1.509614999999999985e-01 2.177159999999999940e+01 1.349069999999999823e+02 1.831045000000000073e+03
1.469999999999999918e-01 1.509079999999999866e-01 2.096614999999999895e+01 1.335269999999999868e+02 1.830590000000000146e+03
1.479999999999999927e-01 1.508519999999999861e-01 2.015249999999999986e+01 1.321150000000000091e+02 1.830125000000000000e+03
1.489999999999999936e-01 1.507950000000000124e-01 1.933820000000000050e+01 1.306895000000000095e+02 1.829644999999999982e+03
1.499999999999999944e-01 1.507364999999999955e-01 1.853154999999999930e+01 1.292704999999999984e+02 1.829159999999999854e+03
1.509999999999999953e-01 1.506790000000000074e-01 1.774109999999999943e+01 1.278754999999999882e+02 1.828670000000000073e+03
1.519999999999999962e-01 1.506215000000000193e-01 1.697530000000000072e+01 1.265240000000000009e+02 1.828190000000000055e+03
1.529999999999999971e-01 1.505660000000000054e-01 1.624249999999999972e+01 1.252334999999999923e+02 1.827715000000000146e+03
1.539999999999999980e-01 1.505115000000000203e-01 1.555014999999999858e+01 1.240200000000000102e+02 1.827259999999999991e+03
1.549999999999999989e-01 1.504604999999999970e-01 1.490514999999999901e+01 1.228954999999999984e+02 1.826829999999999927e+03
1.559999999999999998e-01 1.504119999999999902e-01 1.431300000000000061e+01 1.218725000000000023e+02 1.826425000000000182e+03
1.570000000000000007e-01 1.503680000000000017e-01 1.377810000000000024e+01 1.209590000000000032e+02 1.826045000000000073e+03
1.580000000000000016e-01 1.503275000000000028e-01 1.330344999999999978e+01 1.201589999999999918e+02 1.825699999999999818e+03
1.590000000000000024e-01 1.502914999999999945e-01 1.289069999999999894e+01 1.194745000000000061e+02 1.825394999999999982e+03
