# t [s], A [cm^2], U [cm/s], P [cPa], c [cm/s]
1.000000000000000021e-03 1.493389999999999995e-01 1.510170000000000123e-01 8.726519999999999300e+01 1.996389999999999873e+03
2.000000000000000042e-03 1.493160000000000043e-01 1.330657999999999896e+00 8.483844999999999459e+01 1.996130000000000109e+03
3.000000000000000062e-03 1.492344999999999922e-01 2.842376000000000236e+00 8.145054999999999268e+01 1.995295000000000073e+03
4.000000000000000083e-03 1.491139999999999965e-01 4.555143499999999790e+00 7.750065000000000737e+01 1.994074999999999818e+03
5.000000000000000104e-03 1.489759999999999973e-01 6.424070000000000391e+00 7.365675000000000239e+01 1.992690000000000055e+03
6.000000000000000125e-03 1.488364999999999827e-01 8.359585000000000932e+00 7.032885000000000275e+01 1.991309999999999945e+03
7.000000000000000146e-03 1.487040000000000028e-01 1.020582499999999904e+01 6.752700000000000102e+01 1.990019999999999982e+03
8.000000000000000167e-03 1.485799999999999899e-01 1.182968999999999937e+01 6.504359999999999786e+01 1.988819999999999936e+03
9.000000000000001055e-03 1.484654999999999725e-01 1.320569000000000059e+01 6.279140000000000299e+01 1.987744999999999891e+03
1.000000000000000194e-02 1.483654999999999835e-01 1.436555000000000071e+01 6.083429999999999893e+01 1.986804999999999836e+03
1.099999999999999936e-02 1.482795000000000085e-01 1.533210000000000051e+01 5.922075000000000244e+01 1.986014999999999873e+03
1.200000000000000025e-02 1.482084999999999930e-01 1.611785000000000068e+01 5.793834999999999980e+01 1.985365000000000009e+03
1.300000000000000114e-02 1.481514999999999915e-01 1.673130000000000095e+01 5.694259999999999877e+01 1.984849999999999909e+03
1.400000000000000203e-02 1.481060000000000154e-01 1.717200000000000060e+01 5.615420000000000300e+01 1.984445000000000164e+03
1.499999999999999944e-02 1.480680000000000052e-01 1.744275000000000020e+01 5.547690000000000055e+01 1.984119999999999891e+03
1.600000000000000033e-02 1.480365000000000153e-01 1.758064999999999856e+01 5.487919999999999732e+01 1.983849999999999909e+03
1.700000000000000122e-02 1.480130000000000057e-01 1.767239999999999966e+01 5.446920000000000073e+01 1.983650000000000091e+03
1.800000000000000211e-02 1.480015000000000081e-01 1.782990000000000208e+01 5.447360000000000468e+01 1.983570000000000164e+03
1.900000000000000300e-02 1.480095000000000161e-01 1.814199999999999946e+01 5.512085000000000434e+01 1.983644999999999982e+03
2.000000000000000042e-02 1.480384999999999895e-01 1.863309999999999889e+01 5.650455000000000183e+01 1.983914999999999964e+03
2.100000000000000130e-02 1.480879999999999974e-01 1.925200000000000244e+01 5.851019999999999754e+01 1.984380000000000109e+03
2.200000000000000219e-02 1.481514999999999915e-01 1.989300000000000068e+01 6.083684999999999832e+01 1.984970000000000027e+03
2.299999999999999961e-02 1.482200000000000184e-01 2.043475000000000108e+01 6.309375000000000000e+01 1.985619999999999891e+03
2.400000000000000050e-02 1.482835000000000125e-01 2.078009999999999735e+01 6.492179999999999040e+01 1.986230000000000018e+03
2.500000000000000139e-02 1.483339999999999936e-01 2.088194999999999979e+01 6.609340000000000259e+01 1.986720000000000027e+03
2.600000000000000228e-02 1.483674999999999855e-01 2.074990000000000023e+01 6.655910000000000082e+01 1.987059999999999945e+03
2.700000000000000316e-02 1.483839999999999881e-01 2.043805000000000049e+01 6.643334999999999013e+01 1.987235000000000127e+03
2.800000000000000058e-02 1.483865000000000045e-01 2.002094999999999914e+01 6.593350000000000932e+01 1.987279999999999973e+03
2.900000000000000147e-02 1.483809999999999851e-01 1.956725000000000136e+01 6.529630000000000223e+01 1.987234999999999900e+03
3.000000000000000236e-02 1.483710000000000029e-01 1.912010000000000076e+01 6.470364999999999611e+01 1.987150000000000091e+03
3.099999999999999978e-02 1.483609999999999929e-01 1.868865000000000265e+01 6.423775000000000546e+01 1.987059999999999945e+03
3.200000000000000067e-02 1.483520000000000116e-01 1.825215000000000032e+01 6.387519999999999243e+01 1.986970000000000027e+03
3.300000000000000155e-02 1.483420000000000016e-01 1.777295000000000158e+01 6.351534999999999798e+01 1.986875000000000000e+03
3.400000000000000244e-02 1.483285000000000020e-01 1.721395000000000053e+01 6.303014999999999901e+01 1.986759999999999991e+03
3.500000000000000333e-02 1.483094999999999830e-01 1.655485000000000184e+01 6.231810000000000116e+01 1.986585000000000036e+03
3.600000000000000422e-02 1.482835000000000125e-01 1.580359999999999943e+01 6.134799999999999898e+01 1.986345000000000027e+03
3.700000000000000511e-02 1.482505000000000073e-01 1.499849999999999994e+01 6.017990000000000350e+01 1.986049999999999955e+03
3.799999999999999906e-02 1.482140000000000124e-01 1.420210000000000150e+01 5.895794999999999675e+01 1.985715000000000146e+03
3.899999999999999994e-02 1.481790000000000052e-01 1.348794999999999966e+01 5.787805000000000177e+01 1.985384999999999991e+03
4.000000000000000083e-02 1.481500000000000039e-01 1.292360000000000042e+01 5.714015000000000555e+01 1.985110000000000127e+03
4.100000000000000172e-02 1.481325000000000003e-01 1.255574999999999974e+01 5.689900000000000091e+01 1.984929999999999836e+03
4.200000000000000261e-02 1.481294999999999973e-01 1.240044999999999931e+01 5.722724999999999795e+01 1.984894999999999982e+03
4.300000000000000350e-02 1.481429999999999969e-01 1.244064999999999976e+01 5.809929999999999950e+01 1.985000000000000000e+03
4.400000000000000439e-02 1.481699999999999962e-01 1.263074999999999903e+01 5.939745000000000630e+01 1.985244999999999891e+03
4.499999999999999833e-02 1.482090000000000074e-01 1.290595000000000070e+01 6.093665000000000020e+01 1.985590000000000146e+03
4.599999999999999922e-02 1.482525000000000093e-01 1.319395000000000095e+01 6.250005000000000166e+01 1.985990000000000009e+03
4.700000000000000011e-02 1.482959999999999834e-01 1.342624999999999957e+01 6.387555000000000405e+01 1.986394999999999982e+03
4.800000000000000100e-02 1.483335000000000070e-01 1.354704999999999870e+01 6.488734999999999786e+01 1.986750000000000000e+03
4.900000000000000189e-02 1.483605000000000063e-01 1.351804999999999879e+01 6.541620000000000346e+01 1.987005000000000109e+03
5.000000000000000278e-02 1.483740000000000059e-01 1.332024999999999970e+01 6.540680000000000405e+01 1.987140000000000100e+03
5.100000000000000366e-02 1.483720000000000039e-01 1.295195000000000007e+01 6.486409999999999343e+01 1.987134999999999991e+03
5.200000000000000455e-02 1.483545000000000003e-01 1.242454999999999998e+01 6.383990000000000009e+01 1.986980000000000018e+03
5.300000000000000544e-02 1.483230000000000104e-01 1.175802499999999995e+01 6.241544999999999987e+01 1.986695000000000164e+03
5.399999999999999939e-02 1.482795000000000085e-01 1.097587500000000027e+01 6.068420000000000414e+01 1.986295000000000073e+03
5.500000000000000028e-02 1.482259999999999966e-01 1.010224499999999992e+01 5.873744999999999550e+01 1.985799999999999955e+03
5.600000000000000117e-02 1.481655000000000055e-01 9.159985000000000710e+00 5.665550000000000352e+01 1.985234999999999900e+03
5.700000000000000205e-02 1.480994999999999950e-01 8.170249999999999346e+00 5.450520000000000209e+01 1.984625000000000000e+03
5.800000000000000294e-02 1.480305000000000093e-01 7.153439999999999799e+00 5.234109999999999729e+01 1.983974999999999909e+03
5.900000000000000383e-02 1.479594999999999938e-01 6.130555000000000199e+00 5.021049999999999613e+01 1.983315000000000055e+03
6.000000000000000472e-02 1.478895000000000071e-01 5.124464999999999826e+00 4.815919999999999845e+01 1.982659999999999854e+03
6.099999999999999867e-02 1.478214999999999946e-01 4.160724999999999341e+00 4.623645000000000493e+01 1.982025000000000091e+03
6.199999999999999956e-02 1.477574999999999861e-01 3.267738999999999727e+00 4.449760000000000559e+01 1.981414999999999964e+03
6.300000000000000044e-02 1.476995000000000113e-01 2.476075499999999874e+00 4.300459999999999638e+01 1.980869999999999891e+03
6.400000000000000133e-02 1.476494999999999891e-01 1.817064000000000012e+00 4.182365000000000066e+01 1.980389999999999873e+03
6.500000000000000222e-02 1.476095000000000046e-01 1.320954799999999985e+00 4.102074999999999960e+01 1.980005000000000109e+03
6.600000000000000311e-02 1.475825000000000053e-01 1.014839999999999964e+00 4.065670000000000073e+01 1.979734999999999900e+03
6.700000000000000400e-02 1.475695000000000201e-01 9.207610000000000516e-01 4.078135000000000332e+01 1.979599999999999909e+03
6.800000000000000488e-02 1.475720000000000087e-01 1.054133999999999904e+00 4.142920000000000158e+01 1.979610000000000127e+03
6.900000000000000577e-02 1.475920000000000010e-01 1.422733000000000025e+00 4.261605000000000132e+01 1.979775000000000091e+03
7.000000000000000666e-02 1.476284999999999958e-01 2.026283000000000278e+00 4.433759999999999479e+01 1.980105000000000018e+03
7.100000000000000755e-02 1.476834999999999953e-01 2.856609000000000176e+00 4.656990000000000407e+01 1.980595000000000027e+03
7.200000000000000844e-02 1.477539999999999965e-01 3.898359999999999825e+00 4.927114999999999867e+01 1.981239999999999782e+03
7.300000000000000933e-02 1.478404999999999858e-01 5.130065000000000097e+00 5.238490000000000180e+01 1.982030000000000200e+03
7.399999999999999634e-02 1.479405000000000026e-01 6.525530000000000719e+00 5.584414999999999907e+01 1.982954999999999927e+03
7.499999999999999722e-02 1.480520000000000169e-01 8.055355000000000487e+00 5.957560000000000144e+01 1.983990000000000009e+03
7.599999999999999811e-02 1.481735000000000135e-01 9.688555000000000916e+00 6.350424999999999898e+01 1.985119999999999891e+03
7.699999999999999900e-02 1.483019999999999894e-01 1.139419499999999985e+01 6.755764999999999532e+01 1.986319999999999936e+03
7.799999999999999989e-02 1.484354999999999980e-01 1.314262000000000086e+01 7.166970000000000596e+01 1.987575000000000045e+03
7.900000000000000078e-02 1.485710000000000086e-01 1.490709999999999980e+01 7.578379999999999939e+01 1.988855000000000018e+03
8.000000000000000167e-02 1.487090000000000078e-01 1.666445000000000221e+01 7.985480000000001155e+01 1.990154999999999973e+03
8.100000000000000255e-02 1.488459999999999783e-01 1.839560000000000173e+01 8.385034999999999172e+01 1.991449999999999818e+03
8.200000000000000344e-02 1.489814999999999889e-01 2.008619999999999806e+01 8.775079999999999814e+01 1.992744999999999891e+03
8.300000000000000433e-02 1.491149999999999975e-01 2.172609999999999886e+01 9.154829999999999757e+01 1.994015000000000100e+03
8.400000000000000522e-02 1.492459999999999898e-01 2.330900000000000105e+01 9.524459999999999127e+01 1.995269999999999982e+03
8.500000000000000611e-02 1.493744999999999934e-01 2.483180000000000121e+01 9.884839999999999804e+01 1.996500000000000000e+03
8.600000000000000699e-02 1.495005000000000084e-01 2.629370000000000118e+01 1.023728499999999997e+02 1.997704999999999927e+03
8.700000000000000788e-02 1.496244999999999936e-01 2.769539999999999935e+01 1.058322500000000019e+02 1.998894999999999982e+03
8.800000000000000877e-02 1.497470000000000190e-01 2.903815000000000168e+01 1.092404999999999973e+02 2.000074999999999818e+03
8.899999999999999578e-02 1.498674999999999868e-01 3.032334999999999781e+01 1.126069999999999993e+02 2.001235000000000127e+03
8.999999999999999667e-02 1.499869999999999814e-01 3.155165000000000219e+01 1.159379999999999882e+02 2.002384999999999991e+03
9.099999999999999756e-02 1.501049999999999884e-01 3.272310000000000230e+01 1.192340000000000089e+02 2.003525000000000091e+03
9.199999999999999845e-02 1.502215000000000078e-01 3.383674999999999500e+01 1.224900000000000091e+02 2.004654999999999973e+03
9.299999999999999933e-02 1.503369999999999984e-01 3.489050000000000296e+01 1.256980000000000075e+02 2.005775000000000091e+03
9.400000000000000022e-02 1.504504999999999870e-01 3.588169999999999504e+01 1.288454999999999870e+02 2.006869999999999891e+03
9.500000000000000111e-02 1.505620000000000014e-01 3.680665000000000475e+01 1.319170000000000016e+02 2.007954999999999927e+03
9.600000000000000200e-02 1.506704999999999850e-01 3.766124999999999545e+01 1.348965000000000032e+02 2.009009999999999991e+03
9.700000000000000289e-02 1.507764999999999800e-01 3.844100000000000250e+01 1.377649999999999864e+02 2.010035000000000082e+03
9.800000000000000377e-02 1.508784999999999987e-01 3.914110000000000156e+01 1.405045000000000073e+02 2.011029999999999973e+03
9.900000000000000466e-02 1.509754999999999847e-01 3.975669999999999504e+01 1.430964999999999918e+02 2.011980000000000018e+03
1.000000000000000056e-01 1.510684999999999945e-01 4.028284999999999627e+01 1.455244999999999891e+02 2.012885000000000218e+03
1.010000000000000064e-01 1.511549999999999838e-01 4.071505000000000507e+01 1.477719999999999914e+02 2.013739999999999782e+03
1.020000000000000073e-01 1.512364999999999959e-01 4.104914999999999736e+01 1.498234999999999957e+02 2.014529999999999973e+03
1.030000000000000082e-01 1.513105000000000144e-01 4.128145000000000664e+01 1.516680000000000064e+02 2.015259999999999991e+03
1.040000000000000091e-01 1.513784999999999992e-01 4.140940000000000509e+01 1.532930000000000064e+02 2.015930000000000064e+03
1.050000000000000100e-01 1.514384999999999759e-01 4.143144999999999811e+01 1.546924999999999955e+02 2.016519999999999982e+03
1.059999999999999970e-01 1.514909999999999868e-01 4.134749999999999659e+01 1.558625000000000114e+02 2.017039999999999964e+03
1.069999999999999979e-01 1.515354999999999897e-01 4.115899999999999892e+01 1.568025000000000091e+02 2.017485000000000127e+03
1.079999999999999988e-01 1.515724999999999989e-01 4.086899999999999977e+01 1.575174999999999841e+02 2.017860000000000127e+03
1.089999999999999997e-01 1.516020000000000145e-01 4.048260000000000502e+01 1.580165000000000077e+02 2.018150000000000091e+03
1.100000000000000006e-01 1.516240000000000088e-01 4.000629999999999598e+01 1.583120000000000118e+02 2.018380000000000109e+03
1.110000000000000014e-01 1.516390000000000238e-01 3.944834999999999781e+01 1.584209999999999923e+02 2.018539999999999964e+03
1.120000000000000023e-01 1.516480000000000050e-01 3.881815000000000282e+01 1.583639999999999759e+02 2.018634999999999991e+03
1.130000000000000032e-01 1.516509999999999803e-01 3.812619999999999720e+01 1.581625000000000227e+02 2.018670000000000073e+03
1.140000000000000041e-01 1.516489999999999783e-01 3.738370000000000459e+01 1.578405000000000200e+02 2.018654999999999973e+03
1.150000000000000050e-01 1.516425000000000134e-01 3.660190000000000055e+01 1.574225000000000136e+02 2.018605000000000018e+03
1.160000000000000059e-01 1.516325000000000034e-01 3.579210000000000491e+01 1.569320000000000164e+02 2.018514999999999873e+03
1.170000000000000068e-01 1.516199999999999770e-01 3.496504999999999797e+01 1.563899999999999864e+02 2.018394999999999982e+03
1.180000000000000077e-01 1.516049999999999898e-01 3.413060000000000116e+01 1.558170000000000073e+02 2.018255000000000109e+03
1.190000000000000085e-01 1.515880000000000005e-01 3.329775000000000063e+01 1.552300000000000182e+02 2.018095000000000027e+03
1.200000000000000094e-01 1.515710000000000113e-01 3.247399999999999665e+01 1.546430000000000007e+02 2.017929999999999836e+03
1.209999999999999964e-01 1.515535000000000077e-01 3.166559999999999775e+01 1.540665000000000191e+02 2.017755000000000109e+03
1.219999999999999973e-01 1.515354999999999897e-01 3.087715000000000032e+01 1.535065000000000168e+02 2.017585000000000036e+03
1.229999999999999982e-01 1.515179999999999860e-01 3.011175000000000068e+01 1.529680000000000177e+02 2.017409999999999854e+03
1.239999999999999991e-01 1.514999999999999958e-01 2.937095000000000056e+01 1.524499999999999886e+02 2.017234999999999900e+03
1.250000000000000000e-01 1.514830000000000065e-01 2.865484999999999971e+01 1.519495000000000005e+02 2.017065000000000055e+03
1.260000000000000009e-01 1.514659999999999895e-01 2.796204999999999785e+01 1.514619999999999891e+02 2.016900000000000091e+03
1.270000000000000018e-01 1.514495000000000147e-01 2.729019999999999868e+01 1.509775000000000205e+02 2.016735000000000127e+03
1.280000000000000027e-01 1.514324999999999977e-01 2.663564999999999827e+01 1.504879999999999995e+02 2.016569999999999936e+03
1.290000000000000036e-01 1.514155000000000084e-01 2.599429999999999907e+01 1.499819999999999993e+02 2.016404999999999973e+03
1.300000000000000044e-01 1.513979999999999770e-01 2.536129999999999995e+01 1.494474999999999909e+02 2.016224999999999909e+03
1.310000000000000053e-01 1.513784999999999992e-01 2.473174999999999812e+01 1.488729999999999905e+02 2.016039999999999964e+03
1.320000000000000062e-01 1.513590000000000213e-01 2.410065000000000168e+01 1.482475000000000023e+02 2.015845000000000027e+03
1.330000000000000071e-01 1.513364999999999849e-01 2.346340000000000003e+01 1.475625000000000000e+02 2.015630000000000109e+03
1.340000000000000080e-01 1.513129999999999753e-01 2.281609999999999872e+01 1.468079999999999927e+02 2.015394999999999982e+03
1.350000000000000089e-01 1.512864999999999904e-01 2.215540000000000020e+01 1.459795000000000016e+02 2.015139999999999873e+03
1.360000000000000098e-01 1.512574999999999892e-01 2.147899999999999920e+01 1.450740000000000123e+02 2.014865000000000009e+03
1.370000000000000107e-01 1.512264999999999859e-01 2.078589999999999804e+01 1.440904999999999916e+02 2.014559999999999945e+03
1.380000000000000115e-01 1.511929999999999941e-01 2.007614999999999839e+01 1.430319999999999823e+02 2.014235000000000127e+03
1.390000000000000124e-01 1.511569999999999858e-01 1.935125000000000028e+01 1.419050000000000011e+02 2.013884999999999991e+03
1.400000000000000133e-01 1.511180000000000023e-01 1.861370000000000147e+01 1.407175000000000011e+02 2.013515000000000100e+03
1.410000000000000142e-01 1.510779999999999901e-01 1.786755000000000138e+01 1.394814999999999827e+02 2.013125000000000000e+03
1.420000000000000151e-01 1.510360000000000036e-01 1.711759999999999948e+01 1.382104999999999961e+02 2.012719999999999800e+03
1.430000000000000160e-01 1.509929999999999883e-01 1.636965000000000003e+01 1.369200000000000159e+02 2.012305000000000064e+03
1.440000000000000169e-01 1.509489999999999998e-01 1.563004999999999889e+01 1.356264999999999930e+02 2.011880000000000109e+03
1.450000000000000178e-01 1.509050000000000114e-01 1.490559999999999974e+01 1.343475000000000250e+02 2.011454999999999927e+03
1.459999999999999909e-01 1.508614999999999817e-01 1.420310000000000095e+01 1.331005000000000109e+02 2.011035000000000082e+03
1.469999999999999918e-01 1.508190000000000086e-01 1.352915000000000134e+01 1.319005000000000223e+02 2.010619999999999891e+03
1.479999999999999927e-01 1.507775000000000087e-01 1.288974999999999937e+01 1.307635000000000218e+02 2.010224999999999909e+03
1.489999999999999936e-01 1.507384999999999975e-01 1.229039999999999999e+01 1.297005000000000052e+02 2.009839999999999918e+03
1.499999999999999944e-01 1.507014999999999882e-01 1.173556999999999917e+01 1.287214999999999918e+02 2.009480000000000018e+03
1.509999999999999953e-01 1.506675000000000098e-01 1.122863500000000059e+01 1.278344999999999914e+02 2.009144999999999982e+03
1.519999999999999962e-01 1.506359999999999921e-01 1.077197500000000119e+01 1.270434999999999945e+02 2.008835000000000036e+03
1.529999999999999971e-01 1.506075000000000053e-01 1.036676999999999893e+01 1.263499999999999943e+02 2.008559999999999945e+03
1.539999999999999980e-01 1.505825000000000080e-01 1.001301000000000130e+01 1.257535000000000025e+02 2.008309999999999945e+03
1.549999999999999989e-01 1.505599999999999994e-01 9.709724999999998829e+00 1.252495000000000118e+02 2.008090000000000146e+03
1.559999999999999998e-01 1.505410000000000081e-01 9.454950000000000188e+00 1.248340000000000032e+02 2.007900000000000091e+03
1.570000000000000007e-01 1.505250000000000199e-01 9.246005000000000251e+00 1.244989999999999952e+02 2.007740000000000009e+03
1.580000000000000016e-01 1.505114999999999925e-01 9.079380000000000450e+00 1.242369999999999948e+02 2.007605000000000018e+03
1.590000000000000024e-01 1.505004999999999815e-01 8.951235000000000497e+00 1.240384999999999991e+02 2.007494999999999891e+03
