# t [s], A [cm^2], U [cm/s], P [cPa], c [cm/s]
1.000000000000000021e-03 5.592390000000000416e-01 3.752499999999998892e-03 9.458355000000000246e+01 1.601880000000000109e+03
2.000000000000000042e-03 5.592334999999999390e-01 5.771350000000000612e-03 9.455869999999998754e+01 1.601875000000000000e+03
3.000000000000000062e-03 5.592969999999999331e-01 1.392432000000000114e-01 9.469765000000001010e+01 1.601904999999999973e+03
4.000000000000000083e-03 5.593289999999999651e-01 2.220419999999999894e-01 9.479274999999999807e+01 1.601934999999999945e+03
5.000000000000000104e-03 5.592799999999999994e-01 1.467680000000000096e-01 9.464504999999999768e+01 1.601904999999999973e+03
6.000000000000000125e-03 5.592080000000000384e-01 1.654549999999999077e-02 9.433254999999999768e+01 1.601825000000000045e+03
7.000000000000000146e-03 5.591300000000000159e-01 -1.388099999999999890e-01 9.391114999999999213e+01 1.601724999999999909e+03
8.000000000000000167e-03 5.589914999999999745e-01 -4.315349999999998909e-01 9.324500000000000455e+01 1.601570000000000164e+03
9.000000000000001055e-03 5.587824999999999598e-01 -8.820449999999999680e-01 9.226005000000000678e+01 1.601335000000000036e+03
1.000000000000000194e-02 5.585005000000000663e-01 -1.482944999999999958e+00 9.091845000000000709e+01 1.601000000000000000e+03
1.099999999999999936e-02 5.581220000000000070e-01 -2.260419999999999874e+00 8.914300000000000068e+01 1.600559999999999945e+03
1.200000000000000025e-02 5.576494999999999092e-01 -3.185670000000000446e+00 8.691734999999999900e+01 1.599994999999999891e+03
1.300000000000000114e-02 5.571409999999999973e-01 -4.107459999999999667e+00 8.440084999999999127e+01 1.599335000000000036e+03
1.400000000000000203e-02 5.566820000000000102e-01 -4.809896500000000685e+00 8.189484999999999104e+01 1.598650000000000091e+03
1.499999999999999944e-02 5.563345000000000651e-01 -5.127022000000000190e+00 7.969604999999999961e+01 1.598019999999999982e+03
1.600000000000000033e-02 5.561095000000000343e-01 -5.012845000000000439e+00 7.796825000000001182e+01 1.597474999999999909e+03
1.700000000000000122e-02 5.559705000000000341e-01 -4.540445000000000064e+00 7.669784999999998831e+01 1.597029999999999973e+03
1.800000000000000211e-02 5.558564999999999756e-01 -3.855949999999999989e+00 7.572599999999999909e+01 1.596659999999999854e+03
1.900000000000000300e-02 5.557084999999999386e-01 -3.116460000000000008e+00 7.482604999999999507e+01 1.596315000000000055e+03
2.000000000000000042e-02 5.554879999999999818e-01 -2.434075235000000337e+00 7.379415000000000191e+01 1.595950000000000045e+03
2.100000000000000130e-02 5.551915000000000600e-01 -1.845175000000000232e+00 7.251924999999999955e+01 1.595530000000000200e+03
2.200000000000000219e-02 5.548429999999999751e-01 -1.316475000000000062e+00 7.100489999999999213e+01 1.595059999999999945e+03
2.299999999999999961e-02 5.544780000000000264e-01 -7.815600000000000325e-01 6.933814999999999884e+01 1.594554999999999836e+03
2.400000000000000050e-02 5.541234999999999911e-01 -1.861649999999999139e-01 6.762870000000000914e+01 1.594035000000000082e+03
2.500000000000000139e-02 5.537890000000000867e-01 4.791100000000003689e-01 6.595029999999999859e+01 1.593505000000000109e+03
2.600000000000000228e-02 5.534630000000000383e-01 1.168059999999999654e+00 6.430540000000000589e+01 1.592985000000000127e+03
2.700000000000000316e-02 5.531139999999999946e-01 1.788665000000000171e+00 6.261884999999999479e+01 1.592454999999999927e+03
2.800000000000000058e-02 5.527059999999999196e-01 2.226860000000000284e+00 6.075934999999999775e+01 1.591880000000000109e+03
2.900000000000000147e-02 5.522039999999999171e-01 2.376675000000000537e+00 5.857800000000000296e+01 1.591235000000000127e+03
3.000000000000000236e-02 5.515889999999999960e-01 2.169120000000000381e+00 5.595459999999999923e+01 1.590485000000000127e+03
3.099999999999999978e-02 5.508619999999999628e-01 1.592200000000000504e+00 5.283939999999999770e+01 1.589625000000000000e+03
3.200000000000000067e-02 5.500475000000000225e-01 6.958549999999998903e-01 4.927590000000000003e+01 1.588639999999999873e+03
3.300000000000000155e-02 5.491869999999999807e-01 -4.187500000000001776e-01 4.540090000000000003e+01 1.587574999999999818e+03
3.400000000000000244e-02 5.483339999999999881e-01 -1.620924999999999727e+00 4.142049999999999699e+01 1.586465000000000146e+03
3.500000000000000333e-02 5.475404999999999855e-01 -2.775195000000000523e+00 3.757569999999999766e+01 1.585380000000000109e+03
3.600000000000000422e-02 5.468520000000000048e-01 -3.762129999999999974e+00 3.410425000000000040e+01 1.584365000000000009e+03
3.700000000000000511e-02 5.463014999999999954e-01 -4.490790000000000504e+00 3.121050000000000324e+01 1.583480000000000018e+03
3.799999999999999906e-02 5.459104999999999652e-01 -4.903678999999999455e+00 2.904544999999999888e+01 1.582775000000000091e+03
3.899999999999999994e-02 5.456874999999999920e-01 -4.974084999999999646e+00 2.769930000000000092e+01 1.582285000000000082e+03
4.000000000000000083e-02 5.456309999999999771e-01 -4.699284999999999712e+00 2.720394999999999897e+01 1.582009999999999991e+03
4.100000000000000172e-02 5.457340000000000524e-01 -4.091874999999999929e+00 2.754435000000000144e+01 1.581970000000000027e+03
4.200000000000000261e-02 5.459840000000000249e-01 -3.171648499999999871e+00 2.867255000000000109e+01 1.582159999999999854e+03
4.300000000000000350e-02 5.463679999999999648e-01 -1.960054999999999881e+00 3.052199999999999847e+01 1.582554999999999836e+03
4.400000000000000439e-02 5.468744999999999301e-01 -4.781550000000001077e-01 3.301839999999999975e+01 1.583144999999999982e+03
4.499999999999999833e-02 5.474900000000000322e-01 1.252320000000000100e+00 3.608520000000000039e+01 1.583909999999999854e+03
4.599999999999999922e-02 5.481994999999999507e-01 3.205999999999999961e+00 3.964435000000000286e+01 1.584825000000000045e+03
4.700000000000000011e-02 5.489884999999999904e-01 5.350830000000000197e+00 4.361480000000000246e+01 1.585880000000000109e+03
4.800000000000000100e-02 5.498395000000000366e-01 7.646229999999999194e+00 4.790990000000000038e+01 1.587034999999999854e+03
4.900000000000000189e-02 5.507330000000000281e-01 1.004339500000000029e+01 5.243670000000000186e+01 1.588279999999999973e+03
5.000000000000000278e-02 5.516469999999999985e-01 1.248770000000000024e+01 5.709745000000000203e+01 1.589579999999999927e+03
5.100000000000000366e-02 5.525630000000000264e-01 1.492234000000000016e+01 6.179330000000000211e+01 1.590914999999999964e+03
5.200000000000000455e-02 5.534614999999999396e-01 1.729280500000000131e+01 6.643025000000000091e+01 1.592244999999999891e+03
5.300000000000000544e-02 5.543259999999999854e-01 1.955114999999999981e+01 7.092480000000000473e+01 1.593555000000000064e+03
5.399999999999999939e-02 5.551470000000000571e-01 2.165889999999999915e+01 7.520985000000000298e+01 1.594829999999999927e+03
5.500000000000000028e-02 5.559155000000000069e-01 2.358924999999999983e+01 7.923805000000000121e+01 1.596050000000000182e+03
5.600000000000000117e-02 5.566290000000000404e-01 2.532735000000000269e+01 8.298404999999999632e+01 1.597204999999999927e+03
5.700000000000000205e-02 5.572905000000000220e-01 2.686949999999999861e+01 8.644360000000000355e+01 1.598284999999999854e+03
5.800000000000000294e-02 5.579030000000000378e-01 2.822155000000000058e+01 8.963169999999999504e+01 1.599289999999999964e+03
5.900000000000000383e-02 5.584750000000000547e-01 2.939699999999999847e+01 9.257859999999999445e+01 1.600235000000000127e+03
6.000000000000000472e-02 5.590144999999999698e-01 3.041499999999999915e+01 9.532630000000000337e+01 1.601119999999999891e+03
6.099999999999999867e-02 5.595319999999999183e-01 3.129840000000000089e+01 9.792394999999999072e+01 1.601960000000000036e+03
6.199999999999999956e-02 5.600365000000000482e-01 3.207225000000000392e+01 1.004233499999999992e+02 1.602775000000000091e+03
6.300000000000000044e-02 5.605385000000000506e-01 3.276259999999999906e+01 1.028769499999999937e+02 1.603559999999999945e+03
6.400000000000000133e-02 5.610459999999999336e-01 3.339499999999999602e+01 1.053340000000000032e+02 1.604345000000000027e+03
6.500000000000000222e-02 5.615684999999999150e-01 3.399320000000000164e+01 1.078384999999999962e+02 1.605135000000000218e+03
6.600000000000000311e-02 5.621104999999999574e-01 3.457779999999999632e+01 1.104235000000000042e+02 1.605940000000000055e+03
6.700000000000000400e-02 5.626754999999999951e-01 3.516490000000000293e+01 1.131140000000000043e+02 1.606775000000000091e+03
6.800000000000000488e-02 5.632660000000000444e-01 3.576470000000000482e+01 1.159209999999999923e+02 1.607630000000000109e+03
6.900000000000000577e-02 5.638790000000000191e-01 3.638080000000000069e+01 1.188410000000000082e+02 1.608519999999999982e+03
7.000000000000000666e-02 5.645100000000000673e-01 3.700974999999999682e+01 1.218569999999999993e+02 1.609429999999999836e+03
7.100000000000000755e-02 5.651515000000000288e-01 3.764150000000000063e+01 1.249380000000000024e+02 1.610365000000000009e+03
7.200000000000000844e-02 5.657944999999999780e-01 3.826019999999999754e+01 1.280409999999999968e+02 1.611304999999999836e+03
7.300000000000000933e-02 5.664285000000000014e-01 3.884569999999999368e+01 1.311154999999999973e+02 1.612244999999999891e+03
7.399999999999999634e-02 5.670405000000000584e-01 3.937534999999999741e+01 1.341039999999999850e+02 1.613159999999999854e+03
7.499999999999999722e-02 5.676194999999999435e-01 3.982554999999999978e+01 1.369470000000000027e+02 1.614045000000000073e+03
7.599999999999999811e-02 5.681549999999999656e-01 4.017390000000000327e+01 1.395904999999999916e+02 1.614875000000000000e+03
7.699999999999999900e-02 5.686379999999999768e-01 4.040044999999999931e+01 1.419830000000000041e+02 1.615640000000000100e+03
7.799999999999999989e-02 5.690595000000000514e-01 4.048924999999999841e+01 1.440835000000000150e+02 1.616325000000000045e+03
7.900000000000000078e-02 5.694160000000000332e-01 4.042900000000000205e+01 1.458615000000000066e+02 1.616920000000000073e+03
8.000000000000000167e-02 5.697039999999999882e-01 4.021370000000000289e+01 1.472990000000000066e+02 1.617424999999999955e+03
8.100000000000000255e-02 5.699229999999999574e-01 3.984300000000000352e+01 1.483890000000000100e+02 1.617824999999999818e+03
8.200000000000000344e-02 5.700764999999999860e-01 3.932179999999999609e+01 1.491405000000000030e+02 1.618134999999999991e+03
8.300000000000000433e-02 5.701670000000000904e-01 3.866015000000000157e+01 1.495704999999999814e+02 1.618339999999999918e+03
8.400000000000000522e-02 5.702009999999999579e-01 3.787260000000000559e+01 1.497069999999999936e+02 1.618460000000000036e+03
8.500000000000000611e-02 5.701869999999999994e-01 3.697724999999999795e+01 1.495879999999999939e+02 1.618500000000000000e+03
8.600000000000000699e-02 5.701325000000000420e-01 3.599514999999999532e+01 1.492539999999999907e+02 1.618464999999999918e+03
8.700000000000000788e-02 5.700469999999999704e-01 3.494924999999999926e+01 1.487535000000000025e+02 1.618380000000000109e+03
8.800000000000000877e-02 5.699404999999999610e-01 3.386315000000000452e+01 1.481335000000000264e+02 1.618244999999999891e+03
8.899999999999999578e-02 5.698204999999999520e-01 3.276055000000000206e+01 1.474420000000000073e+02 1.618079999999999927e+03
8.999999999999999667e-02 5.696970000000000089e-01 3.166375000000000028e+01 1.467235000000000014e+02 1.617900000000000091e+03
9.099999999999999756e-02 5.695780000000000287e-01 3.059295000000000186e+01 1.460185000000000173e+02 1.617704999999999927e+03
9.199999999999999845e-02 5.694675000000000153e-01 2.956555000000000177e+01 1.453614999999999782e+02 1.617525000000000091e+03
9.299999999999999933e-02 5.693725000000000591e-01 2.859534999999999627e+01 1.447800000000000011e+02 1.617355000000000018e+03
9.400000000000000022e-02 5.692960000000000242e-01 2.769219999999999970e+01 1.442925000000000182e+02 1.617204999999999927e+03
9.500000000000000111e-02 5.692384999999999806e-01 2.686180000000000234e+01 1.439099999999999966e+02 1.617079999999999927e+03
9.600000000000000200e-02 5.692010000000000680e-01 2.610555000000000092e+01 1.436355000000000075e+02 1.616985000000000127e+03
9.700000000000000289e-02 5.691819999999999657e-01 2.542094999999999771e+01 1.434644999999999868e+02 1.616914999999999964e+03
9.800000000000000377e-02 5.691779999999999617e-01 2.480185000000000173e+01 1.433834999999999980e+02 1.616865000000000009e+03
9.900000000000000466e-02 5.691855000000000109e-01 2.423895000000000266e+01 1.433750000000000000e+02 1.616839999999999918e+03
1.000000000000000056e-01 5.692004999999999981e-01 2.372064999999999912e+01 1.434164999999999850e+02 1.616840000000000146e+03
1.010000000000000064e-01 5.692175000000000429e-01 2.323339999999999961e+01 1.434819999999999993e+02 1.616839999999999918e+03
1.020000000000000073e-01 5.692304999999999726e-01 2.276275000000000048e+01 1.435444999999999993e+02 1.616840000000000146e+03
1.030000000000000082e-01 5.692349999999999355e-01 2.229410000000000025e+01 1.435760000000000218e+02 1.616845000000000027e+03
1.040000000000000091e-01 5.692249999999999810e-01 2.181325000000000003e+01 1.435500000000000114e+02 1.616829999999999927e+03
1.050000000000000100e-01 5.691979999999999817e-01 2.130749999999999744e+01 1.434445000000000050e+02 1.616795000000000073e+03
1.059999999999999970e-01 5.691485000000000571e-01 2.076599999999999824e+01 1.432379999999999995e+02 1.616740000000000009e+03
1.069999999999999979e-01 5.690760000000000263e-01 2.018045000000000044e+01 1.429175000000000182e+02 1.616654999999999973e+03
1.079999999999999988e-01 5.689779999999999838e-01 1.954530000000000101e+01 1.424735000000000014e+02 1.616534999999999854e+03
1.089999999999999997e-01 5.688549999999999995e-01 1.885839999999999961e+01 1.419035000000000082e+02 1.616384999999999991e+03
1.100000000000000006e-01 5.687079999999999913e-01 1.812084999999999724e+01 1.412115000000000009e+02 1.616190000000000055e+03
1.110000000000000014e-01 5.685394999999999754e-01 1.733689999999999998e+01 1.404074999999999989e+02 1.615970000000000027e+03
1.120000000000000023e-01 5.683534999999999560e-01 1.651389999999999958e+01 1.395060000000000002e+02 1.615724999999999909e+03
1.130000000000000032e-01 5.681534999999999780e-01 1.566185000000000116e+01 1.385280000000000200e+02 1.615449999999999818e+03
1.140000000000000041e-01 5.679454999999999920e-01 1.479290999999999912e+01 1.374979999999999905e+02 1.615155000000000200e+03
1.150000000000000050e-01 5.677339999999999609e-01 1.392087000000000074e+01 1.364420000000000073e+02 1.614849999999999909e+03
1.160000000000000059e-01 5.675259999999999749e-01 1.306034000000000006e+01 1.353899999999999864e+02 1.614545000000000073e+03
1.170000000000000068e-01 5.673265000000000668e-01 1.222624000000000066e+01 1.343700000000000045e+02 1.614244999999999891e+03
1.180000000000000077e-01 5.671405000000000474e-01 1.143285999999999980e+01 1.334089999999999918e+02 1.613954999999999927e+03
1.190000000000000085e-01 5.669724999999999904e-01 1.069342500000000129e+01 1.325320000000000107e+02 1.613684999999999945e+03
1.200000000000000094e-01 5.668269999999999698e-01 1.001913500000000035e+01 1.317595000000000027e+02 1.613440000000000055e+03
1.209999999999999964e-01 5.667065000000000019e-01 9.419019999999999726e+00 1.311090000000000089e+02 1.613230000000000018e+03
1.219999999999999973e-01 5.666130000000000333e-01 8.899354999999999905e+00 1.305904999999999916e+02 1.613054999999999836e+03
1.229999999999999982e-01 5.665464999999999529e-01 8.463535000000000252e+00 1.302085000000000150e+02 1.612914999999999964e+03
1.239999999999999991e-01 5.665070000000000938e-01 8.111945000000000405e+00 1.299644999999999868e+02 1.612815000000000055e+03
1.250000000000000000e-01 5.664924999999999544e-01 7.842154999999999987e+00 1.298509999999999991e+02 1.612750000000000000e+03
1.260000000000000009e-01 5.665009999999999213e-01 7.649100000000000676e+00 1.298569999999999993e+02 1.612720000000000027e+03
1.270000000000000018e-01 5.665284999999999904e-01 7.525470000000000326e+00 1.299685000000000059e+02 1.612724999999999909e+03
1.280000000000000027e-01 5.665719999999999645e-01 7.462139999999999773e+00 1.301659999999999968e+02 1.612755000000000109e+03
1.290000000000000036e-01 5.666265000000000329e-01 7.448669999999999902e+00 1.304295000000000186e+02 1.612804999999999836e+03
1.300000000000000044e-01 5.666885000000000394e-01 7.473815000000000097e+00 1.307379999999999995e+02 1.612875000000000000e+03
1.310000000000000053e-01 5.667530000000000623e-01 7.526035000000000252e+00 1.310690000000000168e+02 1.612954999999999927e+03
1.320000000000000062e-01 5.668170000000000153e-01 7.594005000000000116e+00 1.314024999999999750e+02 1.613039999999999964e+03
1.330000000000000071e-01 5.668760000000000465e-01 7.666999999999999815e+00 1.317194999999999823e+02 1.613119999999999891e+03
1.340000000000000080e-01 5.669275000000000286e-01 7.735300000000000509e+00 1.320029999999999859e+02 1.613200000000000045e+03
1.350000000000000089e-01 5.669690000000000563e-01 7.790464999999999307e+00 1.322400000000000091e+02 1.613269999999999982e+03
1.360000000000000098e-01 5.669984999999999609e-01 7.825535000000000352e+00 1.324189999999999827e+02 1.613324999999999818e+03
1.370000000000000107e-01 5.670155000000000056e-01 7.835210000000000008e+00 1.325344999999999800e+02 1.613360000000000127e+03
1.380000000000000115e-01 5.670184999999999809e-01 7.815865000000000506e+00 1.325819999999999936e+02 1.613384999999999991e+03
1.390000000000000124e-01 5.670085000000000264e-01 7.765530000000000044e+00 1.325610000000000070e+02 1.613384999999999991e+03
1.400000000000000133e-01 5.669859999999999900e-01 7.683870000000000644e+00 1.324749999999999943e+02 1.613369999999999891e+03
1.410000000000000142e-01 5.669520000000000115e-01 7.571984999999999744e+00 1.323269999999999982e+02 1.613335000000000036e+03
1.420000000000000151e-01 5.669085000000000374e-01 7.432249999999999801e+00 1.321254999999999882e+02 1.613289999999999964e+03
1.430000000000000160e-01 5.668564999999999854e-01 7.268124999999999503e+00 1.318774999999999977e+02 1.613224999999999909e+03
1.440000000000000169e-01 5.667984999999999829e-01 7.083879999999999733e+00 1.315944999999999823e+02 1.613150000000000091e+03
1.450000000000000178e-01 5.667360000000000175e-01 6.884339999999999904e+00 1.312850000000000250e+02 1.613069999999999936e+03
1.459999999999999909e-01 5.666709999999999248e-01 6.674635000000000318e+00 1.309594999999999914e+02 1.612980000000000018e+03
1.469999999999999918e-01 5.666059999999999430e-01 6.459925000000000139e+00 1.306274999999999977e+02 1.612884999999999991e+03
1.479999999999999927e-01 5.665419999999999900e-01 6.245169999999999888e+00 1.302980000000000018e+02 1.612795000000000073e+03
1.489999999999999936e-01 5.664804999999999424e-01 6.034905000000000186e+00 1.299784999999999968e+02 1.612700000000000045e+03
1.499999999999999944e-01 5.664225000000000509e-01 5.833075000000000010e+00 1.296744999999999948e+02 1.612609999999999900e+03
1.509999999999999953e-01 5.663690000000000113e-01 5.642875000000000085e+00 1.293899999999999864e+02 1.612529999999999973e+03
1.519999999999999962e-01 5.663205000000000044e-01 5.466709999999999958e+00 1.291285000000000025e+02 1.612449999999999818e+03
1.529999999999999971e-01 5.662760000000000016e-01 5.306124999999999758e+00 1.288905000000000030e+02 1.612375000000000000e+03
1.539999999999999980e-01 5.662365000000000315e-01 5.161834999999999951e+00 1.286754999999999995e+02 1.612305000000000064e+03
1.549999999999999989e-01 5.662004999999999955e-01 5.033784999999999954e+00 1.284815000000000111e+02 1.612244999999999891e+03
1.559999999999999998e-01 5.661674999999999347e-01 4.921265000000000001e+00 1.283054999999999950e+02 1.612190000000000055e+03
1.570000000000000007e-01 5.661370000000000013e-01 4.823010000000000019e+00 1.281430000000000007e+02 1.612134999999999991e+03
1.580000000000000016e-01 5.661080000000000556e-01 4.737359999999999793e+00 1.279894999999999925e+02 1.612079999999999927e+03
1.590000000000000024e-01 5.660789999999999988e-01 4.662395000000000067e+00 1.278404999999999916e+02 1.612035000000000082e+03
