# t [s], A [cm^2], U [cm/s], P [cPa], c [cm/s]
1.000000000000000021e-03 1.320550000000000057e-01 3.236335000000000184e-01 8.950059999999999150e+01 1.932464999999999918e+03
2.000000000000000042e-03 1.320264999999999911e-01 1.767939000000000149e+00 8.652049999999999841e+01 1.932150000000000091e+03
3.000000000000000062e-03 1.319400000000000017e-01 3.521226999999999663e+00 8.255740000000000123e+01 1.931199999999999818e+03
4.000000000000000083e-03 1.318165000000000031e-01 5.469391499999999517e+00 7.826730000000000587e+01 1.929880000000000109e+03
5.000000000000000104e-03 1.316800000000000193e-01 7.557700000000000529e+00 7.439849999999999852e+01 1.928424999999999955e+03
6.000000000000000125e-03 1.315449999999999953e-01 9.651484999999999204e+00 7.123385000000000389e+01 1.927005000000000109e+03
7.000000000000000146e-03 1.314170000000000060e-01 1.157004500000000036e+01 6.859550000000000125e+01 1.925675000000000182e+03
8.000000000000000167e-03 1.312979999999999980e-01 1.321776000000000018e+01 6.623675000000000068e+01 1.924460000000000036e+03
9.000000000000001055e-03 1.311900000000000011e-01 1.461305499999999924e+01 6.414100000000000534e+01 1.923375000000000000e+03
1.000000000000000194e-02 1.310965000000000047e-01 1.579294999999999938e+01 6.238304999999999723e+01 1.922445000000000164e+03
1.099999999999999936e-02 1.310164999999999802e-01 1.677125000000000199e+01 6.096215000000000117e+01 1.921660000000000082e+03
1.200000000000000025e-02 1.309510000000000118e-01 1.755734999999999957e+01 5.982880000000000109e+01 1.921019999999999982e+03
1.300000000000000114e-02 1.308980000000000143e-01 1.815915000000000035e+01 5.892050000000000409e+01 1.920505000000000109e+03
1.400000000000000203e-02 1.308539999999999981e-01 1.858079999999999998e+01 5.815484999999999616e+01 1.920095000000000027e+03
1.499999999999999944e-02 1.308165000000000022e-01 1.884559999999999746e+01 5.747414999999999452e+01 1.919750000000000000e+03
1.600000000000000033e-02 1.307865000000000000e-01 1.902459999999999951e+01 5.693795000000000073e+01 1.919474999999999909e+03
1.700000000000000122e-02 1.307665000000000077e-01 1.923060000000000258e+01 5.675374999999999659e+01 1.919299999999999955e+03
1.800000000000000211e-02 1.307630000000000181e-01 1.957375000000000043e+01 5.718580000000000041e+01 1.919275000000000091e+03
1.900000000000000300e-02 1.307790000000000064e-01 2.010699999999999932e+01 5.839785000000000537e+01 1.919449999999999818e+03
2.000000000000000042e-02 1.308175000000000032e-01 2.079910000000000281e+01 6.033440000000000225e+01 1.919825000000000045e+03
2.100000000000000130e-02 1.308725000000000027e-01 2.154449999999999932e+01 6.270730000000000359e+01 1.920375000000000000e+03
2.200000000000000219e-02 1.309369999999999978e-01 2.220335000000000036e+01 6.508395000000000152e+01 1.921019999999999982e+03
2.299999999999999961e-02 1.309990000000000043e-01 2.264885000000000304e+01 6.702795000000000414e+01 1.921644999999999982e+03
2.400000000000000050e-02 1.310494999999999854e-01 2.280580000000000140e+01 6.823040000000000305e+01 1.922170000000000073e+03
2.500000000000000139e-02 1.310824999999999907e-01 2.266629999999999967e+01 6.858754999999999313e+01 1.922525000000000091e+03
2.600000000000000228e-02 1.310969999999999913e-01 2.228300000000000125e+01 6.820385000000000275e+01 1.922690000000000055e+03
2.700000000000000316e-02 1.310945000000000027e-01 2.174314999999999998e+01 6.732945000000000846e+01 1.922690000000000055e+03
2.800000000000000058e-02 1.310810000000000031e-01 2.113714999999999833e+01 6.626149999999999807e+01 1.922569999999999936e+03
2.900000000000000147e-02 1.310624999999999984e-01 2.053119999999999834e+01 6.524799999999999045e+01 1.922389999999999873e+03
3.000000000000000236e-02 1.310430000000000206e-01 1.995360000000000156e+01 6.442409999999999570e+01 1.922204999999999927e+03
3.099999999999999978e-02 1.310250000000000026e-01 1.939589999999999748e+01 6.379725000000000534e+01 1.922025000000000091e+03
3.200000000000000067e-02 1.310089999999999866e-01 1.882569999999999766e+01 6.327500000000000568e+01 1.921865000000000009e+03
3.300000000000000155e-02 1.309925000000000117e-01 1.820554999999999879e+01 6.272065000000000623e+01 1.921699999999999818e+03
3.400000000000000244e-02 1.309734999999999927e-01 1.751174999999999926e+01 6.201539999999999964e+01 1.921509999999999991e+03
3.500000000000000333e-02 1.309494999999999965e-01 1.674705000000000155e+01 6.110864999999999725e+01 1.921284999999999854e+03
3.600000000000000422e-02 1.309210000000000096e-01 1.594519999999999982e+01 6.004319999999999879e+01 1.921005000000000109e+03
3.700000000000000511e-02 1.308900000000000063e-01 1.516529999999999845e+01 5.895080000000000098e+01 1.920700000000000045e+03
3.799999999999999906e-02 1.308599999999999763e-01 1.447905000000000086e+01 5.801959999999999695e+01 1.920400000000000091e+03
3.899999999999999994e-02 1.308354999999999935e-01 1.395354999999999990e+01 5.744469999999999743e+01 1.920154999999999973e+03
4.000000000000000083e-02 1.308215000000000072e-01 1.363520000000000110e+01 5.737630000000000052e+01 1.920009999999999991e+03
4.100000000000000172e-02 1.308215000000000072e-01 1.353849999999999909e+01 5.787935000000000230e+01 1.919990000000000009e+03
4.200000000000000261e-02 1.308354999999999935e-01 1.364254999999999995e+01 5.891549999999999443e+01 1.920119999999999891e+03
4.300000000000000350e-02 1.308630000000000071e-01 1.389484999999999992e+01 6.034820000000000562e+01 1.920384999999999991e+03
4.400000000000000439e-02 1.309009999999999896e-01 1.422129999999999939e+01 6.196925000000000239e+01 1.920739999999999782e+03
4.499999999999999833e-02 1.309425000000000172e-01 1.453819999999999979e+01 6.353669999999999618e+01 1.921150000000000091e+03
4.599999999999999922e-02 1.309825000000000017e-01 1.476565000000000083e+01 6.481534999999999513e+01 1.921550000000000182e+03
4.700000000000000011e-02 1.310155000000000070e-01 1.483729999999999905e+01 6.561135000000000161e+01 1.921875000000000000e+03
4.800000000000000100e-02 1.310354999999999992e-01 1.470680000000000121e+01 6.579519999999999413e+01 1.922085000000000036e+03
4.900000000000000189e-02 1.310399999999999898e-01 1.435095000000000098e+01 6.531055000000000632e+01 1.922134999999999991e+03
5.000000000000000278e-02 1.310270000000000046e-01 1.376745000000000019e+01 6.417069999999999652e+01 1.922019999999999982e+03
5.100000000000000366e-02 1.309965000000000157e-01 1.297194999999999965e+01 6.244480000000000075e+01 1.921720000000000027e+03
5.200000000000000455e-02 1.309489999999999821e-01 1.199247499999999889e+01 6.023924999999999841e+01 1.921255000000000109e+03
5.300000000000000544e-02 1.308880000000000043e-01 1.086469999999999914e+01 5.767849999999999966e+01 1.920654999999999973e+03
5.399999999999999939e-02 1.308159999999999878e-01 9.627465000000000828e+00 5.488930000000000575e+01 1.919944999999999936e+03
5.500000000000000028e-02 1.307349999999999901e-01 8.320425000000000182e+00 5.199004999999999654e+01 1.919150000000000091e+03
5.600000000000000117e-02 1.306505000000000027e-01 6.982580000000000453e+00 4.908585000000000065e+01 1.918300000000000182e+03
5.700000000000000205e-02 1.305629999999999846e-01 5.651880000000000237e+00 4.626845000000000141e+01 1.917440000000000055e+03
5.800000000000000294e-02 1.304770000000000096e-01 4.365902999999999423e+00 4.361894999999999811e+01 1.916579999999999927e+03
5.900000000000000383e-02 1.303950000000000109e-01 3.162027050000000283e+00 4.121215000000000117e+01 1.915759999999999991e+03
6.000000000000000472e-02 1.303185000000000038e-01 2.077631499999999853e+00 3.911934999999999718e+01 1.914994999999999891e+03
6.099999999999999867e-02 1.302510000000000057e-01 1.149680000000000035e+00 3.741049999999999898e+01 1.914315000000000055e+03
6.199999999999999956e-02 1.301944999999999908e-01 4.136599999999999167e-01 3.615314999999999657e+01 1.913744999999999891e+03
6.300000000000000044e-02 1.301505000000000023e-01 -9.798499999999998877e-02 3.541004999999999825e+01 1.913300000000000182e+03
6.400000000000000133e-02 1.301225000000000021e-01 -3.576405000000000278e-01 3.523505000000000109e+01 1.913005000000000109e+03
6.500000000000000222e-02 1.301105000000000178e-01 -3.443519999999999914e-01 3.566855000000000331e+01 1.912869999999999891e+03
6.600000000000000311e-02 1.301174999999999971e-01 -4.534399999999999542e-02 3.673324999999999818e+01 1.912920000000000073e+03
6.700000000000000400e-02 1.301430000000000087e-01 5.429559999999999942e-01 3.843104999999999905e+01 1.913155000000000200e+03
6.800000000000000488e-02 1.301875000000000115e-01 1.414540499999999978e+00 4.074210000000000065e+01 1.913579999999999927e+03
6.900000000000000577e-02 1.302514999999999923e-01 2.554083150000000302e+00 4.362474999999999881e+01 1.914194999999999936e+03
7.000000000000000666e-02 1.303324999999999900e-01 3.937833000000000361e+00 4.701839999999999975e+01 1.914984999999999900e+03
7.100000000000000755e-02 1.304305000000000048e-01 5.534970000000000390e+00 5.084680000000000177e+01 1.915940000000000055e+03
7.200000000000000844e-02 1.305419999999999914e-01 7.309264999999999901e+00 5.502280000000000371e+01 1.917039999999999964e+03
7.300000000000000933e-02 1.306654999999999900e-01 9.220950000000000202e+00 5.945329999999999870e+01 1.918255000000000109e+03
7.399999999999999634e-02 1.307979999999999976e-01 1.122859500000000033e+01 6.404420000000000357e+01 1.919570000000000164e+03
7.499999999999999722e-02 1.309369999999999978e-01 1.329110000000000014e+01 6.870510000000000161e+01 1.920954999999999927e+03
7.599999999999999811e-02 1.310800000000000021e-01 1.536919999999999931e+01 7.335349999999999682e+01 1.922380000000000109e+03
7.699999999999999900e-02 1.312234999999999929e-01 1.742725000000000080e+01 7.791825000000000045e+01 1.923825000000000045e+03
7.799999999999999989e-02 1.313670000000000115e-01 1.943435000000000201e+01 8.234205000000000041e+01 1.925265000000000100e+03
7.900000000000000078e-02 1.315074999999999994e-01 2.136544999999999916e+01 8.658339999999999748e+01 1.926684999999999945e+03
8.000000000000000167e-02 1.316444999999999976e-01 2.320175000000000054e+01 9.061709999999999354e+01 1.928065000000000055e+03
8.100000000000000255e-02 1.317754999999999899e-01 2.493120000000000047e+01 9.443420000000000414e+01 1.929400000000000091e+03
8.200000000000000344e-02 1.319020000000000192e-01 2.654800000000000182e+01 9.803970000000001050e+01 1.930684999999999945e+03
8.300000000000000433e-02 1.320224999999999871e-01 2.805194999999999794e+01 1.014512000000000000e+02 1.931914999999999964e+03
8.400000000000000522e-02 1.321380000000000055e-01 2.944790000000000063e+01 1.046972499999999968e+02 1.933099999999999909e+03
8.500000000000000611e-02 1.322484999999999911e-01 3.074414999999999765e+01 1.078089999999999975e+02 1.934234999999999900e+03
8.600000000000000699e-02 1.323560000000000014e-01 3.195149999999999935e+01 1.108230000000000075e+02 1.935329999999999927e+03
8.700000000000000788e-02 1.324595000000000078e-01 3.308169999999999789e+01 1.137729999999999961e+02 1.936400000000000091e+03
8.800000000000000877e-02 1.325609999999999844e-01 3.414639999999999986e+01 1.166889999999999930e+02 1.937445000000000164e+03
8.899999999999999578e-02 1.326614999999999878e-01 3.515610000000000213e+01 1.195939999999999941e+02 1.938474999999999909e+03
8.999999999999999667e-02 1.327614999999999768e-01 3.611910000000000309e+01 1.225035000000000025e+02 1.939505000000000109e+03
9.099999999999999756e-02 1.328604999999999925e-01 3.704129999999999967e+01 1.254240000000000066e+02 1.940525000000000091e+03
9.199999999999999845e-02 1.329599999999999949e-01 3.792544999999999789e+01 1.283524999999999920e+02 1.941549999999999955e+03
9.299999999999999933e-02 1.330584999999999962e-01 3.877139999999999986e+01 1.312775000000000034e+02 1.942569999999999936e+03
9.400000000000000022e-02 1.331574999999999842e-01 3.957625000000000171e+01 1.341804999999999950e+02 1.943579999999999927e+03
9.500000000000000111e-02 1.332544999999999980e-01 4.033435000000000059e+01 1.370364999999999895e+02 1.944590000000000146e+03
9.600000000000000200e-02 1.333504999999999829e-01 4.103810000000000002e+01 1.398170000000000073e+02 1.945579999999999927e+03
9.700000000000000289e-02 1.334440000000000071e-01 4.167839999999999634e+01 1.424900000000000091e+02 1.946545000000000073e+03
9.800000000000000377e-02 1.335339999999999860e-01 4.224509999999999366e+01 1.450225000000000080e+02 1.947474999999999909e+03
9.900000000000000466e-02 1.336200000000000165e-01 4.272780000000000200e+01 1.473834999999999980e+02 1.948364999999999782e+03
1.000000000000000056e-01 1.337004999999999999e-01 4.311650000000000205e+01 1.495434999999999945e+02 1.949199999999999818e+03
1.010000000000000064e-01 1.337749999999999773e-01 4.340194999999999936e+01 1.514769999999999754e+02 1.949974999999999909e+03
1.020000000000000073e-01 1.338425000000000031e-01 4.357625000000000171e+01 1.531614999999999895e+02 1.950674999999999955e+03
1.030000000000000082e-01 1.339024999999999799e-01 4.363339999999999463e+01 1.545824999999999818e+02 1.951309999999999945e+03
1.040000000000000091e-01 1.339545000000000041e-01 4.356960000000000122e+01 1.557289999999999850e+02 1.951855000000000018e+03
1.050000000000000100e-01 1.339980000000000060e-01 4.338335000000000008e+01 1.565975000000000250e+02 1.952309999999999945e+03
1.059999999999999970e-01 1.340330000000000132e-01 4.307569999999999766e+01 1.571914999999999907e+02 1.952679999999999836e+03
1.069999999999999979e-01 1.340589999999999837e-01 4.265059999999999718e+01 1.575185000000000173e+02 1.952960000000000036e+03
1.079999999999999988e-01 1.340764999999999874e-01 4.211440000000000339e+01 1.575939999999999941e+02 1.953154999999999973e+03
1.089999999999999997e-01 1.340864999999999974e-01 4.147570000000000334e+01 1.574390000000000214e+02 1.953264999999999873e+03
1.100000000000000006e-01 1.340890000000000137e-01 4.074545000000000528e+01 1.570765000000000100e+02 1.953300000000000182e+03
1.110000000000000014e-01 1.340844999999999954e-01 3.993625000000000114e+01 1.565355000000000132e+02 1.953259999999999991e+03
1.120000000000000023e-01 1.340740000000000265e-01 3.906190000000000140e+01 1.558455000000000155e+02 1.953164999999999964e+03
1.130000000000000032e-01 1.340585000000000249e-01 3.813689999999999714e+01 1.550384999999999991e+02 1.953009999999999991e+03
1.140000000000000041e-01 1.340379999999999905e-01 3.717614999999999981e+01 1.541454999999999984e+02 1.952815000000000055e+03
1.150000000000000050e-01 1.340149999999999952e-01 3.619420000000000215e+01 1.531965000000000146e+02 1.952575000000000045e+03
1.160000000000000059e-01 1.339894999999999836e-01 3.520494999999999663e+01 1.522199999999999989e+02 1.952315000000000055e+03
1.170000000000000068e-01 1.339619999999999977e-01 3.422095000000000198e+01 1.512400000000000091e+02 1.952039999999999964e+03
1.180000000000000077e-01 1.339339999999999975e-01 3.325334999999999752e+01 1.502769999999999868e+02 1.951750000000000000e+03
1.190000000000000085e-01 1.339055000000000106e-01 3.231145000000000067e+01 1.493485000000000014e+02 1.951454999999999927e+03
1.200000000000000094e-01 1.338774999999999826e-01 3.140249999999999986e+01 1.484654999999999916e+02 1.951170000000000073e+03
1.209999999999999964e-01 1.338504999999999834e-01 3.053154999999999930e+01 1.476349999999999909e+02 1.950884999999999991e+03
1.219999999999999973e-01 1.338245000000000129e-01 2.970145000000000124e+01 1.468600000000000136e+02 1.950615000000000009e+03
1.229999999999999982e-01 1.337995000000000156e-01 2.891300000000000026e+01 1.461374999999999886e+02 1.950355000000000018e+03
1.239999999999999991e-01 1.337754999999999916e-01 2.816485000000000127e+01 1.454610000000000127e+02 1.950110000000000127e+03
1.250000000000000000e-01 1.337535000000000251e-01 2.745390000000000086e+01 1.448209999999999980e+02 1.949875000000000000e+03
1.260000000000000009e-01 1.337315000000000031e-01 2.677540000000000120e+01 1.442044999999999959e+02 1.949644999999999982e+03
1.270000000000000018e-01 1.337105000000000099e-01 2.612335000000000207e+01 1.435964999999999918e+02 1.949424999999999955e+03
1.280000000000000027e-01 1.336895000000000167e-01 2.549089999999999989e+01 1.429809999999999945e+02 1.949204999999999927e+03
1.290000000000000036e-01 1.336689999999999823e-01 2.487055000000000149e+01 1.423404999999999916e+02 1.948985000000000127e+03
1.300000000000000044e-01 1.336470000000000158e-01 2.425450000000000017e+01 1.416585000000000036e+02 1.948755000000000109e+03
1.310000000000000053e-01 1.336240000000000205e-01 2.363544999999999874e+01 1.409194999999999993e+02 1.948519999999999982e+03
1.320000000000000062e-01 1.335985000000000089e-01 2.300649999999999906e+01 1.401094999999999970e+02 1.948259999999999991e+03
1.330000000000000071e-01 1.335720000000000240e-01 2.236140000000000327e+01 1.392180000000000177e+02 1.947980000000000018e+03
1.340000000000000080e-01 1.335425000000000084e-01 2.169550000000000267e+01 1.382359999999999900e+02 1.947679999999999836e+03
1.350000000000000089e-01 1.335109999999999908e-01 2.100529999999999831e+01 1.371594999999999800e+02 1.947355000000000018e+03
1.360000000000000098e-01 1.334759999999999835e-01 2.028894999999999982e+01 1.359875000000000114e+02 1.947000000000000000e+03
1.370000000000000107e-01 1.334390000000000021e-01 1.954654999999999987e+01 1.347230000000000132e+02 1.946615000000000009e+03
1.380000000000000115e-01 1.333989999999999898e-01 1.877955000000000041e+01 1.333739999999999952e+02 1.946204999999999927e+03
1.390000000000000124e-01 1.333560000000000023e-01 1.799164999999999992e+01 1.319515000000000100e+02 1.945764999999999873e+03
1.400000000000000133e-01 1.333110000000000128e-01 1.718769999999999953e+01 1.304689999999999941e+02 1.945304999999999836e+03
1.410000000000000142e-01 1.332639999999999936e-01 1.637424999999999997e+01 1.289455000000000098e+02 1.944824999999999818e+03
1.420000000000000151e-01 1.332154999999999867e-01 1.555890000000000128e+01 1.273995000000000033e+02 1.944324999999999818e+03
1.430000000000000160e-01 1.331665000000000210e-01 1.475009999999999977e+01 1.258530000000000086e+02 1.943819999999999936e+03
1.440000000000000169e-01 1.331165000000000265e-01 1.395674999999999955e+01 1.243264999999999958e+02 1.943319999999999936e+03
1.450000000000000178e-01 1.330675000000000052e-01 1.318795000000000073e+01 1.228429999999999893e+02 1.942815000000000055e+03
1.459999999999999909e-01 1.330195000000000127e-01 1.245238499999999959e+01 1.214210000000000065e+02 1.942319999999999936e+03
1.469999999999999918e-01 1.329734999999999945e-01 1.175814499999999896e+01 1.200794999999999959e+02 1.941845000000000027e+03
1.479999999999999927e-01 1.329295000000000060e-01 1.111242500000000000e+01 1.188340000000000032e+02 1.941389999999999873e+03
1.489999999999999936e-01 1.328874999999999917e-01 1.052114999999999867e+01 1.176959999999999980e+02 1.940964999999999918e+03
1.499999999999999944e-01 1.328495000000000092e-01 9.988865000000000549e+00 1.166754999999999995e+02 1.940569999999999936e+03
1.509999999999999953e-01 1.328145000000000020e-01 9.518444999999999823e+00 1.157770000000000010e+02 1.940204999999999927e+03
1.519999999999999962e-01 1.327829999999999844e-01 9.111354999999999649e+00 1.150005000000000024e+02 1.939875000000000000e+03
1.529999999999999971e-01 1.327550000000000119e-01 8.767220000000000013e+00 1.143455000000000013e+02 1.939590000000000146e+03
1.539999999999999980e-01 1.327305000000000013e-01 8.484384999999999621e+00 1.138050000000000068e+02 1.939335000000000036e+03
1.549999999999999989e-01 1.327099999999999946e-01 8.259700000000000486e+00 1.133714999999999975e+02 1.939119999999999891e+03
1.559999999999999998e-01 1.326930000000000054e-01 8.088885000000001213e+00 1.130335000000000036e+02 1.938940000000000055e+03
1.570000000000000007e-01 1.326785000000000048e-01 7.966700000000000337e+00 1.127794999999999987e+02 1.938789999999999964e+03
1.580000000000000016e-01 1.326669999999999794e-01 7.887185000000000556e+00 1.125949999999999989e+02 1.938660000000000082e+03
1.590000000000000024e-01 1.326579999999999981e-01 7.843939999999999912e+00 1.124664999999999964e+02 1.938565000000000055e+03
