# t [s], A [cm^2], U [cm/s], P [cPa], c [cm/s]
1.000000000000000021e-03 1.247290000000000065e-01 2.817385000000000028e-01 9.705430000000001201e+01 2.000329999999999927e+03
2.000000000000000042e-03 1.247029999999999944e-01 1.742693500000000117e+00 9.400405000000000655e+01 1.999970000000000027e+03
3.000000000000000062e-03 1.246210000000000095e-01 3.548451000000000022e+00 8.986494999999999322e+01 1.998910000000000082e+03
4.000000000000000083e-03 1.245034999999999892e-01 5.567470499999999767e+00 8.527479999999999905e+01 1.997405000000000200e+03
5.000000000000000104e-03 1.243724999999999969e-01 7.740255000000000329e+00 8.103324999999999534e+01 1.995740000000000009e+03
6.000000000000000125e-03 1.242425000000000057e-01 9.932999999999999829e+00 7.749660000000000082e+01 1.994105000000000018e+03
7.000000000000000146e-03 1.241194999999999937e-01 1.195725000000000016e+01 7.453374999999999773e+01 1.992579999999999927e+03
8.000000000000000167e-03 1.240040000000000031e-01 1.370066999999999879e+01 7.189484999999999104e+01 1.991184999999999945e+03
9.000000000000001055e-03 1.239004999999999967e-01 1.517220000000000013e+01 6.954994999999999550e+01 1.989949999999999818e+03
1.000000000000000194e-02 1.238105000000000039e-01 1.640970000000000084e+01 6.757850000000000534e+01 1.988880000000000109e+03
1.099999999999999936e-02 1.237344999999999973e-01 1.743140000000000001e+01 6.599334999999999241e+01 1.987994999999999891e+03
1.200000000000000025e-02 1.236724999999999908e-01 1.824924999999999997e+01 6.475164999999999793e+01 1.987279999999999973e+03
1.300000000000000114e-02 1.236224999999999963e-01 1.887049999999999983e+01 6.378409999999999513e+01 1.986710000000000036e+03
1.400000000000000203e-02 1.235825000000000118e-01 1.929664999999999964e+01 6.299020000000000152e+01 1.986255000000000109e+03
1.499999999999999944e-02 1.235489999999999922e-01 1.955000000000000071e+01 6.229455000000000098e+01 1.985889999999999873e+03
1.600000000000000033e-02 1.235220000000000068e-01 1.970474999999999710e+01 6.175100000000000477e+01 1.985610000000000127e+03
1.700000000000000122e-02 1.235050000000000037e-01 1.988009999999999877e+01 6.157620000000000005e+01 1.985434999999999945e+03
1.800000000000000211e-02 1.235040000000000027e-01 2.019129999999999825e+01 6.204885000000000161e+01 1.985429999999999836e+03
1.900000000000000300e-02 1.235219999999999929e-01 2.069369999999999976e+01 6.334095000000000653e+01 1.985650000000000091e+03
2.000000000000000042e-02 1.235600000000000032e-01 2.135504999999999853e+01 6.539329999999999643e+01 1.986099999999999909e+03
2.100000000000000130e-02 1.236135000000000150e-01 2.206830000000000069e+01 6.790460000000000207e+01 1.986735000000000127e+03
2.200000000000000219e-02 1.236744999999999928e-01 2.269379999999999953e+01 7.042804999999999893e+01 1.987470000000000027e+03
2.299999999999999961e-02 1.237334999999999963e-01 2.310864999999999725e+01 7.251970000000000027e+01 1.988179999999999836e+03
2.400000000000000050e-02 1.237815000000000026e-01 2.324380000000000024e+01 7.387335000000000207e+01 1.988775000000000091e+03
2.500000000000000139e-02 1.238144999999999940e-01 2.309815000000000040e+01 7.439525000000000432e+01 1.989190000000000055e+03
2.600000000000000228e-02 1.238305000000000100e-01 2.272824999999999918e+01 7.420070000000001187e+01 1.989409999999999854e+03
2.700000000000000316e-02 1.238329999999999986e-01 2.222109999999999985e+01 7.354455000000000098e+01 1.989460000000000036e+03
2.800000000000000058e-02 1.238265000000000060e-01 2.166169999999999973e+01 7.271860000000000923e+01 1.989394999999999982e+03
2.900000000000000147e-02 1.238160000000000094e-01 2.110784999999999911e+01 7.195504999999999995e+01 1.989275000000000091e+03
3.000000000000000236e-02 1.238045000000000118e-01 2.057764999999999844e+01 7.136674999999999613e+01 1.989150000000000091e+03
3.099999999999999978e-02 1.237949999999999884e-01 2.005339999999999989e+01 7.093760000000000332e+01 1.989034999999999854e+03
3.200000000000000067e-02 1.237855000000000066e-01 1.949660000000000082e+01 7.055620000000000402e+01 1.988920000000000073e+03
3.300000000000000155e-02 1.237744999999999956e-01 1.886755000000000138e+01 7.007630000000000337e+01 1.988795000000000073e+03
3.400000000000000244e-02 1.237594999999999945e-01 1.814470000000000027e+01 6.938145000000000095e+01 1.988619999999999891e+03
3.500000000000000333e-02 1.237385000000000013e-01 1.733680000000000021e+01 6.843600000000000705e+01 1.988384999999999991e+03
3.600000000000000422e-02 1.237125000000000030e-01 1.648570000000000135e+01 6.730719999999999459e+01 1.988085000000000036e+03
3.700000000000000511e-02 1.236845000000000028e-01 1.565874999999999950e+01 6.615500000000000114e+01 1.987750000000000000e+03
3.799999999999999906e-02 1.236575000000000035e-01 1.493349999999999866e+01 6.519235000000000468e+01 1.987429999999999836e+03
3.899999999999999994e-02 1.236365000000000103e-01 1.437930000000000064e+01 6.462969999999999970e+01 1.987179999999999836e+03
4.000000000000000083e-02 1.236259999999999998e-01 1.404064999999999941e+01 6.461955000000000382e+01 1.987039999999999964e+03
4.100000000000000172e-02 1.236279999999999879e-01 1.392745000000000033e+01 6.521729999999999450e+01 1.987054999999999836e+03
4.200000000000000261e-02 1.236445000000000044e-01 1.401295000000000002e+01 6.636645000000000039e+01 1.987230000000000018e+03
4.300000000000000350e-02 1.236724999999999908e-01 1.423989999999999867e+01 6.791089999999999804e+01 1.987555000000000064e+03
4.400000000000000439e-02 1.237095000000000000e-01 1.453175000000000061e+01 6.962619999999999720e+01 1.987974999999999909e+03
4.499999999999999833e-02 1.237489999999999979e-01 1.480600000000000094e+01 7.126215000000000543e+01 1.988440000000000055e+03
4.599999999999999922e-02 1.237869999999999943e-01 1.498675000000000068e+01 7.258465000000001055e+01 1.988884999999999991e+03
4.700000000000000011e-02 1.238169999999999965e-01 1.501409999999999911e+01 7.340970000000000084e+01 1.989244999999999891e+03
4.800000000000000100e-02 1.238355000000000011e-01 1.484950000000000081e+01 7.362319999999999709e+01 1.989470000000000027e+03
4.900000000000000189e-02 1.238394999999999913e-01 1.447620000000000040e+01 7.318625000000000114e+01 1.989530000000000200e+03
5.000000000000000278e-02 1.238279999999999936e-01 1.389740000000000109e+01 7.212715000000000032e+01 1.989410000000000082e+03
5.100000000000000366e-02 1.238019999999999954e-01 1.313100000000000023e+01 7.052445000000000164e+01 1.989110000000000127e+03
5.200000000000000455e-02 1.237624999999999975e-01 1.220434500000000000e+01 6.848640000000000327e+01 1.988654999999999973e+03
5.300000000000000544e-02 1.237120000000000025e-01 1.114926999999999957e+01 6.613159999999999172e+01 1.988054999999999836e+03
5.399999999999999939e-02 1.236524999999999985e-01 9.998754999999999171e+00 6.357380000000000564e+01 1.987355000000000018e+03
5.500000000000000028e-02 1.235865000000000019e-01 8.784749999999998948e+00 6.091389999999999816e+01 1.986575000000000045e+03
5.600000000000000117e-02 1.235170000000000018e-01 7.538065000000000460e+00 5.823770000000000380e+01 1.985755000000000109e+03
5.700000000000000205e-02 1.234454999999999997e-01 6.288800000000000168e+00 5.561780000000000257e+01 1.984904999999999973e+03
5.800000000000000294e-02 1.233744999999999981e-01 5.067419999999999369e+00 5.311929999999999552e+01 1.984065000000000055e+03
5.900000000000000383e-02 1.233055000000000123e-01 3.905467999999999940e+00 5.080429999999999779e+01 1.983250000000000000e+03
6.000000000000000472e-02 1.232409999999999894e-01 2.835885999999999907e+00 4.873610000000000042e+01 1.982480000000000018e+03
6.099999999999999867e-02 1.231829999999999870e-01 1.892504000000000186e+00 4.698050000000000637e+01 1.981785000000000082e+03
6.199999999999999956e-02 1.231329999999999925e-01 1.108838999999999908e+00 4.560464999999999947e+01 1.981179999999999836e+03
6.300000000000000044e-02 1.230929999999999941e-01 5.163140000000000507e-01 4.467314999999999969e+01 1.980690000000000055e+03
6.400000000000000133e-02 1.230644999999999933e-01 1.422434999999999672e-01 4.424340000000000117e+01 1.980340000000000146e+03
6.500000000000000222e-02 1.230489999999999917e-01 7.828000000000001624e-03 4.435989999999999611e+01 1.980144999999999982e+03
6.600000000000000311e-02 1.230489999999999917e-01 1.265729999999999911e-01 4.504959999999999809e+01 1.980119999999999891e+03
6.700000000000000400e-02 1.230634999999999923e-01 5.032254999999999923e-01 4.631884999999999764e+01 1.980275000000000091e+03
6.800000000000000488e-02 1.230940000000000090e-01 1.133426000000000045e+00 4.815170000000000528e+01 1.980610000000000127e+03
6.900000000000000577e-02 1.231394999999999990e-01 2.003997000000000028e+00 5.051095000000000113e+01 1.981130000000000109e+03
7.000000000000000666e-02 1.231990000000000030e-01 3.093881500000000173e+00 5.334029999999999916e+01 1.981815000000000055e+03
7.100000000000000755e-02 1.232715000000000061e-01 4.375500000000000611e+00 5.656869999999999976e+01 1.982659999999999854e+03
7.200000000000000844e-02 1.233555000000000068e-01 5.816425000000000622e+00 6.011469999999999914e+01 1.983639999999999873e+03
7.300000000000000933e-02 1.234490000000000032e-01 7.381254999999999455e+00 6.389194999999999425e+01 1.984735000000000127e+03
7.399999999999999634e-02 1.235485000000000055e-01 9.033369999999999678e+00 6.781409999999999627e+01 1.985920000000000073e+03
7.499999999999999722e-02 1.236540000000000139e-01 1.073698500000000067e+01 7.179980000000000473e+01 1.987164999999999964e+03
7.599999999999999811e-02 1.237619999999999970e-01 1.245854999999999890e+01 7.577655000000000030e+01 1.988444999999999936e+03
7.699999999999999900e-02 1.238710000000000089e-01 1.416820000000000057e+01 7.968415000000000248e+01 1.989744999999999891e+03
7.799999999999999989e-02 1.239790000000000059e-01 1.584094999999999942e+01 8.347684999999999889e+01 1.991039999999999964e+03
7.900000000000000078e-02 1.240850000000000009e-01 1.745724999999999838e+01 8.712444999999999595e+01 1.992315000000000055e+03
8.000000000000000167e-02 1.241885000000000072e-01 1.900329999999999941e+01 9.061205000000001064e+01 1.993565000000000055e+03
8.100000000000000255e-02 1.242884999999999962e-01 2.047079999999999700e+01 9.393905000000000882e+01 1.994769999999999982e+03
8.200000000000000344e-02 1.243849999999999956e-01 2.185665000000000191e+01 9.711670000000000869e+01 1.995940000000000055e+03
8.300000000000000433e-02 1.244784999999999919e-01 2.316174999999999784e+01 1.001651499999999970e+02 1.997075000000000045e+03
8.400000000000000522e-02 1.245689999999999992e-01 2.439039999999999964e+01 1.031094999999999970e+02 1.998170000000000073e+03
8.500000000000000611e-02 1.246559999999999890e-01 2.554885000000000161e+01 1.059789999999999992e+02 1.999239999999999782e+03
8.600000000000000699e-02 1.247419999999999918e-01 2.664419999999999789e+01 1.087984999999999900e+02 2.000289999999999964e+03
8.700000000000000788e-02 1.248265000000000069e-01 2.768365000000000009e+01 1.115919999999999987e+02 2.001320000000000164e+03
8.800000000000000877e-02 1.249099999999999933e-01 2.867340000000000089e+01 1.143760000000000048e+02 2.002345000000000027e+03
8.899999999999999578e-02 1.249929999999999930e-01 2.961800000000000210e+01 1.171599999999999966e+02 2.003355000000000018e+03
8.999999999999999667e-02 1.250764999999999794e-01 3.052024999999999721e+01 1.199454999999999956e+02 2.004375000000000000e+03
9.099999999999999756e-02 1.251585000000000059e-01 3.138074999999999903e+01 1.227280000000000086e+02 2.005385000000000218e+03
9.199999999999999845e-02 1.252409999999999912e-01 3.219790000000000418e+01 1.254939999999999998e+02 2.006394999999999982e+03
9.299999999999999933e-02 1.253229999999999900e-01 3.296824999999999761e+01 1.282270000000000039e+02 2.007400000000000091e+03
9.400000000000000022e-02 1.254035000000000011e-01 3.368649999999999523e+01 1.309035000000000082e+02 2.008390000000000100e+03
9.500000000000000111e-02 1.254824999999999968e-01 3.434609999999999985e+01 1.334990000000000236e+02 2.009360000000000127e+03
9.600000000000000200e-02 1.255590000000000039e-01 3.493939999999999912e+01 1.359850000000000136e+02 2.010299999999999955e+03
9.700000000000000289e-02 1.256329999999999947e-01 3.545834999999999582e+01 1.383355000000000246e+02 2.011210000000000036e+03
9.800000000000000377e-02 1.257030000000000092e-01 3.589464999999999861e+01 1.405229999999999961e+02 2.012075000000000045e+03
9.900000000000000466e-02 1.257685000000000053e-01 3.624030000000000484e+01 1.425240000000000009e+02 2.012885000000000218e+03
1.000000000000000056e-01 1.258289999999999964e-01 3.648799999999999955e+01 1.443154999999999859e+02 2.013634999999999991e+03
1.010000000000000064e-01 1.258835000000000093e-01 3.663165000000000049e+01 1.458795000000000073e+02 2.014315000000000055e+03
1.020000000000000073e-01 1.259319999999999884e-01 3.666649999999999920e+01 1.472015000000000100e+02 2.014914999999999964e+03
1.030000000000000082e-01 1.259734999999999883e-01 3.658964999999999890e+01 1.482740000000000009e+02 2.015440000000000055e+03
1.040000000000000091e-01 1.260089999999999821e-01 3.640014999999999645e+01 1.490914999999999964e+02 2.015880000000000109e+03
1.050000000000000100e-01 1.260364999999999958e-01 3.609940000000000282e+01 1.496574999999999989e+02 2.016235000000000127e+03
1.059999999999999970e-01 1.260574999999999890e-01 3.569110000000000582e+01 1.499789999999999850e+02 2.016509999999999991e+03
1.069999999999999979e-01 1.260719999999999896e-01 3.518115000000000236e+01 1.500685000000000002e+02 2.016694999999999936e+03
1.079999999999999988e-01 1.260795000000000110e-01 3.457764999999999844e+01 1.499445000000000050e+02 2.016799999999999955e+03
1.089999999999999997e-01 1.260809999999999986e-01 3.389075000000000415e+01 1.496310000000000002e+02 2.016825000000000045e+03
1.100000000000000006e-01 1.260775000000000090e-01 3.313190000000000168e+01 1.491519999999999868e+02 2.016789999999999964e+03
1.110000000000000014e-01 1.260689999999999866e-01 3.231385000000000218e+01 1.485364999999999895e+02 2.016690000000000055e+03
1.120000000000000023e-01 1.260560000000000014e-01 3.145000000000000284e+01 1.478139999999999930e+02 2.016545000000000073e+03
1.130000000000000032e-01 1.260399999999999854e-01 3.055379999999999896e+01 1.470124999999999886e+02 2.016355000000000018e+03
1.140000000000000041e-01 1.260209999999999941e-01 2.963850000000000051e+01 1.461605000000000132e+02 2.016130000000000109e+03
1.150000000000000050e-01 1.260004999999999875e-01 2.871659999999999968e+01 1.452839999999999918e+02 2.015880000000000109e+03
1.160000000000000059e-01 1.259784999999999933e-01 2.779935000000000045e+01 1.444039999999999964e+02 2.015615000000000009e+03
1.170000000000000068e-01 1.259564999999999990e-01 2.689665000000000106e+01 1.435394999999999754e+02 2.015345000000000027e+03
1.180000000000000077e-01 1.259335000000000038e-01 2.601650000000000063e+01 1.427040000000000077e+02 2.015065000000000055e+03
1.190000000000000085e-01 1.259115000000000095e-01 2.516510000000000247e+01 1.419080000000000155e+02 2.014795000000000073e+03
1.200000000000000094e-01 1.258905000000000163e-01 2.434660000000000224e+01 1.411560000000000059e+02 2.014525000000000091e+03
1.209999999999999964e-01 1.258694999999999953e-01 2.356304999999999694e+01 1.404479999999999791e+02 2.014269999999999982e+03
1.219999999999999973e-01 1.258489999999999887e-01 2.281470000000000198e+01 1.397799999999999727e+02 2.014025000000000091e+03
1.229999999999999982e-01 1.258299999999999974e-01 2.209984999999999999e+01 1.391460000000000150e+02 2.013784999999999854e+03
1.239999999999999991e-01 1.258114999999999928e-01 2.141510000000000247e+01 1.385335000000000036e+02 2.013549999999999955e+03
1.250000000000000000e-01 1.257940000000000169e-01 2.075600000000000023e+01 1.379300000000000068e+02 2.013329999999999927e+03
1.260000000000000009e-01 1.257754999999999845e-01 2.011674999999999969e+01 1.373199999999999932e+02 2.013105000000000018e+03
1.270000000000000018e-01 1.257574999999999943e-01 1.949110000000000298e+01 1.366890000000000214e+02 2.012880000000000109e+03
1.280000000000000027e-01 1.257389999999999897e-01 1.887230000000000274e+01 1.360204999999999984e+02 2.012644999999999982e+03
1.290000000000000036e-01 1.257189999999999974e-01 1.825384999999999991e+01 1.353000000000000114e+02 2.012400000000000091e+03
1.300000000000000044e-01 1.256974999999999898e-01 1.762955000000000183e+01 1.345140000000000100e+02 2.012135000000000218e+03
1.310000000000000053e-01 1.256744999999999945e-01 1.699405000000000143e+01 1.336519999999999868e+02 2.011855000000000018e+03
1.320000000000000062e-01 1.256494999999999973e-01 1.634299999999999997e+01 1.327069999999999936e+02 2.011549999999999955e+03
1.330000000000000071e-01 1.256220000000000114e-01 1.567345000000000077e+01 1.316740000000000066e+02 2.011215000000000146e+03
1.340000000000000080e-01 1.255930000000000102e-01 1.498385000000000034e+01 1.305534999999999854e+02 2.010855000000000018e+03
1.350000000000000089e-01 1.255610000000000059e-01 1.427444999999999986e+01 1.293480000000000132e+02 2.010465000000000146e+03
1.360000000000000098e-01 1.255269999999999997e-01 1.354710000000000036e+01 1.280670000000000073e+02 2.010049999999999955e+03
1.370000000000000107e-01 1.254905000000000048e-01 1.280529999999999902e+01 1.267214999999999918e+02 2.009609999999999900e+03
1.380000000000000115e-01 1.254530000000000090e-01 1.205403000000000091e+01 1.253259999999999934e+02 2.009144999999999982e+03
1.390000000000000124e-01 1.254135000000000111e-01 1.129971499999999907e+01 1.238984999999999985e+02 2.008670000000000073e+03
1.400000000000000133e-01 1.253734999999999988e-01 1.054970499999999944e+01 1.224594999999999914e+02 2.008175000000000182e+03
1.410000000000000142e-01 1.253330000000000000e-01 9.812089999999999534e+00 1.210304999999999893e+02 2.007680000000000064e+03
1.420000000000000151e-01 1.252925000000000011e-01 9.095345000000000013e+00 1.196324999999999932e+02 2.007190000000000055e+03
1.430000000000000160e-01 1.252524999999999888e-01 8.407894999999999897e+00 1.182854999999999990e+02 2.006704999999999927e+03
1.440000000000000169e-01 1.252139999999999920e-01 7.757950000000001012e+00 1.170099999999999909e+02 2.006230000000000018e+03
1.450000000000000178e-01 1.251774999999999971e-01 7.152820000000000178e+00 1.158234999999999957e+02 2.005785000000000082e+03
1.459999999999999909e-01 1.251430000000000042e-01 6.598885000000000112e+00 1.147385000000000019e+02 2.005355000000000018e+03
1.469999999999999918e-01 1.251110000000000000e-01 6.101309999999999789e+00 1.137684999999999889e+02 2.004970000000000027e+03
1.479999999999999927e-01 1.250819999999999987e-01 5.663834999999999731e+00 1.129189999999999969e+02 2.004610000000000127e+03
1.489999999999999936e-01 1.250565000000000149e-01 5.288719999999999644e+00 1.121940000000000026e+02 2.004289999999999964e+03
1.499999999999999944e-01 1.250340000000000062e-01 4.976709999999999745e+00 1.115939999999999941e+02 2.004009999999999991e+03
1.509999999999999953e-01 1.250145000000000006e-01 4.727079999999999949e+00 1.111149999999999949e+02 2.003775000000000091e+03
1.519999999999999962e-01 1.249985000000000124e-01 4.537760000000000460e+00 1.107520000000000095e+02 2.003575000000000045e+03
1.529999999999999971e-01 1.249859999999999999e-01 4.405465000000000408e+00 1.104945000000000022e+02 2.003409999999999854e+03
1.539999999999999980e-01 1.249760000000000038e-01 4.325895000000000046e+00 1.103335000000000008e+02 2.003284999999999854e+03
1.549999999999999989e-01 1.249689999999999968e-01 4.293940000000000090e+00 1.102554999999999978e+02 2.003195000000000164e+03
1.559999999999999998e-01 1.249645000000000061e-01 4.303874999999999673e+00 1.102489999999999952e+02 2.003130000000000109e+03
1.570000000000000007e-01 1.249620000000000036e-01 4.349624999999999631e+00 1.102994999999999948e+02 2.003090000000000146e+03
1.580000000000000016e-01 1.249610000000000026e-01 4.424924999999999997e+00 1.103950000000000102e+02 2.003079999999999927e+03
1.590000000000000024e-01 1.249615000000000031e-01 4.523529999999999163e+00 1.105219999999999914e+02 2.003079999999999927e+03
