# t [s], A [cm^2], U [cm/s], P [cPa], c [cm/s]
1.000000000000000021e-03 1.796605000000000008e-01 2.372350000000000292e-01 8.939000000000000057e+01 2.025360000000000127e+03
2.000000000000000042e-03 1.796265000000000223e-01 1.543173000000000128e+00 8.663409999999998945e+01 2.025065000000000055e+03
3.000000000000000062e-03 1.795194999999999985e-01 3.166273999999999589e+00 8.285374999999999091e+01 2.024195000000000164e+03
4.000000000000000083e-03 1.793664999999999843e-01 4.986843350000000008e+00 7.863285000000000480e+01 2.022964999999999918e+03
5.000000000000000104e-03 1.791959999999999942e-01 6.953789999999999694e+00 7.472479999999998768e+01 2.021610000000000127e+03
6.000000000000000125e-03 1.790275000000000061e-01 8.943970000000000198e+00 7.147695000000000221e+01 2.020285000000000082e+03
7.000000000000000146e-03 1.788690000000000002e-01 1.077714500000000086e+01 6.876725000000000421e+01 2.019054999999999836e+03
8.000000000000000167e-03 1.787210000000000187e-01 1.234518499999999896e+01 6.635745000000000005e+01 2.017929999999999836e+03
9.000000000000001055e-03 1.785885000000000111e-01 1.365683999999999898e+01 6.422225000000000250e+01 2.016934999999999945e+03
1.000000000000000194e-02 1.784745000000000081e-01 1.474844999999999828e+01 6.244159999999999400e+01 2.016090000000000146e+03
1.099999999999999936e-02 1.783790000000000098e-01 1.563679999999999914e+01 6.102895000000000181e+01 2.015389999999999873e+03
1.200000000000000025e-02 1.783020000000000160e-01 1.633109999999999928e+01 5.993955000000000410e+01 2.014835000000000036e+03
1.300000000000000114e-02 1.782409999999999828e-01 1.683525000000000205e+01 5.909794999999999732e+01 2.014394999999999982e+03
1.400000000000000203e-02 1.781915000000000027e-01 1.715044999999999931e+01 5.840160000000000196e+01 2.014055000000000064e+03
1.499999999999999944e-02 1.781504999999999894e-01 1.730239999999999867e+01 5.778454999999999586e+01 2.013769999999999982e+03
1.600000000000000033e-02 1.781185000000000129e-01 1.736955000000000027e+01 5.731784999999999997e+01 2.013559999999999945e+03
1.700000000000000122e-02 1.780999999999999805e-01 1.747149999999999892e+01 5.722984999999999900e+01 2.013444999999999936e+03
1.800000000000000211e-02 1.781039999999999845e-01 1.771950000000000003e+01 5.779729999999999990e+01 2.013485000000000127e+03
1.900000000000000300e-02 1.781345000000000012e-01 1.816230000000000189e+01 5.917884999999999707e+01 2.013715000000000146e+03
2.000000000000000042e-02 1.781925000000000037e-01 1.876269999999999882e+01 6.130060000000000286e+01 2.014139999999999873e+03
2.100000000000000130e-02 1.782710000000000128e-01 1.941304999999999836e+01 6.385460000000000491e+01 2.014730000000000018e+03
2.200000000000000219e-02 1.783589999999999898e-01 1.997755000000000081e+01 6.639969999999999573e+01 2.015394999999999982e+03
2.299999999999999961e-02 1.784435000000000049e-01 2.033910000000000196e+01 6.850620000000000687e+01 2.016039999999999964e+03
2.400000000000000050e-02 1.785125000000000184e-01 2.043355000000000032e+01 6.988370000000000459e+01 2.016570000000000164e+03
2.500000000000000139e-02 1.785594999999999821e-01 2.026154999999999973e+01 7.044809999999999661e+01 2.016934999999999945e+03
2.600000000000000228e-02 1.785829999999999917e-01 1.987659999999999982e+01 7.031309999999999150e+01 2.017134999999999991e+03
2.700000000000000316e-02 1.785875000000000101e-01 1.935910000000000153e+01 6.972065000000000623e+01 2.017190000000000055e+03
2.800000000000000058e-02 1.785789999999999877e-01 1.878569999999999851e+01 6.894235000000000468e+01 2.017144999999999982e+03
2.900000000000000147e-02 1.785650000000000015e-01 1.820605000000000118e+01 6.818925000000000125e+01 2.017039999999999964e+03
3.000000000000000236e-02 1.785490000000000133e-01 1.763360000000000127e+01 6.755960000000000321e+01 2.016924999999999955e+03
3.099999999999999978e-02 1.785324999999999829e-01 1.705015000000000214e+01 6.703354999999999109e+01 2.016804999999999836e+03
3.200000000000000067e-02 1.785154999999999936e-01 1.642095000000000127e+01 6.650884999999999536e+01 2.016680000000000064e+03
3.300000000000000155e-02 1.784945000000000004e-01 1.571409999999999840e+01 6.585974999999999113e+01 2.016525000000000091e+03
3.400000000000000244e-02 1.784665000000000001e-01 1.491750000000000043e+01 6.499739999999999895e+01 2.016325000000000045e+03
3.500000000000000333e-02 1.784320000000000073e-01 1.404899999999999949e+01 6.391445000000000221e+01 2.016069999999999936e+03
3.600000000000000422e-02 1.783910000000000218e-01 1.315680000000000049e+01 6.270054999999999978e+01 2.015769999999999982e+03
3.700000000000000511e-02 1.783480000000000065e-01 1.231050000000000111e+01 6.152665000000000362e+01 2.015454999999999927e+03
3.799999999999999906e-02 1.783095000000000097e-01 1.158493999999999957e+01 6.060210000000000008e+01 2.015164999999999964e+03
3.899999999999999994e-02 1.782819999999999960e-01 1.104289500000000146e+01 6.012040000000000362e+01 2.014949999999999818e+03
4.000000000000000083e-02 1.782699999999999840e-01 1.072008500000000097e+01 6.020839999999999748e+01 2.014849999999999909e+03
4.100000000000000172e-02 1.782770000000000188e-01 1.061759999999999948e+01 6.089284999999999570e+01 2.014889999999999873e+03
4.200000000000000261e-02 1.783029999999999893e-01 1.070199999999999996e+01 6.209315000000000140e+01 2.015070000000000164e+03
4.300000000000000350e-02 1.783445000000000169e-01 1.091254999999999953e+01 6.363734999999999786e+01 2.015365000000000009e+03
4.400000000000000439e-02 1.783959999999999990e-01 1.117290000000000028e+01 6.529659999999999798e+01 2.015740000000000009e+03
4.499999999999999833e-02 1.784494999999999831e-01 1.140409999999999968e+01 6.682710000000000150e+01 2.016134999999999991e+03
4.599999999999999922e-02 1.784990000000000188e-01 1.153594999999999970e+01 6.800954999999999018e+01 2.016500000000000000e+03
4.700000000000000011e-02 1.785360000000000003e-01 1.151500000000000057e+01 6.867884999999999707e+01 2.016779999999999973e+03
4.800000000000000100e-02 1.785559999999999925e-01 1.130839999999999890e+01 6.873990000000000578e+01 2.016940000000000055e+03
4.900000000000000189e-02 1.785559999999999925e-01 1.090395000000000003e+01 6.816915000000000191e+01 2.016945000000000164e+03
5.000000000000000278e-02 1.785349999999999993e-01 1.030691999999999986e+01 6.700395000000000323e+01 2.016800000000000182e+03
5.100000000000000366e-02 1.784934999999999994e-01 9.535029999999999006e+00 6.532524999999999693e+01 2.016500000000000000e+03
5.200000000000000455e-02 1.784339999999999815e-01 8.613935000000001452e+00 6.323749999999999716e+01 2.016059999999999945e+03
5.300000000000000544e-02 1.783589999999999898e-01 7.572654999999999248e+00 6.085164999999999935e+01 2.015509999999999991e+03
5.399999999999999939e-02 1.782730000000000148e-01 6.440939999999999444e+00 5.827239999999999753e+01 2.014869999999999891e+03
5.500000000000000028e-02 1.781780000000000030e-01 5.248284999999999201e+00 5.559244999999999948e+01 2.014170000000000073e+03
5.600000000000000117e-02 1.780780000000000141e-01 4.023762500000000131e+00 5.289184999999999803e+01 2.013425000000000182e+03
5.700000000000000205e-02 1.779764999999999819e-01 2.796845000000000248e+00 5.024110000000000298e+01 2.012664999999999964e+03
5.800000000000000294e-02 1.778750000000000053e-01 1.598290000000000211e+00 4.770600000000000307e+01 2.011909999999999854e+03
5.900000000000000383e-02 1.777770000000000183e-01 4.606449999999999712e-01 4.535200000000000387e+01 2.011174999999999955e+03
6.000000000000000472e-02 1.776854999999999962e-01 -5.818449999999999456e-01 4.324714999999999776e+01 2.010490000000000009e+03
6.099999999999999867e-02 1.776024999999999965e-01 -1.494116500000000070e+00 4.146195000000000164e+01 2.009865000000000009e+03
6.199999999999999956e-02 1.775319999999999954e-01 -2.241796499999999970e+00 4.006700000000000017e+01 2.009324999999999818e+03
6.300000000000000044e-02 1.774755000000000082e-01 -2.793144999999999989e+00 3.912904999999999944e+01 2.008894999999999982e+03
6.400000000000000133e-02 1.774364999999999970e-01 -3.121135000000000215e+00 3.870539999999999736e+01 2.008589999999999918e+03
6.500000000000000222e-02 1.774164999999999770e-01 -3.205379999999999896e+00 3.883845000000000169e+01 2.008424999999999955e+03
6.600000000000000311e-02 1.774175000000000058e-01 -3.033590000000000231e+00 3.955200000000000671e+01 2.008414999999999964e+03
6.700000000000000400e-02 1.774399999999999866e-01 -2.602440000000000087e+00 4.084805000000000064e+01 2.008565000000000055e+03
6.800000000000000488e-02 1.774844999999999895e-01 -1.917787500000000200e+00 4.270615000000000094e+01 2.008880000000000109e+03
6.900000000000000577e-02 1.775505000000000000e-01 -9.942200000000001037e-01 4.508474999999999966e+01 2.009349999999999909e+03
7.000000000000000666e-02 1.776359999999999884e-01 1.459349999999999259e-01 4.792404999999999404e+01 2.009970000000000027e+03
7.100000000000000755e-02 1.777394999999999947e-01 1.474054999999999893e+00 5.114985000000000070e+01 2.010724999999999909e+03
7.200000000000000844e-02 1.778579999999999883e-01 2.956940499999999972e+00 5.467895000000000039e+01 2.011594999999999800e+03
7.300000000000000933e-02 1.779884999999999939e-01 4.558676999999999424e+00 5.842410000000000281e+01 2.012565000000000055e+03
7.399999999999999634e-02 1.781289999999999818e-01 6.242545000000000677e+00 6.229939999999999856e+01 2.013605000000000018e+03
7.499999999999999722e-02 1.782755000000000034e-01 7.972875000000000156e+00 6.622485000000000355e+01 2.014690000000000055e+03
7.599999999999999811e-02 1.784255000000000146e-01 9.716590000000000060e+00 7.013070000000000448e+01 2.015815000000000055e+03
7.699999999999999900e-02 1.785760000000000125e-01 1.144472999999999985e+01 7.396029999999998950e+01 2.016940000000000055e+03
7.799999999999999989e-02 1.787249999999999950e-01 1.313316000000000017e+01 7.767215000000000202e+01 2.018059999999999945e+03
7.900000000000000078e-02 1.788710000000000022e-01 1.476340000000000074e+01 8.124049999999999727e+01 2.019159999999999854e+03
8.000000000000000167e-02 1.790130000000000055e-01 1.632239999999999824e+01 8.465475000000000705e+01 2.020240000000000009e+03
8.100000000000000255e-02 1.791504999999999903e-01 1.780260000000000176e+01 8.791785000000000139e+01 2.021279999999999973e+03
8.200000000000000344e-02 1.792829999999999979e-01 1.920100000000000051e+01 9.104319999999999879e+01 2.022285000000000082e+03
8.300000000000000433e-02 1.794109999999999872e-01 2.051839999999999975e+01 9.405174999999999841e+01 2.023264999999999873e+03
8.400000000000000522e-02 1.795355000000000145e-01 2.175825000000000031e+01 9.696864999999999668e+01 2.024220000000000027e+03
8.500000000000000611e-02 1.796570000000000111e-01 2.292564999999999742e+01 9.981874999999999432e+01 2.025144999999999982e+03
8.600000000000000699e-02 1.797759999999999914e-01 2.402640000000000242e+01 1.026261000000000081e+02 2.026059999999999945e+03
8.700000000000000788e-02 1.798939999999999984e-01 2.506600000000000250e+01 1.054085000000000036e+02 2.026960000000000036e+03
8.800000000000000877e-02 1.800100000000000033e-01 2.604905000000000115e+01 1.081790000000000020e+02 2.027849999999999909e+03
8.899999999999999578e-02 1.801260000000000083e-01 2.697894999999999754e+01 1.109429999999999978e+02 2.028740000000000009e+03
8.999999999999999667e-02 1.802409999999999846e-01 2.785735000000000028e+01 1.136990000000000123e+02 2.029619999999999891e+03
9.099999999999999756e-02 1.803559999999999885e-01 2.868410000000000082e+01 1.164395000000000095e+02 2.030505000000000109e+03
9.199999999999999845e-02 1.804699999999999915e-01 2.945755000000000123e+01 1.191514999999999986e+02 2.031380000000000109e+03
9.299999999999999933e-02 1.805824999999999791e-01 3.017450000000000188e+01 1.218164999999999907e+02 2.032244999999999891e+03
9.400000000000000022e-02 1.806929999999999925e-01 3.083044999999999902e+01 1.244145000000000039e+02 2.033094999999999800e+03
9.500000000000000111e-02 1.808005000000000029e-01 3.141970000000000240e+01 1.269219999999999970e+02 2.033924999999999955e+03
9.600000000000000200e-02 1.809049999999999825e-01 3.193619999999999948e+01 1.293139999999999930e+02 2.034730000000000018e+03
9.700000000000000289e-02 1.810049999999999992e-01 3.237319999999999709e+01 1.315670000000000073e+02 2.035500000000000000e+03
9.800000000000000377e-02 1.810990000000000100e-01 3.272399999999999665e+01 1.336580000000000155e+02 2.036230000000000018e+03
9.900000000000000466e-02 1.811869999999999870e-01 3.298234999999999673e+01 1.355645000000000095e+02 2.036909999999999854e+03
1.000000000000000056e-01 1.812679999999999847e-01 3.314254999999999995e+01 1.372680000000000007e+02 2.037539999999999964e+03
1.010000000000000064e-01 1.813410000000000022e-01 3.319989999999999952e+01 1.387539999999999907e+02 2.038105000000000018e+03
1.020000000000000073e-01 1.814054999999999973e-01 3.315125000000000455e+01 1.400095000000000027e+02 2.038615000000000009e+03
1.030000000000000082e-01 1.814614999999999978e-01 3.299504999999999910e+01 1.410285000000000082e+02 2.039049999999999955e+03
1.040000000000000091e-01 1.815080000000000027e-01 3.273165000000000191e+01 1.418084999999999809e+02 2.039420000000000073e+03
1.050000000000000100e-01 1.815450000000000119e-01 3.236359999999999815e+01 1.423534999999999968e+02 2.039715000000000146e+03
1.059999999999999970e-01 1.815734999999999988e-01 3.189549999999999841e+01 1.426725000000000136e+02 2.039940000000000055e+03
1.069999999999999979e-01 1.815924999999999900e-01 3.133419999999999916e+01 1.427794999999999845e+02 2.040095000000000255e+03
1.079999999999999988e-01 1.816035000000000010e-01 3.068845000000000312e+01 1.426935000000000002e+02 2.040190000000000055e+03
1.089999999999999997e-01 1.816065000000000040e-01 2.996860000000000213e+01 1.424360000000000070e+02 2.040219999999999800e+03
1.100000000000000006e-01 1.816030000000000144e-01 2.918634999999999735e+01 1.420345000000000084e+02 2.040199999999999818e+03
1.110000000000000014e-01 1.815930000000000044e-01 2.835430000000000206e+01 1.415140000000000100e+02 2.040129999999999882e+03
1.120000000000000023e-01 1.815779999999999894e-01 2.748554999999999993e+01 1.409035000000000082e+02 2.040029999999999745e+03
1.130000000000000032e-01 1.815589999999999982e-01 2.659290000000000020e+01 1.402295000000000016e+02 2.039884999999999991e+03
1.140000000000000041e-01 1.815370000000000039e-01 2.568894999999999840e+01 1.395174999999999841e+02 2.039725000000000136e+03
1.150000000000000050e-01 1.815134999999999943e-01 2.478529999999999944e+01 1.387899999999999920e+02 2.039539999999999964e+03
1.160000000000000059e-01 1.814880000000000104e-01 2.389229999999999876e+01 1.380674999999999955e+02 2.039349999999999909e+03
1.170000000000000068e-01 1.814624999999999988e-01 2.301859999999999928e+01 1.373640000000000043e+02 2.039150000000000091e+03
1.180000000000000077e-01 1.814375000000000016e-01 2.217145000000000010e+01 1.366914999999999907e+02 2.038954999999999927e+03
1.190000000000000085e-01 1.814119999999999899e-01 2.135585000000000022e+01 1.360570000000000164e+02 2.038764999999999873e+03
1.200000000000000094e-01 1.813879999999999937e-01 2.057515000000000072e+01 1.354625000000000057e+02 2.038579999999999927e+03
1.209999999999999964e-01 1.813649999999999984e-01 1.983055000000000234e+01 1.349069999999999823e+02 2.038400000000000091e+03
1.219999999999999973e-01 1.813434999999999908e-01 1.912165000000000248e+01 1.343849999999999909e+02 2.038230000000000018e+03
1.229999999999999982e-01 1.813224999999999976e-01 1.844619999999999749e+01 1.338870000000000005e+02 2.038065000000000055e+03
1.239999999999999991e-01 1.813020000000000187e-01 1.780059999999999931e+01 1.334019999999999868e+02 2.037909999999999854e+03
1.250000000000000000e-01 1.812819999999999987e-01 1.718019999999999925e+01 1.329174999999999898e+02 2.037750000000000000e+03
1.260000000000000009e-01 1.812614999999999921e-01 1.657935000000000159e+01 1.324184999999999945e+02 2.037590000000000146e+03
1.270000000000000018e-01 1.812409999999999854e-01 1.599189999999999934e+01 1.318905000000000030e+02 2.037430000000000064e+03
1.280000000000000027e-01 1.812185000000000046e-01 1.541169999999999973e+01 1.313174999999999955e+02 2.037255000000000109e+03
1.290000000000000036e-01 1.811944999999999806e-01 1.483259999999999934e+01 1.306885000000000048e+02 2.037069999999999936e+03
1.300000000000000044e-01 1.811685000000000101e-01 1.424915000000000020e+01 1.299915000000000020e+02 2.036869999999999891e+03
1.310000000000000053e-01 1.811404999999999821e-01 1.365660000000000096e+01 1.292169999999999845e+02 2.036644999999999982e+03
1.320000000000000062e-01 1.811085000000000056e-01 1.305144999999999911e+01 1.283609999999999900e+02 2.036404999999999973e+03
1.330000000000000071e-01 1.810744999999999993e-01 1.243130000000000024e+01 1.274199999999999875e+02 2.036139999999999873e+03
1.340000000000000080e-01 1.810364999999999891e-01 1.179560999999999993e+01 1.263959999999999866e+02 2.035855000000000018e+03
1.350000000000000089e-01 1.809955000000000036e-01 1.114503500000000003e+01 1.252960000000000065e+02 2.035539999999999964e+03
1.360000000000000098e-01 1.809520000000000017e-01 1.048199999999999932e+01 1.241270000000000095e+02 2.035204999999999927e+03
1.370000000000000107e-01 1.809054999999999969e-01 9.810285000000000366e+00 1.229030000000000058e+02 2.034855000000000018e+03
1.380000000000000115e-01 1.808569999999999900e-01 9.135215000000000529e+00 1.216400000000000006e+02 2.034480000000000018e+03
1.390000000000000124e-01 1.808069999999999955e-01 8.462934999999999874e+00 1.203555000000000064e+02 2.034099999999999909e+03
1.400000000000000133e-01 1.807564999999999866e-01 7.800685000000000535e+00 1.190685000000000002e+02 2.033715000000000146e+03
1.410000000000000142e-01 1.807055000000000189e-01 7.156010000000000204e+00 1.177990000000000066e+02 2.033325000000000045e+03
1.420000000000000151e-01 1.806550000000000100e-01 6.536660000000000359e+00 1.165670000000000073e+02 2.032934999999999945e+03
1.430000000000000160e-01 1.806055000000000021e-01 5.950165000000000148e+00 1.153919999999999959e+02 2.032555000000000064e+03
1.440000000000000169e-01 1.805585000000000107e-01 5.403520000000000323e+00 1.142895000000000039e+02 2.032194999999999936e+03
1.450000000000000178e-01 1.805134999999999934e-01 4.902865000000000251e+00 1.132750000000000057e+02 2.031855000000000018e+03
1.459999999999999909e-01 1.804719999999999935e-01 4.453255000000000408e+00 1.123590000000000089e+02 2.031534999999999854e+03
1.469999999999999918e-01 1.804339999999999833e-01 4.058494999999999742e+00 1.115494999999999948e+02 2.031240000000000009e+03
1.479999999999999927e-01 1.804000000000000048e-01 3.720984999999999765e+00 1.108509999999999991e+02 2.030974999999999909e+03
1.489999999999999936e-01 1.803699999999999748e-01 3.441720000000000113e+00 1.102634999999999934e+02 2.030740000000000009e+03
1.499999999999999944e-01 1.803445000000000187e-01 3.220279999999999809e+00 1.097860000000000014e+02 2.030539999999999964e+03
1.509999999999999953e-01 1.803230000000000111e-01 3.054920000000000080e+00 1.094124999999999943e+02 2.030369999999999891e+03
1.519999999999999962e-01 1.803049999999999931e-01 2.942699999999999871e+00 1.091345000000000027e+02 2.030230000000000018e+03
1.529999999999999971e-01 1.802909999999999791e-01 2.879640000000000200e+00 1.089424999999999955e+02 2.030115000000000009e+03
1.539999999999999980e-01 1.802805000000000102e-01 2.860920000000000130e+00 1.088250000000000028e+02 2.030034999999999854e+03
1.549999999999999989e-01 1.802730000000000166e-01 2.881075000000000053e+00 1.087710000000000008e+02 2.029970000000000027e+03
1.559999999999999998e-01 1.802684999999999982e-01 2.934200000000000141e+00 1.087655000000000030e+02 2.029924999999999955e+03
1.570000000000000007e-01 1.802650000000000086e-01 3.014170000000000016e+00 1.087969999999999970e+02 2.029900000000000091e+03
1.580000000000000016e-01 1.802640000000000076e-01 3.114819999999999922e+00 1.088529999999999944e+02 2.029885000000000218e+03
1.590000000000000024e-01 1.802635000000000209e-01 3.230135000000000201e+00 1.089219999999999970e+02 2.029884999999999991e+03
