# t [s], A [cm^2], U [cm/s], P [cPa], c [cm/s]
1.000000000000000021e-03 5.152535000000000309e-01 3.312499999999996003e-03 1.002960000000000065e+02 1.581835000000000036e+03
2.000000000000000042e-03 5.152480000000000393e-01 4.702914999999999353e-03 1.002754999999999939e+02 1.581829999999999927e+03
3.000000000000000062e-03 5.152999999999999803e-01 1.160450499999999829e-01 1.003918500000000051e+02 1.581860000000000127e+03
4.000000000000000083e-03 5.153345000000000287e-01 1.982812499999999922e-01 1.004951499999999953e+02 1.581889999999999873e+03
5.000000000000000104e-03 5.153065000000000007e-01 1.523185499999999970e-01 1.004114500000000021e+02 1.581875000000000000e+03
6.000000000000000125e-03 5.152545000000000597e-01 4.760350000000002080e-02 1.001765000000000043e+02 1.581820000000000164e+03
7.000000000000000146e-03 5.151999999999999913e-01 -6.885700000000000154e-02 9.985384999999999422e+01 1.581750000000000000e+03
8.000000000000000167e-03 5.151084999999999692e-01 -2.774449999999999417e-01 9.935479999999999734e+01 1.581634999999999991e+03
9.000000000000001055e-03 5.149600000000000843e-01 -6.203499999999999570e-01 9.859434999999999150e+01 1.581465000000000146e+03
1.000000000000000194e-02 5.147500000000000409e-01 -1.098465000000000025e+00 9.752629999999999200e+01 1.581214999999999918e+03
1.099999999999999936e-02 5.144649999999999501e-01 -1.727954999999999908e+00 9.608990000000000009e+01 1.580869999999999891e+03
1.200000000000000025e-02 5.140995000000000426e-01 -2.497314999999999952e+00 9.425364999999999327e+01 1.580424999999999955e+03
1.300000000000000114e-02 5.136855000000000171e-01 -3.312885000000000524e+00 9.209879999999999711e+01 1.579889999999999873e+03
1.400000000000000203e-02 5.132780000000000120e-01 -4.019165000000000099e+00 8.982120000000000459e+01 1.579299999999999955e+03
1.499999999999999944e-02 5.129285000000000094e-01 -4.471535000000000259e+00 8.765070000000000050e+01 1.578710000000000036e+03
1.600000000000000033e-02 5.126585000000000170e-01 -4.595749999999999780e+00 8.575579999999999359e+01 1.578164999999999964e+03
1.700000000000000122e-02 5.124589999999999979e-01 -4.403334499999999707e+00 8.419384999999999764e+01 1.577679999999999836e+03
1.800000000000000211e-02 5.122984999999999900e-01 -3.970844500000000110e+00 8.291259999999999764e+01 1.577255000000000109e+03
1.900000000000000300e-02 5.121385000000000520e-01 -3.402362999999999804e+00 8.178825000000000500e+01 1.576865000000000009e+03
2.000000000000000042e-02 5.119485000000000285e-01 -2.791282949999999818e+00 8.067939999999998690e+01 1.576480000000000018e+03
2.100000000000000130e-02 5.117140000000000022e-01 -2.193057999999999730e+00 7.947724999999999795e+01 1.576079999999999927e+03
2.200000000000000219e-02 5.114395000000000469e-01 -1.617155000000000120e+00 7.813485000000000014e+01 1.575654999999999973e+03
2.299999999999999961e-02 5.111404999999999976e-01 -1.039279999999999982e+00 7.666734999999999900e+01 1.575200000000000045e+03
2.400000000000000050e-02 5.108350000000000390e-01 -4.260900000000003018e-01 7.512635000000000218e+01 1.574730000000000018e+03
2.500000000000000139e-02 5.105330000000000146e-01 2.399450000000000749e-01 7.356409999999999627e+01 1.574244999999999891e+03
2.600000000000000228e-02 5.102364999999999817e-01 9.452199999999999491e-01 7.200370000000000914e+01 1.573755000000000109e+03
2.700000000000000316e-02 5.099314999999999820e-01 1.642635000000000067e+00 7.042310000000000514e+01 1.573264999999999873e+03
2.800000000000000058e-02 5.095974999999999255e-01 2.260670000000000179e+00 6.875710000000000832e+01 1.572750000000000000e+03
2.900000000000000147e-02 5.092130000000000267e-01 2.719665000000000443e+00 6.691304999999999836e+01 1.572195000000000164e+03
3.000000000000000236e-02 5.087570000000000148e-01 2.950790000000000468e+00 6.479679999999999040e+01 1.571579999999999927e+03
3.099999999999999978e-02 5.082214999999999927e-01 2.912820000000000409e+00 6.233990000000000009e+01 1.570884999999999991e+03
3.200000000000000067e-02 5.076104999999999645e-01 2.602529999999999344e+00 5.952249999999999375e+01 1.570110000000000127e+03
3.300000000000000155e-02 5.069414999999999338e-01 2.056165000000000020e+00 5.638530000000000086e+01 1.569244999999999891e+03
3.400000000000000244e-02 5.062420000000000808e-01 1.341960000000000264e+00 5.302710000000000434e+01 1.568329999999999927e+03
3.500000000000000333e-02 5.055450000000000221e-01 5.468449999999993594e-01 4.959024999999999750e+01 1.567384999999999991e+03
3.600000000000000422e-02 5.048844999999999583e-01 -2.386650000000001270e-01 4.623935000000000173e+01 1.566445000000000164e+03
3.700000000000000511e-02 5.042910000000000448e-01 -9.331399999999998585e-01 4.313814999999999600e+01 1.565559999999999945e+03
3.799999999999999906e-02 5.037865000000000260e-01 -1.472550000000000026e+00 4.043079999999999785e+01 1.564755000000000109e+03
3.899999999999999994e-02 5.033870000000000289e-01 -1.813315000000000232e+00 3.822874999999999801e+01 1.564075000000000045e+03
4.000000000000000083e-02 5.031004999999999505e-01 -1.931350000000000122e+00 3.660549999999999926e+01 1.563539999999999964e+03
4.100000000000000172e-02 5.029289999999999594e-01 -1.818039999999999878e+00 3.559740000000000038e+01 1.563154999999999973e+03
4.200000000000000261e-02 5.028699999999999282e-01 -1.475069500000000033e+00 3.520924999999999727e+01 1.562940000000000055e+03
4.300000000000000350e-02 5.029190000000000049e-01 -9.094975000000000698e-01 3.542269999999999897e+01 1.562884999999999991e+03
4.400000000000000439e-02 5.030700000000000172e-01 -1.302250000000000352e-01 3.620465000000000089e+01 1.562994999999999891e+03
4.499999999999999833e-02 5.033155000000000268e-01 8.535350000000001547e-01 3.751380000000000337e+01 1.563255000000000109e+03
4.599999999999999922e-02 5.036484999999999435e-01 2.031920000000000393e+00 3.930494999999999806e+01 1.563655000000000200e+03
4.700000000000000011e-02 5.040620000000000100e-01 3.392860000000000209e+00 4.153024999999999523e+01 1.564184999999999945e+03
4.800000000000000100e-02 5.045465000000000089e-01 4.920074999999999754e+00 4.413879999999999626e+01 1.564829999999999927e+03
4.900000000000000189e-02 5.050915000000000266e-01 6.591685000000000016e+00 4.707540000000000191e+01 1.565579999999999927e+03
5.000000000000000278e-02 5.056855000000000100e-01 8.379660999999998694e+00 5.027989999999999782e+01 1.566414999999999964e+03
5.100000000000000366e-02 5.063149999999999595e-01 1.025061000000000000e+01 5.368735000000000213e+01 1.567320000000000164e+03
5.200000000000000455e-02 5.069675000000000153e-01 1.216768500000000053e+01 5.722955000000000325e+01 1.568269999999999982e+03
5.300000000000000544e-02 5.076289999999999969e-01 1.409300500000000156e+01 6.083820000000000050e+01 1.569259999999999991e+03
5.399999999999999939e-02 5.082879999999999621e-01 1.599024000000000001e+01 6.444819999999999993e+01 1.570264999999999873e+03
5.500000000000000028e-02 5.089334999999999276e-01 1.782710000000000150e+01 6.800135000000000218e+01 1.571269999999999982e+03
5.600000000000000117e-02 5.095579999999999554e-01 1.957724999999999937e+01 7.144989999999999952e+01 1.572260000000000218e+03
5.700000000000000205e-02 5.101554999999999840e-01 2.122129999999999939e+01 7.475845000000001050e+01 1.573224999999999909e+03
5.800000000000000294e-02 5.107249999999999845e-01 2.274719999999999942e+01 7.790550000000000352e+01 1.574154999999999973e+03
5.900000000000000383e-02 5.112645000000000106e-01 2.414995000000000047e+01 8.088315000000000055e+01 1.575050000000000182e+03
6.000000000000000472e-02 5.117774999999999963e-01 2.543084999999999951e+01 8.369620000000000459e+01 1.575904999999999973e+03
6.099999999999999867e-02 5.122664999999999580e-01 2.659624999999999773e+01 8.636019999999999186e+01 1.576720000000000027e+03
6.199999999999999956e-02 5.127375000000000682e-01 2.765650000000000119e+01 8.889875000000000682e+01 1.577505000000000109e+03
6.300000000000000044e-02 5.131949999999999568e-01 2.862450000000000117e+01 9.134135000000000559e+01 1.578259999999999991e+03
6.400000000000000133e-02 5.136454999999999771e-01 2.951474999999999937e+01 9.372010000000000218e+01 1.578994999999999891e+03
6.500000000000000222e-02 5.140949999999999687e-01 3.034219999999999828e+01 9.606749999999999545e+01 1.579719999999999800e+03
6.600000000000000311e-02 5.145480000000000054e-01 3.112104999999999677e+01 9.841389999999999816e+01 1.580445000000000164e+03
6.700000000000000400e-02 5.150090000000000501e-01 3.186394999999999911e+01 1.007845999999999975e+02 1.581170000000000073e+03
6.800000000000000488e-02 5.154809999999999670e-01 3.258135000000000048e+01 1.031999500000000012e+02 1.581905000000000200e+03
6.900000000000000577e-02 5.159644999999999371e-01 3.328040000000000020e+01 1.056724999999999994e+02 1.582650000000000091e+03
7.000000000000000666e-02 5.164610000000000589e-01 3.396490000000000009e+01 1.082050000000000125e+02 1.583409999999999854e+03
7.100000000000000755e-02 5.169675000000000242e-01 3.463469999999999516e+01 1.107920000000000016e+02 1.584190000000000055e+03
7.200000000000000844e-02 5.174814999999999277e-01 3.528609999999999758e+01 1.134209999999999923e+02 1.584969999999999800e+03
7.300000000000000933e-02 5.179974999999999996e-01 3.591205000000000069e+01 1.160695000000000050e+02 1.585769999999999982e+03
7.399999999999999634e-02 5.185109999999999442e-01 3.650260000000000105e+01 1.187095000000000056e+02 1.586559999999999945e+03
7.499999999999999722e-02 5.190144999999999342e-01 3.704610000000000269e+01 1.213079999999999927e+02 1.587339999999999918e+03
7.599999999999999811e-02 5.195020000000000193e-01 3.752984999999999616e+01 1.238315000000000055e+02 1.588105000000000018e+03
7.699999999999999900e-02 5.199660000000000393e-01 3.794095000000000084e+01 1.262434999999999974e+02 1.588845000000000027e+03
7.799999999999999989e-02 5.204020000000000312e-01 3.826725000000000421e+01 1.285105000000000075e+02 1.589549999999999955e+03
7.900000000000000078e-02 5.208034999999999748e-01 3.849814999999999543e+01 1.306020000000000039e+02 1.590210000000000036e+03
8.000000000000000167e-02 5.211660000000000181e-01 3.862525000000000119e+01 1.324925000000000068e+02 1.590809999999999945e+03
8.100000000000000255e-02 5.214870000000000339e-01 3.864249999999999829e+01 1.341634999999999991e+02 1.591355000000000018e+03
8.200000000000000344e-02 5.217640000000000056e-01 3.854699999999999704e+01 1.356014999999999873e+02 1.591835000000000036e+03
8.300000000000000433e-02 5.219970000000000443e-01 3.833849999999999625e+01 1.368004999999999995e+02 1.592250000000000000e+03
8.400000000000000522e-02 5.221860000000000390e-01 3.802004999999999768e+01 1.377634999999999934e+02 1.592599999999999909e+03
8.500000000000000611e-02 5.223324999999999774e-01 3.759734999999999872e+01 1.384970000000000141e+02 1.592880000000000109e+03
8.600000000000000699e-02 5.224405000000000854e-01 3.707885000000000275e+01 1.390160000000000196e+02 1.593095000000000027e+03
8.700000000000000788e-02 5.225130000000000052e-01 3.647520000000000095e+01 1.393394999999999868e+02 1.593250000000000000e+03
8.800000000000000877e-02 5.225539999999999630e-01 3.579894999999999783e+01 1.394895000000000209e+02 1.593355000000000018e+03
8.899999999999999578e-02 5.225684999999999913e-01 3.506385000000000218e+01 1.394934999999999832e+02 1.593414999999999964e+03
8.999999999999999667e-02 5.225619999999999710e-01 3.428455000000000297e+01 1.393785000000000025e+02 1.593429999999999836e+03
9.099999999999999756e-02 5.225400000000000045e-01 3.347599999999999909e+01 1.391739999999999782e+02 1.593414999999999964e+03
9.199999999999999845e-02 5.225064999999999849e-01 3.265279999999999916e+01 1.389069999999999823e+02 1.593375000000000000e+03
9.299999999999999933e-02 5.224670000000000147e-01 3.182854999999999990e+01 1.386039999999999850e+02 1.593319999999999936e+03
9.400000000000000022e-02 5.224250000000000282e-01 3.101555000000000106e+01 1.382880000000000109e+02 1.593250000000000000e+03
9.500000000000000111e-02 5.223849999999999882e-01 3.022424999999999784e+01 1.379795000000000016e+02 1.593175000000000182e+03
9.600000000000000200e-02 5.223484999999999934e-01 2.946289999999999765e+01 1.376935000000000002e+02 1.593105000000000018e+03
9.700000000000000289e-02 5.223174999999999901e-01 2.873724999999999952e+01 1.374420000000000073e+02 1.593034999999999854e+03
9.800000000000000377e-02 5.222930000000000073e-01 2.805049999999999955e+01 1.372295000000000016e+02 1.592980000000000018e+03
9.900000000000000466e-02 5.222750000000000448e-01 2.740344999999999942e+01 1.370579999999999927e+02 1.592920000000000073e+03
1.000000000000000056e-01 5.222620000000000040e-01 2.679424999999999812e+01 1.369240000000000066e+02 1.592880000000000109e+03
1.010000000000000064e-01 5.222525000000000084e-01 2.621914999999999907e+01 1.368190000000000168e+02 1.592840000000000146e+03
1.020000000000000073e-01 5.222450000000000703e-01 2.567249999999999943e+01 1.367325000000000159e+02 1.592809999999999945e+03
1.030000000000000082e-01 5.222360000000000335e-01 2.514724999999999966e+01 1.366510000000000105e+02 1.592780000000000200e+03
1.040000000000000091e-01 5.222234999999999516e-01 2.463555000000000206e+01 1.365585000000000093e+02 1.592744999999999891e+03
1.050000000000000100e-01 5.222035000000000426e-01 2.412890000000000157e+01 1.364399999999999977e+02 1.592704999999999927e+03
1.059999999999999970e-01 5.221740000000000270e-01 2.361910000000000309e+01 1.362785000000000082e+02 1.592660000000000082e+03
1.069999999999999979e-01 5.221320000000000405e-01 2.309819999999999851e+01 1.360595000000000141e+02 1.592594999999999800e+03
1.079999999999999988e-01 5.220755000000000257e-01 2.255930000000000035e+01 1.357700000000000102e+02 1.592514999999999873e+03
1.089999999999999997e-01 5.220029999999999948e-01 2.199680000000000035e+01 1.354005000000000223e+02 1.592414999999999964e+03
1.100000000000000006e-01 5.219129999999999603e-01 2.140660000000000096e+01 1.349440000000000168e+02 1.592289999999999964e+03
1.110000000000000014e-01 5.218059999999999921e-01 2.078640000000000043e+01 1.343960000000000150e+02 1.592139999999999873e+03
1.120000000000000023e-01 5.216819999999999791e-01 2.013579999999999970e+01 1.337579999999999814e+02 1.591965000000000146e+03
1.130000000000000032e-01 5.215419999999999501e-01 1.945645000000000024e+01 1.330335000000000036e+02 1.591769999999999982e+03
1.140000000000000041e-01 5.213870000000000449e-01 1.875195000000000078e+01 1.322300000000000182e+02 1.591549999999999955e+03
1.150000000000000050e-01 5.212210000000000454e-01 1.802755000000000152e+01 1.313605000000000018e+02 1.591309999999999945e+03
1.160000000000000059e-01 5.210449999999999804e-01 1.729019999999999868e+01 1.304379999999999882e+02 1.591050000000000182e+03
1.170000000000000068e-01 5.208639999999999937e-01 1.654804999999999993e+01 1.294795000000000016e+02 1.590785000000000082e+03
1.180000000000000077e-01 5.206804999999999906e-01 1.581034999999999968e+01 1.285040000000000191e+02 1.590500000000000000e+03
1.190000000000000085e-01 5.204984999999999751e-01 1.508668499999999923e+01 1.275300000000000011e+02 1.590219999999999800e+03
1.200000000000000094e-01 5.203219999999999512e-01 1.438705999999999996e+01 1.265785000000000053e+02 1.589944999999999936e+03
1.209999999999999964e-01 5.201540000000000052e-01 1.372101499999999952e+01 1.256675000000000040e+02 1.589680000000000064e+03
1.219999999999999973e-01 5.199975000000000014e-01 1.309754000000000040e+01 1.248144999999999953e+02 1.589424999999999955e+03
1.229999999999999982e-01 5.198559999999999848e-01 1.252438499999999877e+01 1.240349999999999966e+02 1.589184999999999945e+03
1.239999999999999991e-01 5.197309999999999430e-01 1.200818500000000100e+01 1.233420000000000130e+02 1.588965000000000146e+03
1.250000000000000000e-01 5.196239999999999748e-01 1.155380500000000055e+01 1.227444999999999879e+02 1.588769999999999982e+03
1.260000000000000009e-01 5.195364999999999567e-01 1.116429000000000116e+01 1.222494999999999976e+02 1.588610000000000127e+03
1.270000000000000018e-01 5.194684999999999997e-01 1.084099499999999949e+01 1.218584999999999923e+02 1.588470000000000027e+03
1.280000000000000027e-01 5.194189999999999641e-01 1.058331499999999892e+01 1.215709999999999980e+02 1.588360000000000127e+03
1.290000000000000036e-01 5.193870000000000431e-01 1.038894999999999946e+01 1.213824999999999932e+02 1.588275000000000091e+03
1.300000000000000044e-01 5.193719999999999448e-01 1.025402000000000058e+01 1.212860000000000014e+02 1.588224999999999909e+03
1.310000000000000053e-01 5.193710000000000271e-01 1.017331499999999878e+01 1.212710000000000008e+02 1.588190000000000055e+03
1.320000000000000062e-01 5.193820000000000103e-01 1.014058999999999955e+01 1.213259999999999934e+02 1.588179999999999836e+03
1.330000000000000071e-01 5.194024999999999892e-01 1.014886500000000069e+01 1.214379999999999882e+02 1.588184999999999945e+03
1.340000000000000080e-01 5.194305000000000172e-01 1.019072500000000048e+01 1.215939999999999941e+02 1.588215000000000146e+03
1.350000000000000089e-01 5.194630000000000081e-01 1.025868000000000002e+01 1.217804999999999893e+02 1.588250000000000000e+03
1.360000000000000098e-01 5.194984999999999742e-01 1.034539499999999990e+01 1.219840000000000089e+02 1.588289999999999964e+03
1.370000000000000107e-01 5.195334999999999814e-01 1.044387500000000024e+01 1.221935000000000002e+02 1.588340000000000146e+03
1.380000000000000115e-01 5.195680000000000298e-01 1.054786999999999964e+01 1.223990000000000009e+02 1.588384999999999991e+03
1.390000000000000124e-01 5.195994999999999919e-01 1.065176500000000104e+01 1.225910000000000082e+02 1.588434999999999945e+03
1.400000000000000133e-01 5.196270000000000611e-01 1.075091499999999911e+01 1.227640000000000100e+02 1.588480000000000018e+03
1.410000000000000142e-01 5.196499999999999453e-01 1.084167500000000040e+01 1.229124999999999943e+02 1.588525000000000091e+03
1.420000000000000151e-01 5.196684999999999777e-01 1.092129500000000064e+01 1.230349999999999966e+02 1.588555000000000064e+03
1.430000000000000160e-01 5.196815000000000184e-01 1.098805000000000121e+01 1.231289999999999907e+02 1.588579999999999927e+03
1.440000000000000169e-01 5.196899999999999853e-01 1.104109000000000052e+01 1.231975000000000051e+02 1.588605000000000018e+03
1.450000000000000178e-01 5.196950000000000180e-01 1.108042000000000016e+01 1.232419999999999902e+02 1.588619999999999891e+03
1.459999999999999909e-01 5.196965000000000057e-01 1.110679999999999978e+01 1.232650000000000006e+02 1.588630000000000109e+03
1.469999999999999918e-01 5.196950000000000180e-01 1.112151499999999871e+01 1.232725000000000080e+02 1.588639999999999873e+03
1.479999999999999927e-01 5.196925000000000017e-01 1.112636499999999984e+01 1.232685000000000031e+02 1.588639999999999873e+03
1.489999999999999936e-01 5.196895000000000264e-01 1.112349499999999836e+01 1.232590000000000003e+02 1.588644999999999982e+03
1.499999999999999944e-01 5.196870000000000100e-01 1.111525500000000122e+01 1.232479999999999905e+02 1.588639999999999873e+03
1.509999999999999953e-01 5.196855000000000224e-01 1.110396499999999875e+01 1.232415000000000020e+02 1.588644999999999982e+03
1.519999999999999962e-01 5.196859999999999813e-01 1.109187999999999974e+01 1.232434999999999974e+02 1.588644999999999982e+03
1.529999999999999971e-01 5.196895000000000264e-01 1.108113999999999955e+01 1.232574999999999932e+02 1.588654999999999973e+03
1.539999999999999980e-01 5.196960000000000468e-01 1.107346000000000075e+01 1.232864999999999895e+02 1.588659999999999854e+03
1.549999999999999989e-01 5.197054999999999314e-01 1.107021500000000103e+01 1.233324999999999960e+02 1.588674999999999955e+03
1.559999999999999998e-01 5.197184999999999722e-01 1.107240000000000002e+01 1.233960000000000008e+02 1.588690000000000055e+03
1.570000000000000007e-01 5.197355000000000169e-01 1.108056500000000000e+01 1.234774999999999920e+02 1.588714999999999918e+03
1.580000000000000016e-01 5.197555000000000369e-01 1.109471999999999881e+01 1.235749999999999886e+02 1.588739999999999782e+03
1.590000000000000024e-01 5.197779999999999623e-01 1.111458000000000013e+01 1.236879999999999882e+02 1.588769999999999982e+03
