# t [s], A [cm^2], U [cm/s], P [cPa], c [cm/s]
1.000000000000000021e-03 4.517980000000000329e-01 4.298099999999999143e-03 9.464750000000000796e+01 1.583179999999999836e+03
2.000000000000000042e-03 4.517910000000000537e-01 -2.291474999999999849e-03 9.462430000000000518e+01 1.583174999999999955e+03
3.000000000000000062e-03 4.518214999999999870e-01 7.005249999999998978e-02 9.469804999999999495e+01 1.583190000000000055e+03
4.000000000000000083e-03 4.518584999999999408e-01 1.638026499999999941e-01 9.481489999999999441e+01 1.583224999999999909e+03
5.000000000000000104e-03 4.518535000000000190e-01 1.668815000000000159e-01 9.481040000000000134e+01 1.583230000000000018e+03
6.000000000000000125e-03 4.518150000000000222e-01 8.858349999999998170e-02 9.465604999999999336e+01 1.583195000000000164e+03
7.000000000000000146e-03 4.517799999999999594e-01 9.860499999999994269e-03 9.444079999999999586e+01 1.583134999999999991e+03
8.000000000000000167e-03 4.517360000000000264e-01 -9.565350000000000241e-02 9.415090000000000714e+01 1.583059999999999945e+03
9.000000000000001055e-03 4.516605000000000203e-01 -2.905250000000000332e-01 9.370520000000000493e+01 1.582949999999999818e+03
1.000000000000000194e-02 4.515470000000000317e-01 -5.887649999999999828e-01 9.305865000000000009e+01 1.582784999999999854e+03
1.099999999999999936e-02 4.513875000000000526e-01 -1.002444999999999808e+00 9.216604999999999848e+01 1.582554999999999836e+03
1.200000000000000025e-02 4.511720000000000175e-01 -1.548849999999999838e+00 9.097159999999999513e+01 1.582240000000000009e+03
1.300000000000000114e-02 4.509039999999999715e-01 -2.200734999999999886e+00 8.947100000000000364e+01 1.581835000000000036e+03
1.400000000000000203e-02 4.506130000000000413e-01 -2.864494999999999791e+00 8.775544999999999618e+01 1.581355000000000018e+03
1.499999999999999944e-02 4.503390000000000448e-01 -3.416510000000000158e+00 8.598404999999999632e+01 1.580855000000000018e+03
1.600000000000000033e-02 4.501094999999999957e-01 -3.758917000000000286e+00 8.431324999999999648e+01 1.580349999999999909e+03
1.700000000000000122e-02 4.499315000000000397e-01 -3.852816499999999866e+00 8.283955000000000268e+01 1.579884999999999991e+03
1.800000000000000211e-02 4.497934999999999572e-01 -3.719069000000000180e+00 8.157835000000000036e+01 1.579454999999999927e+03
1.900000000000000300e-02 4.496715000000000018e-01 -3.417809999999999793e+00 8.047729999999999961e+01 1.579065000000000055e+03
2.000000000000000042e-02 4.495415000000000383e-01 -3.020897499999999791e+00 7.944729999999999848e+01 1.578690000000000055e+03
2.100000000000000130e-02 4.493865000000000220e-01 -2.587390000000000079e+00 7.839865000000000350e+01 1.578304999999999836e+03
2.200000000000000219e-02 4.492005000000000026e-01 -2.148217499999999891e+00 7.727045000000001096e+01 1.577909999999999854e+03
2.299999999999999961e-02 4.489890000000000270e-01 -1.703289999999999971e+00 7.604554999999999154e+01 1.577485000000000127e+03
2.400000000000000050e-02 4.487649999999999695e-01 -1.230554999999999843e+00 7.474735000000001151e+01 1.577045000000000073e+03
2.500000000000000139e-02 4.485405000000000086e-01 -7.022749999999997605e-01 7.342260000000000275e+01 1.576594999999999800e+03
2.600000000000000228e-02 4.483260000000000023e-01 -1.016799999999999926e-01 7.211759999999999593e+01 1.576144999999999982e+03
2.700000000000000316e-02 4.481220000000000203e-01 5.660050000000000914e-01 7.085779999999999745e+01 1.575704999999999927e+03
2.800000000000000058e-02 4.479220000000000423e-01 1.270555000000000101e+00 6.963635000000000730e+01 1.575275000000000091e+03
2.900000000000000147e-02 4.477140000000000009e-01 1.961459999999999759e+00 6.841355000000000075e+01 1.574840000000000146e+03
3.000000000000000236e-02 4.474819999999999909e-01 2.578205000000000080e+00 6.712600000000000477e+01 1.574394999999999982e+03
3.099999999999999978e-02 4.472125000000000128e-01 3.063254999999999839e+00 6.570274999999999466e+01 1.573914999999999964e+03
3.200000000000000067e-02 4.468960000000000155e-01 3.374839999999999840e+00 6.408474999999999966e+01 1.573394999999999982e+03
3.300000000000000155e-02 4.465330000000000132e-01 3.496430000000000149e+00 6.224195000000000277e+01 1.572815000000000055e+03
3.400000000000000244e-02 4.461315000000000142e-01 3.440450000000000230e+00 6.018495000000000061e+01 1.572184999999999945e+03
3.500000000000000333e-02 4.457069999999999643e-01 3.245264999999999844e+00 5.796665000000000134e+01 1.571505000000000109e+03
3.600000000000000422e-02 4.452804999999999680e-01 2.966900000000000315e+00 5.567494999999999550e+01 1.570804999999999836e+03
3.700000000000000511e-02 4.448739999999999917e-01 2.668259999999999632e+00 5.341904999999999859e+01 1.570110000000000127e+03
3.799999999999999906e-02 4.445075000000000554e-01 2.409244999999999859e+00 5.131380000000000052e+01 1.569440000000000055e+03
3.899999999999999994e-02 4.441964999999999941e-01 2.239429999999999588e+00 4.946564999999999657e+01 1.568839999999999918e+03
4.000000000000000083e-02 4.439530000000000420e-01 2.194700000000000095e+00 4.796224999999999739e+01 1.568335000000000036e+03
4.100000000000000172e-02 4.437834999999999974e-01 2.297169999999999934e+00 4.686804999999999666e+01 1.567934999999999945e+03
4.200000000000000261e-02 4.436904999999999877e-01 2.557614999999999750e+00 4.622310000000000230e+01 1.567664999999999964e+03
4.300000000000000350e-02 4.436744999999999717e-01 2.979200000000000070e+00 4.604659999999999798e+01 1.567529999999999973e+03
4.400000000000000439e-02 4.437335000000000029e-01 3.561444999999999972e+00 4.634170000000000300e+01 1.567534999999999854e+03
4.499999999999999833e-02 4.438674999999999704e-01 4.303380000000000649e+00 4.710144999999999982e+01 1.567684999999999945e+03
4.599999999999999922e-02 4.440735000000000099e-01 5.205325000000000202e+00 4.831360000000000099e+01 1.567974999999999909e+03
4.700000000000000011e-02 4.443504999999999816e-01 6.269020000000000259e+00 4.996385000000000076e+01 1.568405000000000200e+03
4.800000000000000100e-02 4.446974999999999678e-01 7.496434999999999960e+00 5.203665000000000163e+01 1.568965000000000146e+03
4.900000000000000189e-02 4.451109999999999789e-01 8.887560000000000571e+00 5.451454999999999984e+01 1.569659999999999854e+03
5.000000000000000278e-02 4.455894999999999717e-01 1.043843000000000032e+01 5.737619999999999720e+01 1.570474999999999909e+03
5.100000000000000366e-02 4.461264999999999814e-01 1.213949500000000015e+01 6.059414999999999907e+01 1.571409999999999854e+03
5.200000000000000455e-02 4.467160000000000020e-01 1.397472500000000117e+01 6.413370000000000459e+01 1.572450000000000045e+03
5.300000000000000544e-02 4.473504999999999843e-01 1.592219500000000032e+01 6.795230000000000814e+01 1.573585000000000036e+03
5.399999999999999939e-02 4.480199999999999738e-01 1.795501999999999754e+01 7.200069999999999482e+01 1.574800000000000182e+03
5.500000000000000028e-02 4.487154999999999894e-01 2.004344499999999840e+01 7.622480000000000189e+01 1.576085000000000036e+03
5.600000000000000117e-02 4.494270000000000209e-01 2.215674999999999883e+01 8.056860000000000355e+01 1.577424999999999955e+03
5.700000000000000205e-02 4.501454999999999762e-01 2.426520000000000010e+01 8.497720000000001050e+01 1.578795000000000073e+03
5.800000000000000294e-02 4.508630000000000138e-01 2.634199999999999875e+01 8.939974999999999739e+01 1.580180000000000064e+03
5.900000000000000383e-02 4.515735000000000166e-01 2.836410000000000053e+01 9.379224999999999568e+01 1.581579999999999927e+03
6.000000000000000472e-02 4.522720000000000073e-01 3.031304999999999694e+01 9.811785000000000423e+01 1.582960000000000036e+03
6.099999999999999867e-02 4.529549999999999965e-01 3.217525000000000546e+01 1.023505499999999984e+02 1.584335000000000036e+03
6.199999999999999956e-02 4.536204999999999821e-01 3.394140000000000157e+01 1.064710500000000053e+02 1.585679999999999836e+03
6.300000000000000044e-02 4.542674999999999907e-01 3.560604999999999620e+01 1.104702000000000055e+02 1.586994999999999891e+03
6.400000000000000133e-02 4.548969999999999958e-01 3.716720000000000113e+01 1.143460000000000036e+02 1.588285000000000082e+03
6.500000000000000222e-02 4.555095000000000116e-01 3.862505000000000166e+01 1.181004999999999825e+02 1.589539999999999964e+03
6.600000000000000311e-02 4.561064999999999703e-01 3.998165000000000191e+01 1.217429999999999950e+02 1.590764999999999873e+03
6.700000000000000400e-02 4.566900000000000404e-01 4.124040000000000106e+01 1.252814999999999941e+02 1.591954999999999927e+03
6.800000000000000488e-02 4.572610000000000285e-01 4.240480000000000160e+01 1.287280000000000086e+02 1.593125000000000000e+03
6.900000000000000577e-02 4.578204999999999636e-01 4.347849999999999682e+01 1.320914999999999964e+02 1.594259999999999991e+03
7.000000000000000666e-02 4.583705000000000140e-01 4.446450000000000102e+01 1.353805000000000121e+02 1.595380000000000109e+03
7.100000000000000755e-02 4.589104999999999990e-01 4.536499999999999488e+01 1.386005000000000109e+02 1.596474999999999909e+03
7.200000000000000844e-02 4.594409999999999883e-01 4.618084999999999951e+01 1.417515000000000214e+02 1.597549999999999955e+03
7.300000000000000933e-02 4.599594999999999656e-01 4.691185000000000116e+01 1.448319999999999936e+02 1.598599999999999909e+03
7.399999999999999634e-02 4.604660000000000419e-01 4.755664999999999765e+01 1.478340000000000032e+02 1.599625000000000000e+03
7.499999999999999722e-02 4.609574999999999645e-01 4.811289999999999623e+01 1.507479999999999905e+02 1.600630000000000109e+03
7.599999999999999811e-02 4.614319999999999533e-01 4.857765000000000555e+01 1.535614999999999952e+02 1.601599999999999909e+03
7.699999999999999900e-02 4.618869999999999920e-01 4.894780000000000086e+01 1.562590000000000146e+02 1.602534999999999854e+03
7.799999999999999989e-02 4.623194999999999943e-01 4.922025000000000006e+01 1.588249999999999886e+02 1.603424999999999955e+03
7.900000000000000078e-02 4.627274999999999583e-01 4.939265000000000327e+01 1.612439999999999998e+02 1.604275000000000091e+03
8.000000000000000167e-02 4.631085000000000340e-01 4.946314999999999884e+01 1.635024999999999977e+02 1.605075000000000045e+03
8.100000000000000255e-02 4.634604999999999420e-01 4.943120000000000402e+01 1.655874999999999773e+02 1.605819999999999936e+03
8.200000000000000344e-02 4.637824999999999864e-01 4.929720000000000368e+01 1.674900000000000091e+02 1.606509999999999991e+03
8.300000000000000433e-02 4.640734999999999721e-01 4.906284999999999741e+01 1.692024999999999864e+02 1.607134999999999991e+03
8.400000000000000522e-02 4.643324999999999814e-01 4.873099999999999454e+01 1.707224999999999966e+02 1.607699999999999818e+03
8.500000000000000611e-02 4.645610000000000017e-01 4.830580000000000496e+01 1.720484999999999900e+02 1.608204999999999927e+03
8.600000000000000699e-02 4.647580000000000044e-01 4.779260000000000019e+01 1.731850000000000023e+02 1.608639999999999873e+03
8.700000000000000788e-02 4.649249999999999772e-01 4.719785000000000252e+01 1.741365000000000123e+02 1.609019999999999982e+03
8.800000000000000877e-02 4.650644999999999918e-01 4.652895000000000181e+01 1.749124999999999943e+02 1.609340000000000146e+03
8.899999999999999578e-02 4.651770000000000072e-01 4.579449999999999932e+01 1.755240000000000009e+02 1.609605000000000018e+03
8.999999999999999667e-02 4.652659999999999574e-01 4.500374999999999659e+01 1.759850000000000136e+02 1.609815000000000055e+03
9.099999999999999756e-02 4.653335000000000110e-01 4.416675000000000040e+01 1.763104999999999905e+02 1.609974999999999909e+03
9.199999999999999845e-02 4.653815000000000035e-01 4.329380000000000450e+01 1.765190000000000055e+02 1.610095000000000027e+03
9.299999999999999933e-02 4.654139999999999944e-01 4.239555000000000007e+01 1.766264999999999930e+02 1.610175000000000182e+03
9.400000000000000022e-02 4.654335000000000555e-01 4.148239999999999839e+01 1.766530000000000200e+02 1.610224999999999909e+03
9.500000000000000111e-02 4.654429999999999956e-01 4.056414999999999793e+01 1.766144999999999925e+02 1.610250000000000000e+03
9.600000000000000200e-02 4.654449999999999976e-01 3.965010000000000190e+01 1.765294999999999845e+02 1.610250000000000000e+03
9.700000000000000289e-02 4.654415000000000080e-01 3.874804999999999922e+01 1.764130000000000109e+02 1.610235000000000127e+03
9.800000000000000377e-02 4.654350000000000431e-01 3.786449999999999960e+01 1.762769999999999868e+02 1.610204999999999927e+03
9.900000000000000466e-02 4.654265000000000208e-01 3.700435000000000230e+01 1.761340000000000146e+02 1.610174999999999955e+03
1.000000000000000056e-01 4.654169999999999696e-01 3.617054999999999865e+01 1.759900000000000091e+02 1.610140000000000100e+03
1.010000000000000064e-01 4.654074999999999740e-01 3.536444999999999794e+01 1.758500000000000227e+02 1.610095000000000027e+03
1.020000000000000073e-01 4.653975000000000195e-01 3.458544999999999447e+01 1.757155000000000200e+02 1.610049999999999955e+03
1.030000000000000082e-01 4.653869999999999951e-01 3.383160000000000167e+01 1.755844999999999914e+02 1.610009999999999991e+03
1.040000000000000091e-01 4.653740000000000099e-01 3.309935000000000116e+01 1.754535000000000196e+02 1.609965000000000146e+03
1.050000000000000100e-01 4.653585000000000083e-01 3.238430000000000319e+01 1.753154999999999859e+02 1.609920000000000073e+03
1.059999999999999970e-01 4.653389999999999471e-01 3.168130000000000024e+01 1.751630000000000109e+02 1.609869999999999891e+03
1.069999999999999979e-01 4.653140000000000054e-01 3.098469999999999658e+01 1.749884999999999877e+02 1.609809999999999945e+03
1.079999999999999988e-01 4.652819999999999734e-01 3.028869999999999862e+01 1.747814999999999941e+02 1.609740000000000009e+03
1.089999999999999997e-01 4.652419999999999889e-01 2.958785000000000309e+01 1.745339999999999918e+02 1.609654999999999973e+03
1.100000000000000006e-01 4.651919999999999944e-01 2.887709999999999866e+01 1.742379999999999995e+02 1.609565000000000055e+03
1.110000000000000014e-01 4.651330000000000187e-01 2.815200000000000102e+01 1.738874999999999886e+02 1.609454999999999927e+03
1.120000000000000023e-01 4.650625000000000453e-01 2.740899999999999892e+01 1.734770000000000039e+02 1.609325000000000045e+03
1.130000000000000032e-01 4.649809999999999777e-01 2.664564999999999628e+01 1.730029999999999859e+02 1.609184999999999945e+03
1.140000000000000041e-01 4.648889999999999967e-01 2.586039999999999850e+01 1.724644999999999868e+02 1.609014999999999873e+03
1.150000000000000050e-01 4.647860000000000325e-01 2.505299999999999727e+01 1.718634999999999877e+02 1.608829999999999927e+03
1.160000000000000059e-01 4.646730000000000027e-01 2.422435000000000116e+01 1.712005000000000052e+02 1.608625000000000000e+03
1.170000000000000068e-01 4.645509999999999917e-01 2.337650000000000006e+01 1.704830000000000041e+02 1.608405000000000200e+03
1.180000000000000077e-01 4.644215000000000426e-01 2.251245000000000118e+01 1.697164999999999964e+02 1.608159999999999854e+03
1.190000000000000085e-01 4.642859999999999765e-01 2.163639999999999830e+01 1.689095000000000084e+02 1.607914999999999964e+03
1.200000000000000094e-01 4.641465000000000174e-01 2.075314999999999799e+01 1.680724999999999909e+02 1.607650000000000091e+03
1.209999999999999964e-01 4.640039999999999720e-01 1.986834999999999951e+01 1.672154999999999916e+02 1.607375000000000000e+03
1.219999999999999973e-01 4.638610000000000233e-01 1.898799999999999955e+01 1.663499999999999943e+02 1.607099999999999909e+03
1.229999999999999982e-01 4.637195000000000067e-01 1.811850000000000094e+01 1.654879999999999995e+02 1.606819999999999936e+03
1.239999999999999991e-01 4.635814999999999797e-01 1.726620000000000132e+01 1.646405000000000030e+02 1.606545000000000073e+03
1.250000000000000000e-01 4.634484999999999855e-01 1.643730000000000047e+01 1.638195000000000050e+02 1.606275000000000091e+03
1.260000000000000009e-01 4.633224999999999705e-01 1.563780000000000037e+01 1.630345000000000084e+02 1.606019999999999982e+03
1.270000000000000018e-01 4.632045000000000190e-01 1.487280000000000157e+01 1.622944999999999993e+02 1.605769999999999982e+03
1.280000000000000027e-01 4.630954999999999933e-01 1.414703499999999892e+01 1.616080000000000041e+02 1.605535000000000082e+03
1.290000000000000036e-01 4.629969999999999919e-01 1.346402000000000143e+01 1.609799999999999898e+02 1.605319999999999936e+03
1.300000000000000044e-01 4.629085000000000560e-01 1.282642000000000060e+01 1.604134999999999991e+02 1.605119999999999891e+03
1.310000000000000053e-01 4.628309999999999924e-01 1.223577000000000048e+01 1.599125000000000227e+02 1.604940000000000055e+03
1.320000000000000062e-01 4.627634999999999943e-01 1.169254000000000104e+01 1.594745000000000061e+02 1.604779999999999973e+03
1.330000000000000071e-01 4.627065000000000206e-01 1.119610499999999931e+01 1.590985000000000014e+02 1.604634999999999991e+03
1.340000000000000080e-01 4.626580000000000137e-01 1.074471499999999935e+01 1.587799999999999727e+02 1.604514999999999873e+03
1.350000000000000089e-01 4.626175000000000148e-01 1.033595500000000023e+01 1.585135000000000218e+02 1.604409999999999854e+03
1.360000000000000098e-01 4.625845000000000096e-01 9.966419999999999391e+00 1.582920000000000016e+02 1.604319999999999936e+03
1.370000000000000107e-01 4.625565000000000371e-01 9.632304999999998785e+00 1.581080000000000041e+02 1.604240000000000009e+03
1.380000000000000115e-01 4.625325000000000131e-01 9.329385000000000261e+00 1.579519999999999982e+02 1.604175000000000182e+03
1.390000000000000124e-01 4.625110000000000054e-01 9.053250000000000242e+00 1.578165000000000191e+02 1.604115000000000009e+03
1.400000000000000133e-01 4.624909999999999854e-01 8.799364999999999881e+00 1.576924999999999955e+02 1.604059999999999945e+03
1.410000000000000142e-01 4.624705000000000066e-01 8.563489999999999824e+00 1.575720000000000027e+02 1.604009999999999991e+03
1.420000000000000151e-01 4.624495000000000133e-01 8.341625000000000512e+00 1.574484999999999957e+02 1.603960000000000036e+03
1.430000000000000160e-01 4.624264999999999626e-01 8.130219999999999558e+00 1.573154999999999859e+02 1.603904999999999973e+03
1.440000000000000169e-01 4.624004999999999921e-01 7.926140000000000185e+00 1.571684999999999945e+02 1.603855000000000018e+03
1.450000000000000178e-01 4.623715000000000463e-01 7.726879999999999526e+00 1.570029999999999859e+02 1.603795000000000073e+03
1.459999999999999909e-01 4.623384999999999856e-01 7.530475000000000030e+00 1.568179999999999836e+02 1.603735000000000127e+03
1.469999999999999918e-01 4.623030000000000195e-01 7.335569999999999702e+00 1.566115000000000066e+02 1.603664999999999964e+03
1.479999999999999927e-01 4.622640000000000082e-01 7.141334999999999766e+00 1.563845000000000027e+02 1.603590000000000146e+03
1.489999999999999936e-01 4.622214999999999518e-01 6.947474999999999845e+00 1.561380000000000052e+02 1.603509999999999991e+03
1.499999999999999944e-01 4.621764999999999901e-01 6.754145000000000287e+00 1.558745000000000118e+02 1.603420000000000073e+03
1.509999999999999953e-01 4.621294999999999709e-01 6.561880000000000379e+00 1.555960000000000036e+02 1.603335000000000036e+03
1.519999999999999962e-01 4.620809999999999640e-01 6.371520000000000294e+00 1.553064999999999998e+02 1.603235000000000127e+03
1.529999999999999971e-01 4.620314999999999839e-01 6.184120000000000061e+00 1.550095000000000027e+02 1.603144999999999982e+03
1.539999999999999980e-01 4.619815000000000449e-01 6.000869999999999926e+00 1.547090000000000032e+02 1.603045000000000073e+03
1.549999999999999989e-01 4.619320000000000093e-01 5.822979999999999379e+00 1.544074999999999989e+02 1.602945000000000164e+03
1.559999999999999998e-01 4.618829999999999880e-01 5.651629999999999932e+00 1.541094999999999970e+02 1.602849999999999909e+03
1.570000000000000007e-01 4.618355000000000099e-01 5.487885000000000346e+00 1.538165000000000191e+02 1.602750000000000000e+03
1.580000000000000016e-01 4.617894999999999639e-01 5.332629999999999981e+00 1.535330000000000155e+02 1.602654999999999973e+03
1.590000000000000024e-01 4.617450000000000165e-01 5.186519999999999797e+00 1.532584999999999980e+02 1.602565000000000055e+03
