# t [s], A [cm^2], U [cm/s], P [cPa], c [cm/s]
1.000000000000000021e-03 6.929745000000000488e-01 7.270749999999999436e-03 1.045500000000000114e+02 1.811650000000000091e+03
2.000000000000000042e-03 6.929639999999999134e-01 1.176650000000003041e-04 1.045159999999999911e+02 1.811640000000000100e+03
3.000000000000000062e-03 6.930294999999999650e-01 1.210694999999999966e-01 1.046659999999999968e+02 1.811670000000000073e+03
4.000000000000000083e-03 6.930685000000000873e-01 2.115508999999999862e-01 1.047854999999999990e+02 1.811694999999999936e+03
5.000000000000000104e-03 6.930149999999999366e-01 1.441479999999999984e-01 1.046334999999999980e+02 1.811670000000000073e+03
6.000000000000000125e-03 6.929434999999999345e-01 3.742699999999998806e-02 1.043290000000000077e+02 1.811610000000000127e+03
7.000000000000000146e-03 6.928749999999999076e-01 -7.564850000000000740e-02 1.039505000000000052e+02 1.811525000000000091e+03
8.000000000000000167e-03 6.927475000000000716e-01 -3.150199999999999667e-01 1.033389999999999986e+02 1.811394999999999982e+03
9.000000000000001055e-03 6.925485000000000113e-01 -7.077350000000000030e-01 1.024129999999999967e+02 1.811200000000000045e+03
1.000000000000000194e-02 6.922614999999999741e-01 -1.274749999999999828e+00 1.010908000000000015e+02 1.810925000000000182e+03
1.099999999999999936e-02 6.918640000000000345e-01 -2.043220000000000258e+00 9.927244999999999209e+01 1.810529999999999973e+03
1.200000000000000025e-02 6.913854999999999862e-01 -2.931480000000000086e+00 9.700854999999999961e+01 1.810034999999999854e+03
1.300000000000000114e-02 6.909144999999999870e-01 -3.741000000000000103e+00 9.455789999999998940e+01 1.809480000000000018e+03
1.400000000000000203e-02 6.905310000000000059e-01 -4.274916500000000674e+00 9.224434999999999718e+01 1.808934999999999945e+03
1.499999999999999944e-02 6.902619999999999312e-01 -4.442488000000000881e+00 9.027860000000001151e+01 1.808434999999999945e+03
1.600000000000000033e-02 6.900755000000000638e-01 -4.277144999999999975e+00 8.868514999999999304e+01 1.808005000000000109e+03
1.700000000000000122e-02 6.899124999999999286e-01 -3.890889999999999738e+00 8.733395000000000152e+01 1.807615000000000009e+03
1.800000000000000211e-02 6.897145000000000081e-01 -3.409394999999999953e+00 8.603015000000000612e+01 1.807240000000000009e+03
1.900000000000000300e-02 6.894514999999999949e-01 -2.918667999999999818e+00 8.460824999999999818e+01 1.806839999999999918e+03
2.000000000000000042e-02 6.891245000000000287e-01 -2.439818999999999960e+00 8.299600000000000932e+01 1.806404999999999973e+03
2.100000000000000130e-02 6.887620000000000964e-01 -1.937679999999999847e+00 8.122630000000000905e+01 1.805940000000000055e+03
2.200000000000000219e-02 6.883995000000000530e-01 -1.355204999999999993e+00 7.939895000000001346e+01 1.805450000000000045e+03
2.299999999999999961e-02 6.880629999999999802e-01 -6.543050000000001365e-01 7.761744999999999095e+01 1.804974999999999909e+03
2.400000000000000050e-02 6.877535000000000176e-01 1.559499999999998110e-01 7.593135000000000900e+01 1.804509999999999991e+03
2.500000000000000139e-02 6.874500000000000055e-01 1.012754999999999850e+00 7.430750000000000455e+01 1.804055000000000064e+03
2.600000000000000228e-02 6.871140000000000025e-01 1.813170000000000170e+00 7.263389999999999702e+01 1.803594999999999800e+03
2.700000000000000316e-02 6.867050000000000098e-01 2.441174999999999429e+00 7.075284999999999513e+01 1.803095000000000027e+03
2.800000000000000058e-02 6.861904999999999255e-01 2.800000000000000711e+00 6.851104999999999734e+01 1.802525000000000091e+03
2.900000000000000147e-02 6.855614999999999348e-01 2.840094999999999814e+00 6.581199999999999761e+01 1.801865000000000009e+03
3.000000000000000236e-02 6.848339999999999428e-01 2.573185000000000056e+00 6.265384999999999849e+01 1.801105000000000018e+03
3.099999999999999978e-02 6.840465000000000018e-01 2.067479999999999762e+00 5.913734999999999786e+01 1.800269999999999982e+03
3.200000000000000067e-02 6.832504999999999828e-01 1.426630000000000287e+00 5.544435000000000002e+01 1.799380000000000109e+03
3.300000000000000155e-02 6.824965000000000614e-01 7.627049999999995222e-01 5.179650000000000176e+01 1.798500000000000000e+03
3.400000000000000244e-02 6.818269999999999609e-01 1.731350000000002609e-01 4.841235000000000355e+01 1.797654999999999973e+03
3.500000000000000333e-02 6.812709999999999599e-01 -2.724899999999998990e-01 4.547350000000000136e+01 1.796900000000000091e+03
3.600000000000000422e-02 6.808410000000000295e-01 -5.351850000000002439e-01 4.310665000000000191e+01 1.796269999999999982e+03
3.700000000000000511e-02 6.805410000000000625e-01 -6.014499999999998181e-01 4.138070000000000448e+01 1.795779999999999973e+03
3.799999999999999906e-02 6.803664999999999852e-01 -4.737450000000000827e-01 4.031584999999999752e+01 1.795444999999999936e+03
3.899999999999999994e-02 6.803109999999999991e-01 -1.601400000000000046e-01 3.989914999999999878e+01 1.795264999999999873e+03
4.000000000000000083e-02 6.803679999999999728e-01 3.338570000000000149e-01 4.010174999999999557e+01 1.795240000000000009e+03
4.100000000000000172e-02 6.805339999999999723e-01 1.009349999999999969e+00 4.089260000000000161e+01 1.795355000000000018e+03
4.200000000000000261e-02 6.808064999999999811e-01 1.873304999999999998e+00 4.224490000000000123e+01 1.795615000000000009e+03
4.300000000000000350e-02 6.811845000000000816e-01 2.934160000000000323e+00 4.413599999999999568e+01 1.796014999999999873e+03
4.400000000000000439e-02 6.816649999999999654e-01 4.195864999999999512e+00 4.654184999999999661e+01 1.796539999999999964e+03
4.499999999999999833e-02 6.822409999999999863e-01 5.652660999999999270e+00 4.942949999999999733e+01 1.797184999999999945e+03
4.599999999999999922e-02 6.829009999999999803e-01 7.286405999999999494e+00 5.275149999999999295e+01 1.797949999999999818e+03
4.700000000000000011e-02 6.836299999999999599e-01 9.066489999999999938e+00 5.644334999999999525e+01 1.798809999999999945e+03
4.800000000000000100e-02 6.844095000000000040e-01 1.095290999999999926e+01 6.042570000000000618e+01 1.799744999999999891e+03
4.900000000000000189e-02 6.852194999999999814e-01 1.290033999999999992e+01 6.460939999999999372e+01 1.800750000000000000e+03
5.000000000000000278e-02 6.860429999999999584e-01 1.486323499999999953e+01 6.890319999999999823e+01 1.801789999999999964e+03
5.100000000000000366e-02 6.868624999999999314e-01 1.680020000000000024e+01 7.322154999999999347e+01 1.802855000000000018e+03
5.200000000000000455e-02 6.876659999999999995e-01 1.867735000000000056e+01 7.749180000000001201e+01 1.803914999999999964e+03
5.300000000000000544e-02 6.884460000000000024e-01 2.046985000000000099e+01 8.165850000000000364e+01 1.804965000000000146e+03
5.399999999999999939e-02 6.891985000000000472e-01 2.216225000000000023e+01 8.568630000000000280e+01 1.805994999999999891e+03
5.500000000000000028e-02 6.899220000000000352e-01 2.374765000000000015e+01 8.955899999999999750e+01 1.806990000000000009e+03
5.600000000000000117e-02 6.906200000000000117e-01 2.522589999999999932e+01 9.327664999999998940e+01 1.807954999999999927e+03
5.700000000000000205e-02 6.912955000000000627e-01 2.660190000000000055e+01 9.685439999999999827e+01 1.808889999999999873e+03
5.800000000000000294e-02 6.919554999999999456e-01 2.788384999999999891e+01 1.003154000000000110e+02 1.809799999999999955e+03
5.900000000000000383e-02 6.926039999999999974e-01 2.908124999999999716e+01 1.036879500000000007e+02 1.810690000000000055e+03
6.000000000000000472e-02 6.932464999999999877e-01 3.020369999999999777e+01 1.070002000000000066e+02 1.811554999999999836e+03
6.099999999999999867e-02 6.938880000000000603e-01 3.125975000000000037e+01 1.102785000000000082e+02 1.812420000000000073e+03
6.199999999999999956e-02 6.945300000000000917e-01 3.225539999999999452e+01 1.135420000000000016e+02 1.813275000000000091e+03
6.300000000000000044e-02 6.951739999999999586e-01 3.319375000000000142e+01 1.168009999999999877e+02 1.814130000000000109e+03
6.400000000000000133e-02 6.958185000000000064e-01 3.407450000000000045e+01 1.200559999999999974e+02 1.814980000000000018e+03
6.500000000000000222e-02 6.964595000000000091e-01 3.489385000000000048e+01 1.232969999999999970e+02 1.815829999999999927e+03
6.600000000000000311e-02 6.970935000000000326e-01 3.564535000000000053e+01 1.265044999999999931e+02 1.816674999999999955e+03
6.700000000000000400e-02 6.977135000000000975e-01 3.632035000000000480e+01 1.296510000000000105e+02 1.817500000000000000e+03
6.800000000000000488e-02 6.983135000000000314e-01 3.690930000000000177e+01 1.327059999999999889e+02 1.818309999999999945e+03
6.900000000000000577e-02 6.988864999999999661e-01 3.740290000000000248e+01 1.356334999999999980e+02 1.819090000000000146e+03
7.000000000000000666e-02 6.994259999999999922e-01 3.779245000000000232e+01 1.384029999999999916e+02 1.819829999999999927e+03
7.100000000000000755e-02 6.999279999999999946e-01 3.807115000000000293e+01 1.409819999999999993e+02 1.820529999999999973e+03
7.200000000000000844e-02 7.003865000000000229e-01 3.823414999999999964e+01 1.433464999999999918e+02 1.821174999999999955e+03
7.300000000000000933e-02 7.007995000000000196e-01 3.827875000000000227e+01 1.454764999999999873e+02 1.821764999999999873e+03
7.399999999999999634e-02 7.011644999999999683e-01 3.820459999999999923e+01 1.473600000000000136e+02 1.822295000000000073e+03
7.499999999999999722e-02 7.014810000000000212e-01 3.801370000000000005e+01 1.489879999999999995e+02 1.822759999999999991e+03
7.599999999999999811e-02 7.017489999999999561e-01 3.771030000000000371e+01 1.503629999999999995e+02 1.823164999999999964e+03
7.699999999999999900e-02 7.019710000000000116e-01 3.730079999999999529e+01 1.514900000000000091e+02 1.823500000000000000e+03
7.799999999999999989e-02 7.021474999999999245e-01 3.679379999999999740e+01 1.523804999999999836e+02 1.823779999999999973e+03
7.900000000000000078e-02 7.022844999999999782e-01 3.620000000000000284e+01 1.530519999999999925e+02 1.824000000000000000e+03
8.000000000000000167e-02 7.023840000000000083e-01 3.553184999999999860e+01 1.535260000000000105e+02 1.824170000000000073e+03
8.100000000000000255e-02 7.024529999999999941e-01 3.480344999999999800e+01 1.538274999999999864e+02 1.824285000000000082e+03
8.200000000000000344e-02 7.024965000000000792e-01 3.402974999999999994e+01 1.539855000000000018e+02 1.824365000000000009e+03
8.300000000000000433e-02 7.025185000000000457e-01 3.322614999999999696e+01 1.540280000000000200e+02 1.824409999999999854e+03
8.400000000000000522e-02 7.025265000000000537e-01 3.240755000000000052e+01 1.539844999999999970e+02 1.824429999999999836e+03
8.500000000000000611e-02 7.025250000000000661e-01 3.158789999999999765e+01 1.538834999999999980e+02 1.824424999999999955e+03
8.600000000000000699e-02 7.025179999999999758e-01 3.077925000000000111e+01 1.537489999999999952e+02 1.824409999999999854e+03
8.700000000000000788e-02 7.025090000000000501e-01 2.999139999999999873e+01 1.536009999999999991e+02 1.824384999999999991e+03
8.800000000000000877e-02 7.025004999999999722e-01 2.923104999999999976e+01 1.534544999999999959e+02 1.824355000000000018e+03
8.899999999999999578e-02 7.024930000000000341e-01 2.850215000000000032e+01 1.533199999999999932e+02 1.824324999999999818e+03
8.999999999999999667e-02 7.024869999999999726e-01 2.780560000000000187e+01 1.531990000000000123e+02 1.824295000000000073e+03
9.099999999999999756e-02 7.024814999999999809e-01 2.713969999999999771e+01 1.530889999999999986e+02 1.824269999999999982e+03
9.199999999999999845e-02 7.024745000000000017e-01 2.650019999999999953e+01 1.529834999999999923e+02 1.824240000000000009e+03
9.299999999999999933e-02 7.024630000000000596e-01 2.588125000000000142e+01 1.528704999999999927e+02 1.824210000000000036e+03
9.400000000000000022e-02 7.024449999999999861e-01 2.527580000000000027e+01 1.527365000000000066e+02 1.824174999999999955e+03
9.500000000000000111e-02 7.024164999999999992e-01 2.467589999999999861e+01 1.525649999999999977e+02 1.824130000000000109e+03
9.600000000000000200e-02 7.023755000000000415e-01 2.407375000000000043e+01 1.523410000000000082e+02 1.824074999999999818e+03
9.700000000000000289e-02 7.023185000000000677e-01 2.346180000000000021e+01 1.520494999999999948e+02 1.824000000000000000e+03
9.800000000000000377e-02 7.022444999999999382e-01 2.283344999999999914e+01 1.516779999999999973e+02 1.823909999999999854e+03
9.900000000000000466e-02 7.021505000000000107e-01 2.218329999999999913e+01 1.512164999999999964e+02 1.823800000000000182e+03
1.000000000000000056e-01 7.020370000000000221e-01 2.150795000000000101e+01 1.506589999999999918e+02 1.823664999999999964e+03
1.010000000000000064e-01 7.019044999999999312e-01 2.080559999999999832e+01 1.500035000000000025e+02 1.823505000000000109e+03
1.020000000000000073e-01 7.017530000000000712e-01 2.007679999999999865e+01 1.492524999999999977e+02 1.823329999999999927e+03
1.030000000000000082e-01 7.015839999999999854e-01 1.932424999999999926e+01 1.484139999999999873e+02 1.823119999999999891e+03
1.040000000000000091e-01 7.014015000000000111e-01 1.855270000000000152e+01 1.474989999999999952e+02 1.822900000000000091e+03
1.050000000000000100e-01 7.012089999999999712e-01 1.776885000000000048e+01 1.465235000000000127e+02 1.822660000000000082e+03
1.059999999999999970e-01 7.010095000000000631e-01 1.698104999999999976e+01 1.455064999999999884e+02 1.822409999999999854e+03
1.069999999999999979e-01 7.008079999999999865e-01 1.619865000000000066e+01 1.444694999999999823e+02 1.822150000000000091e+03
1.079999999999999988e-01 7.006090000000000373e-01 1.543179999999999907e+01 1.434359999999999786e+02 1.821889999999999873e+03
1.089999999999999997e-01 7.004170000000000673e-01 1.469071500000000086e+01 1.424275000000000091e+02 1.821635000000000218e+03
1.100000000000000006e-01 7.002360000000000806e-01 1.398535500000000020e+01 1.414670000000000130e+02 1.821384999999999991e+03
1.110000000000000014e-01 7.000699999999999701e-01 1.332466000000000150e+01 1.405745000000000005e+02 1.821150000000000091e+03
1.120000000000000023e-01 6.999214999999999742e-01 1.271621000000000024e+01 1.397665000000000077e+02 1.820934999999999945e+03
1.130000000000000032e-01 6.997925000000000395e-01 1.216594500000000068e+01 1.390570000000000164e+02 1.820740000000000009e+03
1.140000000000000041e-01 6.996854999999999603e-01 1.167788499999999985e+01 1.384544999999999959e+02 1.820575000000000045e+03
1.150000000000000050e-01 6.995999999999999996e-01 1.125386499999999934e+01 1.379624999999999773e+02 1.820430000000000064e+03
1.160000000000000059e-01 6.995355000000000878e-01 1.089373499999999950e+01 1.375815000000000055e+02 1.820315000000000055e+03
1.170000000000000068e-01 6.994899999999999451e-01 1.059524000000000044e+01 1.373075000000000045e+02 1.820224999999999909e+03
1.180000000000000077e-01 6.994629999999999459e-01 1.035460000000000136e+01 1.371305000000000121e+02 1.820160000000000082e+03
1.190000000000000085e-01 6.994515000000000038e-01 1.016646000000000072e+01 1.370399999999999920e+02 1.820115000000000009e+03
1.200000000000000094e-01 6.994519999999999627e-01 1.002458999999999989e+01 1.370219999999999914e+02 1.820094999999999800e+03
1.209999999999999964e-01 6.994620000000000282e-01 9.921950000000000713e+00 1.370620000000000118e+02 1.820090000000000146e+03
1.219999999999999973e-01 6.994789999999999619e-01 9.851399999999999935e+00 1.371444999999999936e+02 1.820095000000000027e+03
1.229999999999999982e-01 6.995000000000000107e-01 9.805820000000000647e+00 1.372555000000000121e+02 1.820110000000000127e+03
1.239999999999999991e-01 6.995230000000000059e-01 9.778475000000000250e+00 1.373810000000000002e+02 1.820130000000000109e+03
1.250000000000000000e-01 6.995454999999999313e-01 9.763225000000000264e+00 1.375095000000000027e+02 1.820154999999999973e+03
1.260000000000000009e-01 6.995654999999999513e-01 9.754670000000000840e+00 1.376310000000000002e+02 1.820184999999999945e+03
1.270000000000000018e-01 6.995824999999999960e-01 9.748194999999999055e+00 1.377390000000000043e+02 1.820200000000000045e+03
1.280000000000000027e-01 6.995955000000000368e-01 9.740155000000001451e+00 1.378269999999999982e+02 1.820224999999999909e+03
1.290000000000000036e-01 6.996040000000000036e-01 9.727640000000000953e+00 1.378919999999999959e+02 1.820235000000000127e+03
1.300000000000000044e-01 6.996074999999999378e-01 9.708684999999999121e+00 1.379334999999999809e+02 1.820250000000000000e+03
1.310000000000000053e-01 6.996074999999999378e-01 9.681989999999998986e+00 1.379510000000000218e+02 1.820250000000000000e+03
1.320000000000000062e-01 6.996029999999999749e-01 9.647179999999998756e+00 1.379465000000000146e+02 1.820255000000000109e+03
1.330000000000000071e-01 6.995949999999999669e-01 9.604255000000000209e+00 1.379230000000000018e+02 1.820250000000000000e+03
1.340000000000000080e-01 6.995854999999999713e-01 9.554005000000000081e+00 1.378840000000000146e+02 1.820244999999999891e+03
1.350000000000000089e-01 6.995734999999999593e-01 9.497550000000000381e+00 1.378335000000000150e+02 1.820230000000000018e+03
1.360000000000000098e-01 6.995609999999999884e-01 9.436384999999999579e+00 1.377764999999999986e+02 1.820220000000000027e+03
1.370000000000000107e-01 6.995489999999999764e-01 9.372215000000000629e+00 1.377169999999999845e+02 1.820204999999999927e+03
1.380000000000000115e-01 6.995374999999999233e-01 9.306919999999999860e+00 1.376599999999999966e+02 1.820190000000000055e+03
1.390000000000000124e-01 6.995280000000000387e-01 9.242079999999999629e+00 1.376094999999999970e+02 1.820179999999999836e+03
1.400000000000000133e-01 6.995204999999999895e-01 9.179429999999999978e+00 1.375674999999999955e+02 1.820170000000000073e+03
1.410000000000000142e-01 6.995154999999999568e-01 9.120239999999999014e+00 1.375369999999999777e+02 1.820159999999999854e+03
1.420000000000000151e-01 6.995135000000000103e-01 9.065480000000000871e+00 1.375199999999999818e+02 1.820159999999999854e+03
1.430000000000000160e-01 6.995139999999999691e-01 9.015695000000000903e+00 1.375165000000000077e+02 1.820154999999999973e+03
1.440000000000000169e-01 6.995175000000000143e-01 8.971064999999999401e+00 1.375260000000000105e+02 1.820159999999999854e+03
1.450000000000000178e-01 6.995230000000000059e-01 8.931385000000000574e+00 1.375475000000000136e+02 1.820159999999999854e+03
1.459999999999999909e-01 6.995305000000000550e-01 8.896110000000000184e+00 1.375779999999999745e+02 1.820164999999999964e+03
1.469999999999999918e-01 6.995379999999999932e-01 8.864509999999999224e+00 1.376154999999999973e+02 1.820174999999999955e+03
1.479999999999999927e-01 6.995470000000000299e-01 8.835709999999998843e+00 1.376560000000000059e+02 1.820184999999999945e+03
1.489999999999999936e-01 6.995554999999999968e-01 8.808650000000000091e+00 1.376979999999999791e+02 1.820199999999999818e+03
1.499999999999999944e-01 6.995635000000000048e-01 8.782555000000000334e+00 1.377375000000000114e+02 1.820204999999999927e+03
1.509999999999999953e-01 6.995700000000000252e-01 8.756655000000000300e+00 1.377725000000000080e+02 1.820215000000000146e+03
1.519999999999999962e-01 6.995759999999999756e-01 8.730484999999999829e+00 1.378015000000000043e+02 1.820220000000000027e+03
1.529999999999999971e-01 6.995795000000000208e-01 8.703739999999999810e+00 1.378230000000000075e+02 1.820224999999999909e+03
1.539999999999999980e-01 6.995819999999999261e-01 8.676394999999999413e+00 1.378374999999999773e+02 1.820230000000000018e+03
1.549999999999999989e-01 6.995830000000000659e-01 8.648759999999999337e+00 1.378449999999999989e+02 1.820235000000000127e+03
1.559999999999999998e-01 6.995835000000000248e-01 8.621320000000000761e+00 1.378464999999999918e+02 1.820235000000000127e+03
1.570000000000000007e-01 6.995830000000000659e-01 8.594770000000000465e+00 1.378449999999999989e+02 1.820235000000000127e+03
1.580000000000000016e-01 6.995824999999999960e-01 8.569879999999999498e+00 1.378419999999999845e+02 1.820235000000000127e+03
1.590000000000000024e-01 6.995830000000000659e-01 8.547615000000000407e+00 1.378404999999999916e+02 1.820235000000000127e+03
