# t [s], A [cm^2], U [cm/s], P [cPa], c [cm/s]
1.000000000000000021e-03 1.360215000000000174e-01 2.802229999999999999e-01 1.036389999999999958e+02 1.827125000000000000e+03
2.000000000000000042e-03 1.359960000000000058e-01 1.870714999999999906e+00 1.006034500000000094e+02 1.826855000000000018e+03
3.000000000000000062e-03 1.359000000000000208e-01 3.843747500000000095e+00 9.656664999999999566e+01 1.825900000000000091e+03
4.000000000000000083e-03 1.357555000000000012e-01 6.040336899999999787e+00 9.198539999999999850e+01 1.824494999999999891e+03
5.000000000000000104e-03 1.355874999999999997e-01 8.403684999999999405e+00 8.759695000000000675e+01 1.822875000000000000e+03
6.000000000000000125e-03 1.354164999999999952e-01 1.082531999999999961e+01 8.381055000000000632e+01 1.821240000000000009e+03
7.000000000000000146e-03 1.352510000000000101e-01 1.314043000000000028e+01 8.062330000000000041e+01 1.819675000000000182e+03
8.000000000000000167e-03 1.350945000000000062e-01 1.521283000000000030e+01 7.782644999999999413e+01 1.818224999999999909e+03
9.000000000000001055e-03 1.349495000000000000e-01 1.700844999999999985e+01 7.530610000000000070e+01 1.816894999999999982e+03
1.000000000000000194e-02 1.348194999999999810e-01 1.855555000000000021e+01 7.309714999999999918e+01 1.815724999999999909e+03
1.099999999999999936e-02 1.347065000000000068e-01 1.987934999999999874e+01 7.123850000000000193e+01 1.814710000000000036e+03
1.200000000000000025e-02 1.346105000000000218e-01 2.099329999999999785e+01 6.971399999999999864e+01 1.813849999999999909e+03
1.300000000000000114e-02 1.345299999999999829e-01 2.191019999999999968e+01 6.848349999999999227e+01 1.813150000000000091e+03
1.400000000000000203e-02 1.344635000000000136e-01 2.263989999999999725e+01 6.749304999999999666e+01 1.812575000000000045e+03
1.499999999999999944e-02 1.344090000000000007e-01 2.318905000000000172e+01 6.667194999999999538e+01 1.812110000000000127e+03
1.600000000000000033e-02 1.343639999999999834e-01 2.358060000000000045e+01 6.597025000000000716e+01 1.811724999999999909e+03
1.700000000000000122e-02 1.343265000000000153e-01 2.387310000000000088e+01 6.542119999999999891e+01 1.811429999999999836e+03
1.800000000000000211e-02 1.343010000000000037e-01 2.415704999999999814e+01 6.516335000000000832e+01 1.811219999999999800e+03
1.900000000000000300e-02 1.342909999999999937e-01 2.452490000000000236e+01 6.538609999999999900e+01 1.811144999999999982e+03
2.000000000000000042e-02 1.343004999999999893e-01 2.503275000000000006e+01 6.622875000000000512e+01 1.811244999999999891e+03
2.100000000000000130e-02 1.343305000000000193e-01 2.567665000000000219e+01 6.769405000000000427e+01 1.811519999999999982e+03
2.200000000000000219e-02 1.343794999999999851e-01 2.639334999999999809e+01 6.962045000000000528e+01 1.811954999999999927e+03
2.299999999999999961e-02 1.344404999999999906e-01 2.708270000000000266e+01 7.172084999999999866e+01 1.812509999999999991e+03
2.400000000000000050e-02 1.345049999999999857e-01 2.764010000000000034e+01 7.366469999999999629e+01 1.813105000000000018e+03
2.500000000000000139e-02 1.345649999999999902e-01 2.798649999999999949e+01 7.516929999999999268e+01 1.813654999999999973e+03
2.600000000000000228e-02 1.346124999999999960e-01 2.808765000000000001e+01 7.606909999999999172e+01 1.814099999999999909e+03
2.700000000000000316e-02 1.346439999999999859e-01 2.795759999999999934e+01 7.634489999999999554e+01 1.814404999999999973e+03
2.800000000000000058e-02 1.346594999999999875e-01 2.764820000000000277e+01 7.610794999999998822e+01 1.814570000000000164e+03
2.900000000000000147e-02 1.346614999999999895e-01 2.722925000000000040e+01 7.555029999999999291e+01 1.814610000000000127e+03
3.000000000000000236e-02 1.346554999999999835e-01 2.676675000000000182e+01 7.487935000000000230e+01 1.814569999999999936e+03
3.099999999999999978e-02 1.346450000000000147e-01 2.630640000000000001e+01 7.425939999999999941e+01 1.814480000000000018e+03
3.200000000000000067e-02 1.346344999999999903e-01 2.586540000000000106e+01 7.377549999999999386e+01 1.814389999999999873e+03
3.300000000000000155e-02 1.346244999999999803e-01 2.543440000000000012e+01 7.342584999999999695e+01 1.814299999999999955e+03
3.400000000000000244e-02 1.346160000000000134e-01 2.498680000000000234e+01 7.314140000000000441e+01 1.814224999999999909e+03
3.500000000000000333e-02 1.346060000000000034e-01 2.449210000000000065e+01 7.282120000000000459e+01 1.814134999999999991e+03
3.600000000000000422e-02 1.345935000000000048e-01 2.392865000000000109e+01 7.237274999999999636e+01 1.814030000000000200e+03
3.700000000000000511e-02 1.345764999999999878e-01 2.329390000000000072e+01 7.174680000000000746e+01 1.813880000000000109e+03
3.799999999999999906e-02 1.345540000000000069e-01 2.260824999999999818e+01 7.095794999999999675e+01 1.813684999999999945e+03
3.899999999999999994e-02 1.345274999999999943e-01 2.191364999999999696e+01 7.008660000000000423e+01 1.813449999999999818e+03
4.000000000000000083e-02 1.345005000000000228e-01 2.126549999999999940e+01 6.926335000000000264e+01 1.813210000000000036e+03
4.100000000000000172e-02 1.344754999999999978e-01 2.072149999999999892e+01 6.863960000000000150e+01 1.812985000000000127e+03
4.200000000000000261e-02 1.344579999999999942e-01 2.032934999999999803e+01 6.835255000000000791e+01 1.812820000000000164e+03
4.300000000000000350e-02 1.344505000000000006e-01 2.011710000000000065e+01 6.849389999999999645e+01 1.812750000000000000e+03
4.400000000000000439e-02 1.344569999999999932e-01 2.008719999999999928e+01 6.908830000000000382e+01 1.812795000000000073e+03
4.499999999999999833e-02 1.344754999999999978e-01 2.021620000000000061e+01 7.008754999999999313e+01 1.812950000000000045e+03
4.599999999999999922e-02 1.345069999999999877e-01 2.045864999999999867e+01 7.137819999999999254e+01 1.813215000000000146e+03
4.700000000000000011e-02 1.345454999999999846e-01 2.075505000000000067e+01 7.280169999999999675e+01 1.813565000000000055e+03
4.800000000000000100e-02 1.345890000000000142e-01 2.104044999999999987e+01 7.417959999999999354e+01 1.813945000000000164e+03
4.900000000000000189e-02 1.346304999999999863e-01 2.125314999999999799e+01 7.534024999999999750e+01 1.814315000000000055e+03
5.000000000000000278e-02 1.346660000000000079e-01 2.134165000000000134e+01 7.614064999999999372e+01 1.814634999999999991e+03
5.100000000000000366e-02 1.346910000000000052e-01 2.126940000000000097e+01 7.648175000000000523e+01 1.814864999999999782e+03
5.200000000000000455e-02 1.347025000000000028e-01 2.101595000000000013e+01 7.631454999999999700e+01 1.814974999999999909e+03
5.300000000000000544e-02 1.346979999999999844e-01 2.057699999999999818e+01 7.563855000000000928e+01 1.814945000000000164e+03
5.399999999999999939e-02 1.346779999999999922e-01 1.996130000000000138e+01 7.449375000000000568e+01 1.814775000000000091e+03
5.500000000000000028e-02 1.346430000000000127e-01 1.918759999999999977e+01 7.294894999999999641e+01 1.814470000000000027e+03
5.600000000000000117e-02 1.345950000000000202e-01 1.828079999999999927e+01 7.108914999999998940e+01 1.814045000000000073e+03
5.700000000000000205e-02 1.345355000000000023e-01 1.726910000000000167e+01 6.900419999999999732e+01 1.813514999999999873e+03
5.800000000000000294e-02 1.344680000000000042e-01 1.618144999999999811e+01 6.678059999999999263e+01 1.812909999999999854e+03
5.900000000000000383e-02 1.343934999999999991e-01 1.504660000000000153e+01 6.449649999999999750e+01 1.812250000000000000e+03
6.000000000000000472e-02 1.343159999999999910e-01 1.389245000000000019e+01 6.222090000000000032e+01 1.811555000000000064e+03
6.099999999999999867e-02 1.342375000000000096e-01 1.274668999999999919e+01 6.001444999999999652e+01 1.810844999999999800e+03
6.199999999999999956e-02 1.341594999999999871e-01 1.163672499999999843e+01 5.793200000000000216e+01 1.810144999999999982e+03
6.300000000000000044e-02 1.340844999999999954e-01 1.059048500000000104e+01 5.602595000000000169e+01 1.809470000000000027e+03
6.400000000000000133e-02 1.340144999999999809e-01 9.636314999999999742e+00 5.434775000000000489e+01 1.808840000000000146e+03
6.500000000000000222e-02 1.339520000000000155e-01 8.802830000000000155e+00 5.294950000000000045e+01 1.808275000000000091e+03
6.600000000000000311e-02 1.338985000000000036e-01 8.118014999999999759e+00 5.188289999999999935e+01 1.807784999999999854e+03
6.700000000000000400e-02 1.338564999999999894e-01 7.608139999999999681e+00 5.119764999999999588e+01 1.807389999999999873e+03
6.800000000000000488e-02 1.338270000000000015e-01 7.296529999999999738e+00 5.093845000000000312e+01 1.807114999999999782e+03
6.900000000000000577e-02 1.338114999999999999e-01 7.202094999999999914e+00 5.114189999999999969e+01 1.806970000000000027e+03
7.000000000000000666e-02 1.338125000000000009e-01 7.338165000000000049e+00 5.183315000000000339e+01 1.806960000000000036e+03
7.100000000000000755e-02 1.338305000000000189e-01 7.711610000000000298e+00 5.302349999999999852e+01 1.807105000000000018e+03
7.200000000000000844e-02 1.338654999999999984e-01 8.322305000000000064e+00 5.470900000000000318e+01 1.807404999999999973e+03
7.300000000000000933e-02 1.339184999999999959e-01 9.163154999999999717e+00 5.687019999999999698e+01 1.807860000000000127e+03
7.399999999999999634e-02 1.339879999999999960e-01 1.022053000000000011e+01 5.947289999999999566e+01 1.808465000000000146e+03
7.499999999999999722e-02 1.340729999999999977e-01 1.147487999999999886e+01 6.247039999999999793e+01 1.809220000000000027e+03
7.599999999999999811e-02 1.341729999999999867e-01 1.290194500000000133e+01 6.580580000000000496e+01 1.810105000000000018e+03
7.699999999999999900e-02 1.342860000000000165e-01 1.447390000000000043e+01 6.941550000000000864e+01 1.811105000000000018e+03
7.799999999999999989e-02 1.344090000000000007e-01 1.616075000000000017e+01 7.323255000000000337e+01 1.812210000000000036e+03
7.900000000000000078e-02 1.345415000000000083e-01 1.793149999999999977e+01 7.718965000000000032e+01 1.813394999999999982e+03
8.000000000000000167e-02 1.346795000000000075e-01 1.975549999999999784e+01 8.122245000000000914e+01 1.814644999999999982e+03
8.100000000000000255e-02 1.348225000000000118e-01 2.160360000000000014e+01 8.527209999999999468e+01 1.815930000000000064e+03
8.200000000000000344e-02 1.349675000000000180e-01 2.344930000000000092e+01 8.928739999999999100e+01 1.817244999999999891e+03
8.300000000000000433e-02 1.351130000000000109e-01 2.526930000000000121e+01 9.322634999999999650e+01 1.818565000000000055e+03
8.400000000000000522e-02 1.352575000000000027e-01 2.704445000000000121e+01 9.705795000000000528e+01 1.819875000000000000e+03
8.500000000000000611e-02 1.353989999999999916e-01 2.875985000000000014e+01 1.007613499999999931e+02 1.821174999999999955e+03
8.600000000000000699e-02 1.355374999999999774e-01 3.040520000000000067e+01 1.043268000000000058e+02 1.822444999999999936e+03
8.700000000000000788e-02 1.356725000000000014e-01 3.197460000000000235e+01 1.077539999999999907e+02 1.823684999999999945e+03
8.800000000000000877e-02 1.358034999999999937e-01 3.346604999999999563e+01 1.110510000000000019e+02 1.824890000000000100e+03
8.899999999999999578e-02 1.359310000000000240e-01 3.488100000000000023e+01 1.142340000000000089e+02 1.826059999999999945e+03
8.999999999999999667e-02 1.360540000000000083e-01 3.622350000000000136e+01 1.173199999999999932e+02 1.827204999999999927e+03
9.099999999999999756e-02 1.361749999999999905e-01 3.749945000000000306e+01 1.203324999999999960e+02 1.828319999999999936e+03
9.199999999999999845e-02 1.362924999999999831e-01 3.871560000000000201e+01 1.232909999999999968e+02 1.829409999999999854e+03
9.299999999999999933e-02 1.364090000000000025e-01 3.987890000000000157e+01 1.262155000000000058e+02 1.830485000000000127e+03
9.400000000000000022e-02 1.365235000000000198e-01 4.099559999999999604e+01 1.291204999999999927e+02 1.831549999999999955e+03
9.500000000000000111e-02 1.366374999999999951e-01 4.207085000000000008e+01 1.320160000000000196e+02 1.832610000000000127e+03
9.600000000000000200e-02 1.367504999999999971e-01 4.310810000000000031e+01 1.349074999999999989e+02 1.833660000000000082e+03
9.700000000000000289e-02 1.368634999999999990e-01 4.410884999999999678e+01 1.377930000000000064e+02 1.834710000000000036e+03
9.800000000000000377e-02 1.369755000000000000e-01 4.507264999999999588e+01 1.406650000000000205e+02 1.835750000000000000e+03
9.900000000000000466e-02 1.370865000000000000e-01 4.599715000000000487e+01 1.435110000000000241e+02 1.836795000000000073e+03
1.000000000000000056e-01 1.371970000000000134e-01 4.687800000000000011e+01 1.463139999999999930e+02 1.837819999999999936e+03
1.010000000000000064e-01 1.373059999999999836e-01 4.770959999999999468e+01 1.490534999999999854e+02 1.838835000000000036e+03
1.020000000000000073e-01 1.374119999999999786e-01 4.848494999999999777e+01 1.517074999999999818e+02 1.839820000000000164e+03
1.030000000000000082e-01 1.375149999999999983e-01 4.919639999999999702e+01 1.542514999999999930e+02 1.840789999999999964e+03
1.040000000000000091e-01 1.376145000000000007e-01 4.983575000000000443e+01 1.566614999999999895e+02 1.841714999999999918e+03
1.050000000000000100e-01 1.377085000000000115e-01 5.039495000000000147e+01 1.589150000000000205e+02 1.842599999999999909e+03
1.059999999999999970e-01 1.377975000000000172e-01 5.086615000000000464e+01 1.609900000000000091e+02 1.843440000000000055e+03
1.069999999999999979e-01 1.378805000000000169e-01 5.124230000000000018e+01 1.628689999999999998e+02 1.844219999999999800e+03
1.079999999999999988e-01 1.379564999999999819e-01 5.151740000000000208e+01 1.645349999999999966e+02 1.844934999999999945e+03
1.089999999999999997e-01 1.380244999999999944e-01 5.168675000000000352e+01 1.659764999999999873e+02 1.845579999999999927e+03
1.100000000000000006e-01 1.380850000000000133e-01 5.174719999999999942e+01 1.671854999999999905e+02 1.846150000000000091e+03
1.110000000000000014e-01 1.381374999999999964e-01 5.169729999999999848e+01 1.681580000000000155e+02 1.846644999999999982e+03
1.120000000000000023e-01 1.381805000000000117e-01 5.153739999999999810e+01 1.688940000000000055e+02 1.847065000000000055e+03
1.130000000000000032e-01 1.382160000000000055e-01 5.127004999999999768e+01 1.693994999999999891e+02 1.847404999999999973e+03
1.140000000000000041e-01 1.382424999999999904e-01 5.089934999999999832e+01 1.696819999999999879e+02 1.847664999999999964e+03
1.150000000000000050e-01 1.382609999999999950e-01 5.043155000000000143e+01 1.697554999999999836e+02 1.847849999999999909e+03
1.160000000000000059e-01 1.382720000000000060e-01 4.987434999999999974e+01 1.696359999999999957e+02 1.847954999999999927e+03
1.170000000000000068e-01 1.382749999999999813e-01 4.923714999999999975e+01 1.693425000000000011e+02 1.847994999999999891e+03
1.180000000000000077e-01 1.382714999999999916e-01 4.853040000000000020e+01 1.688985000000000127e+02 1.847974999999999909e+03
1.190000000000000085e-01 1.382630000000000248e-01 4.776529999999999632e+01 1.683259999999999934e+02 1.847894999999999982e+03
1.200000000000000094e-01 1.382480000000000098e-01 4.695390000000000441e+01 1.676494999999999891e+02 1.847769999999999982e+03
1.209999999999999964e-01 1.382295000000000051e-01 4.610795000000000243e+01 1.668924999999999841e+02 1.847605000000000018e+03
1.219999999999999973e-01 1.382070000000000243e-01 4.523930000000000007e+01 1.660790000000000077e+02 1.847400000000000091e+03
1.229999999999999982e-01 1.381819999999999993e-01 4.435889999999999844e+01 1.652295000000000016e+02 1.847170000000000073e+03
1.239999999999999991e-01 1.381550000000000000e-01 4.347695000000000221e+01 1.643640000000000043e+02 1.846920000000000073e+03
1.250000000000000000e-01 1.381269999999999998e-01 4.260245000000000459e+01 1.634984999999999786e+02 1.846654999999999973e+03
1.260000000000000009e-01 1.380974999999999842e-01 4.174289999999999878e+01 1.626460000000000150e+02 1.846389999999999873e+03
1.270000000000000018e-01 1.380680000000000240e-01 4.090435000000000088e+01 1.618164999999999907e+02 1.846110000000000127e+03
1.280000000000000027e-01 1.380395000000000094e-01 4.009100000000000108e+01 1.610160000000000196e+02 1.845840000000000146e+03
1.290000000000000036e-01 1.380105000000000082e-01 3.930564999999999998e+01 1.602470000000000141e+02 1.845570000000000164e+03
1.300000000000000044e-01 1.379825000000000079e-01 3.854930000000000234e+01 1.595099999999999909e+02 1.845309999999999945e+03
1.310000000000000053e-01 1.379549999999999943e-01 3.782139999999999702e+01 1.588004999999999995e+02 1.845055000000000064e+03
1.320000000000000062e-01 1.379285000000000094e-01 3.712000000000000455e+01 1.581125000000000114e+02 1.844799999999999955e+03
1.330000000000000071e-01 1.379024999999999834e-01 3.644190000000000396e+01 1.574370000000000118e+02 1.844549999999999955e+03
1.340000000000000080e-01 1.378765000000000129e-01 3.578294999999999959e+01 1.567640000000000100e+02 1.844309999999999945e+03
1.350000000000000089e-01 1.378504999999999869e-01 3.513814999999999600e+01 1.560819999999999936e+02 1.844065000000000055e+03
1.360000000000000098e-01 1.378240000000000021e-01 3.450195000000000078e+01 1.553799999999999955e+02 1.843809999999999945e+03
1.370000000000000107e-01 1.377970000000000028e-01 3.386870000000000402e+01 1.546449999999999818e+02 1.843559999999999945e+03
1.380000000000000115e-01 1.377685000000000159e-01 3.323259999999999792e+01 1.538650000000000091e+02 1.843295000000000073e+03
1.390000000000000124e-01 1.377390000000000003e-01 3.258825000000000216e+01 1.530304999999999893e+02 1.843014999999999873e+03
1.400000000000000133e-01 1.377069999999999961e-01 3.193075000000000330e+01 1.521320000000000050e+02 1.842720000000000027e+03
1.410000000000000142e-01 1.376729999999999898e-01 3.125585000000000235e+01 1.511619999999999777e+02 1.842400000000000091e+03
1.420000000000000151e-01 1.376370000000000093e-01 3.056034999999999968e+01 1.501159999999999854e+02 1.842065000000000055e+03
1.430000000000000160e-01 1.375979999999999981e-01 2.984220000000000184e+01 1.489915000000000020e+02 1.841700000000000045e+03
1.440000000000000169e-01 1.375564999999999982e-01 2.910020000000000095e+01 1.477894999999999754e+02 1.841315000000000055e+03
1.450000000000000178e-01 1.375119999999999953e-01 2.833485000000000298e+01 1.465115000000000123e+02 1.840904999999999973e+03
1.459999999999999909e-01 1.374650000000000039e-01 2.754769999999999897e+01 1.451644999999999754e+02 1.840469999999999800e+03
1.469999999999999918e-01 1.374154999999999960e-01 2.674155000000000015e+01 1.437570000000000050e+02 1.840015000000000100e+03
1.479999999999999927e-01 1.373639999999999861e-01 2.592054999999999865e+01 1.422994999999999948e+02 1.839535000000000082e+03
1.489999999999999936e-01 1.373105000000000020e-01 2.508980000000000032e+01 1.408050000000000068e+02 1.839039999999999964e+03
1.499999999999999944e-01 1.372559999999999891e-01 2.425540000000000163e+01 1.392889999999999873e+02 1.838530000000000200e+03
1.509999999999999953e-01 1.371999999999999886e-01 2.342405000000000115e+01 1.377659999999999911e+02 1.838014999999999873e+03
1.519999999999999962e-01 1.371435000000000015e-01 2.260304999999999964e+01 1.362539999999999907e+02 1.837490000000000009e+03
1.529999999999999971e-01 1.370875000000000010e-01 2.179990000000000094e+01 1.347699999999999818e+02 1.836969999999999800e+03
1.539999999999999980e-01 1.370319999999999871e-01 2.102199999999999847e+01 1.333299999999999841e+02 1.836454999999999927e+03
1.549999999999999989e-01 1.369779999999999887e-01 2.027660000000000196e+01 1.319490000000000123e+02 1.835954999999999927e+03
1.559999999999999998e-01 1.369255000000000055e-01 1.957034999999999769e+01 1.306425000000000125e+02 1.835470000000000027e+03
1.570000000000000007e-01 1.368759999999999977e-01 1.890930000000000177e+01 1.294225000000000136e+02 1.835000000000000000e+03
1.580000000000000016e-01 1.368289999999999784e-01 1.829840000000000089e+01 1.282984999999999900e+02 1.834559999999999945e+03
1.590000000000000024e-01 1.367849999999999899e-01 1.774164999999999992e+01 1.272785000000000082e+02 1.834150000000000091e+03
