# t [s], A [cm^2], U [cm/s], P [cPa], c [cm/s]
1.000000000000000021e-03 1.512320000000000053e-01 2.647490000000000121e-01 9.743500000000000227e+01 1.866805000000000064e+03
2.000000000000000042e-03 1.512000000000000011e-01 1.781004999999999949e+00 9.450399999999999068e+01 1.866514999999999873e+03
3.000000000000000062e-03 1.510930000000000051e-01 3.667623000000000300e+00 9.052065000000000339e+01 1.865585000000000036e+03
4.000000000000000083e-03 1.509355000000000002e-01 5.776873900000000006e+00 8.600995000000000346e+01 1.864244999999999891e+03
5.000000000000000104e-03 1.507564999999999877e-01 8.053174999999999528e+00 8.173509999999998854e+01 1.862740000000000009e+03
6.000000000000000125e-03 1.505765000000000020e-01 1.037843999999999944e+01 7.809539999999999793e+01 1.861240000000000009e+03
7.000000000000000146e-03 1.504054999999999975e-01 1.257288499999999942e+01 7.504380000000000450e+01 1.859835000000000036e+03
8.000000000000000167e-03 1.502445000000000030e-01 1.450096500000000077e+01 7.234414999999999907e+01 1.858534999999999854e+03
9.000000000000001055e-03 1.500974999999999948e-01 1.614604999999999890e+01 6.991055000000000064e+01 1.857360000000000127e+03
1.000000000000000194e-02 1.499679999999999902e-01 1.754574999999999818e+01 6.780665000000000475e+01 1.856339999999999918e+03
1.099999999999999936e-02 1.498565000000000036e-01 1.872419999999999973e+01 6.606810000000000116e+01 1.855474999999999909e+03
1.200000000000000025e-02 1.497640000000000082e-01 1.969559999999999889e+01 6.466944999999999766e+01 1.854755000000000109e+03
1.300000000000000114e-02 1.496879999999999877e-01 2.047504999999999953e+01 6.356759999999999877e+01 1.854179999999999836e+03
1.400000000000000203e-02 1.496274999999999966e-01 2.107110000000000127e+01 6.269930000000000092e+01 1.853720000000000027e+03
1.499999999999999944e-02 1.495779999999999887e-01 2.149105000000000132e+01 6.198239999999999839e+01 1.853360000000000127e+03
1.600000000000000033e-02 1.495370000000000033e-01 2.176930000000000121e+01 6.137919999999999732e+01 1.853059999999999945e+03
1.700000000000000122e-02 1.495064999999999866e-01 2.198644999999999783e+01 6.097204999999999586e+01 1.852844999999999800e+03
1.800000000000000211e-02 1.494900000000000118e-01 2.225260000000000105e+01 6.096030000000000371e+01 1.852735000000000127e+03
1.900000000000000300e-02 1.494940000000000158e-01 2.266219999999999857e+01 6.156269999999999953e+01 1.852779999999999973e+03
2.000000000000000042e-02 1.495219999999999883e-01 2.324969999999999715e+01 6.288550000000000750e+01 1.853000000000000000e+03
2.100000000000000130e-02 1.495739999999999847e-01 2.397210000000000107e+01 6.483850000000001046e+01 1.853409999999999854e+03
2.200000000000000219e-02 1.496439999999999992e-01 2.472395000000000209e+01 6.713989999999999725e+01 1.853965000000000146e+03
2.299999999999999961e-02 1.497215000000000074e-01 2.537440000000000140e+01 6.939840000000000941e+01 1.854579999999999927e+03
2.400000000000000050e-02 1.497950000000000115e-01 2.580964999999999776e+01 7.123210000000000264e+01 1.855170000000000073e+03
2.500000000000000139e-02 1.498539999999999872e-01 2.596475000000000222e+01 7.237669999999999959e+01 1.855654999999999973e+03
2.600000000000000228e-02 1.498924999999999841e-01 2.583755000000000024e+01 7.274819999999999709e+01 1.855980000000000018e+03
2.700000000000000316e-02 1.499090000000000145e-01 2.548129999999999740e+01 7.244499999999999318e+01 1.856134999999999991e+03
2.800000000000000058e-02 1.499070000000000125e-01 2.498154999999999859e+01 7.169469999999999743e+01 1.856139999999999873e+03
2.900000000000000147e-02 1.498935000000000128e-01 2.442654999999999887e+01 7.076994999999999436e+01 1.856039999999999964e+03
3.000000000000000236e-02 1.498740000000000072e-01 2.388210000000000122e+01 6.990340000000000487e+01 1.855900000000000091e+03
3.099999999999999978e-02 1.498545000000000016e-01 2.337750000000000128e+01 6.922889999999999588e+01 1.855750000000000000e+03
3.200000000000000067e-02 1.498384999999999856e-01 2.290494999999999948e+01 6.876234999999999786e+01 1.855619999999999891e+03
3.300000000000000155e-02 1.498249999999999860e-01 2.243050000000000210e+01 6.842099999999999227e+01 1.855514999999999873e+03
3.400000000000000244e-02 1.498109999999999997e-01 2.191130000000000067e+01 6.806960000000000832e+01 1.855405000000000200e+03
3.500000000000000333e-02 1.497944999999999971e-01 2.131400000000000006e+01 6.757609999999999673e+01 1.855275000000000091e+03
3.600000000000000422e-02 1.497725000000000029e-01 2.062914999999999921e+01 6.686164999999999736e+01 1.855105000000000018e+03
3.700000000000000511e-02 1.497430000000000150e-01 1.987805000000000177e+01 6.593195000000000050e+01 1.854885000000000218e+03
3.799999999999999906e-02 1.497084999999999944e-01 1.911124999999999829e+01 6.488315000000000055e+01 1.854619999999999891e+03
3.899999999999999994e-02 1.496724999999999861e-01 1.839824999999999733e+01 6.388170000000000215e+01 1.854340000000000146e+03
4.000000000000000083e-02 1.496405000000000096e-01 1.781230000000000047e+01 6.312444999999999595e+01 1.854085000000000036e+03
4.100000000000000172e-02 1.496179999999999732e-01 1.741355000000000075e+01 6.278940000000000055e+01 1.853900000000000091e+03
4.200000000000000261e-02 1.496104999999999796e-01 1.723545000000000016e+01 6.299220000000000397e+01 1.853829999999999927e+03
4.300000000000000350e-02 1.496204999999999896e-01 1.727770000000000294e+01 6.375780000000000314e+01 1.853894999999999982e+03
4.400000000000000439e-02 1.496480000000000032e-01 1.750600000000000023e+01 6.501285000000000025e+01 1.854099999999999909e+03
4.499999999999999833e-02 1.496909999999999907e-01 1.785844999999999771e+01 6.659980000000000189e+01 1.854420000000000073e+03
4.599999999999999922e-02 1.497430000000000150e-01 1.825650000000000261e+01 6.830535000000000423e+01 1.854824999999999818e+03
4.700000000000000011e-02 1.497979999999999867e-01 1.861739999999999995e+01 6.989730000000000132e+01 1.855250000000000000e+03
4.800000000000000100e-02 1.498495000000000243e-01 1.886534999999999940e+01 7.116020000000000323e+01 1.855654999999999973e+03
4.900000000000000189e-02 1.498889999999999945e-01 1.894040000000000035e+01 7.192400000000000659e+01 1.855974999999999909e+03
5.000000000000000278e-02 1.499130000000000185e-01 1.880349999999999966e+01 7.208180000000000121e+01 1.856170000000000073e+03
5.100000000000000366e-02 1.499174999999999813e-01 1.843764999999999787e+01 7.159520000000000550e+01 1.856210000000000036e+03
5.200000000000000455e-02 1.499004999999999921e-01 1.784590000000000032e+01 7.048845000000000027e+01 1.856085000000000036e+03
5.300000000000000544e-02 1.498629999999999962e-01 1.704745000000000132e+01 6.883490000000000464e+01 1.855800000000000182e+03
5.399999999999999939e-02 1.498059999999999947e-01 1.607215000000000060e+01 6.673945000000000505e+01 1.855365000000000009e+03
5.500000000000000028e-02 1.497330000000000050e-01 1.495579999999999998e+01 6.432075000000000387e+01 1.854804999999999836e+03
5.600000000000000117e-02 1.496485000000000176e-01 1.373615000000000030e+01 6.169669999999999987e+01 1.854139999999999873e+03
5.700000000000000205e-02 1.495549999999999935e-01 1.245041499999999957e+01 5.897520000000000095e+01 1.853410000000000082e+03
5.800000000000000294e-02 1.494559999999999778e-01 1.113419500000000006e+01 5.624945000000000306e+01 1.852634999999999991e+03
5.900000000000000383e-02 1.493554999999999744e-01 9.821410000000000196e+00 5.359865000000000634e+01 1.851839999999999918e+03
6.000000000000000472e-02 1.492554999999999854e-01 8.544744999999998925e+00 5.109064999999999657e+01 1.851054999999999836e+03
6.099999999999999867e-02 1.491599999999999870e-01 7.336829999999999963e+00 4.878685000000000116e+01 1.850299999999999955e+03
6.199999999999999956e-02 1.490710000000000091e-01 6.230269999999999975e+00 4.674559999999999604e+01 1.849595000000000027e+03
6.300000000000000044e-02 1.489909999999999846e-01 5.257814999999999905e+00 4.502495000000000402e+01 1.848954999999999927e+03
6.400000000000000133e-02 1.489214999999999844e-01 4.451575000000000060e+00 4.368285000000000196e+01 1.848404999999999973e+03
6.500000000000000222e-02 1.488669999999999993e-01 3.841849999999999987e+00 4.277554999999999552e+01 1.847964999999999918e+03
6.600000000000000311e-02 1.488275000000000015e-01 3.455435000000000478e+00 4.235394999999999754e+01 1.847639999999999873e+03
6.700000000000000400e-02 1.488065000000000082e-01 3.313965000000000050e+00 4.245985000000000298e+01 1.847460000000000036e+03
6.800000000000000488e-02 1.488050000000000206e-01 3.432324999999999626e+00 4.312154999999999916e+01 1.847429999999999836e+03
6.900000000000000577e-02 1.488240000000000118e-01 3.817489999999999828e+00 4.435054999999999836e+01 1.847559999999999945e+03
7.000000000000000666e-02 1.488645000000000107e-01 4.467945000000000277e+00 4.613954999999999984e+01 1.847860000000000127e+03
7.100000000000000755e-02 1.489260000000000028e-01 5.373685000000000045e+00 4.846210000000000662e+01 1.848329999999999927e+03
7.200000000000000844e-02 1.490075000000000149e-01 6.516804999999999737e+00 5.127389999999999759e+01 1.848950000000000045e+03
7.300000000000000933e-02 1.491075000000000039e-01 7.872550000000000381e+00 5.451545000000000130e+01 1.849724999999999909e+03
7.399999999999999634e-02 1.492249999999999965e-01 9.410655000000000214e+00 5.811570000000000391e+01 1.850630000000000109e+03
7.499999999999999722e-02 1.493559999999999888e-01 1.109706500000000062e+01 6.199620000000000175e+01 1.851655000000000200e+03
7.599999999999999811e-02 1.494989999999999930e-01 1.289532499999999970e+01 6.607509999999999195e+01 1.852779999999999973e+03
7.699999999999999900e-02 1.496510000000000062e-01 1.476844999999999963e+01 7.027160000000000650e+01 1.853969999999999800e+03
7.799999999999999989e-02 1.498089999999999977e-01 1.668019999999999925e+01 7.450915000000000532e+01 1.855215000000000146e+03
7.900000000000000078e-02 1.499699999999999922e-01 1.859659999999999869e+01 7.871875000000000000e+01 1.856489999999999782e+03
8.000000000000000167e-02 1.501319999999999877e-01 2.048689999999999856e+01 8.284149999999999636e+01 1.857769999999999982e+03
8.100000000000000255e-02 1.502915000000000223e-01 2.232519999999999882e+01 8.683060000000000400e+01 1.859039999999999964e+03
8.200000000000000344e-02 1.504479999999999984e-01 2.409049999999999869e+01 9.065255000000000507e+01 1.860289999999999964e+03
8.300000000000000433e-02 1.505994999999999973e-01 2.576765000000000327e+01 9.428770000000000095e+01 1.861505000000000109e+03
8.400000000000000522e-02 1.507449999999999901e-01 2.734724999999999895e+01 9.773005000000000564e+01 1.862674999999999955e+03
8.500000000000000611e-02 1.508849999999999913e-01 2.882574999999999932e+01 1.009863000000000000e+02 1.863799999999999955e+03
8.600000000000000699e-02 1.510190000000000143e-01 3.020445000000000135e+01 1.040733500000000049e+02 1.864884999999999991e+03
8.700000000000000788e-02 1.511470000000000036e-01 3.148899999999999721e+01 1.070169999999999959e+02 1.865914999999999964e+03
8.800000000000000877e-02 1.512700000000000156e-01 3.268840000000000146e+01 1.098479999999999990e+02 1.866920000000000073e+03
8.899999999999999578e-02 1.513889999999999958e-01 3.381354999999999933e+01 1.125989999999999895e+02 1.867884999999999991e+03
8.999999999999999667e-02 1.515050000000000008e-01 3.487630000000000052e+01 1.153025000000000091e+02 1.868824999999999818e+03
9.099999999999999756e-02 1.516200000000000048e-01 3.588824999999999932e+01 1.179869999999999948e+02 1.869750000000000000e+03
9.199999999999999845e-02 1.517330000000000068e-01 3.685975000000000534e+01 1.206754999999999995e+02 1.870670000000000073e+03
9.299999999999999933e-02 1.518460000000000087e-01 3.779930000000000234e+01 1.233840000000000003e+02 1.871590000000000146e+03
9.400000000000000022e-02 1.519590000000000107e-01 3.871264999999999645e+01 1.261189999999999998e+02 1.872505000000000109e+03
9.500000000000000111e-02 1.520724999999999993e-01 3.960285000000000366e+01 1.288804999999999836e+02 1.873434999999999945e+03
9.600000000000000200e-02 1.521869999999999890e-01 4.046999999999999886e+01 1.316599999999999966e+02 1.874359999999999900e+03
9.700000000000000289e-02 1.523014999999999786e-01 4.131134999999999735e+01 1.344410000000000025e+02 1.875289999999999964e+03
9.800000000000000377e-02 1.524154999999999816e-01 4.212154999999999916e+01 1.372019999999999982e+02 1.876214999999999918e+03
9.900000000000000466e-02 1.525285000000000113e-01 4.289324999999999477e+01 1.399164999999999850e+02 1.877139999999999873e+03
1.000000000000000056e-01 1.526399999999999979e-01 4.361730000000000018e+01 1.425554999999999950e+02 1.878039999999999964e+03
1.010000000000000064e-01 1.527479999999999949e-01 4.428359999999999985e+01 1.450885000000000105e+02 1.878925000000000182e+03
1.020000000000000073e-01 1.528519999999999879e-01 4.488150000000000261e+01 1.474855000000000018e+02 1.879775000000000091e+03
1.030000000000000082e-01 1.529515000000000180e-01 4.540030000000000143e+01 1.497175000000000011e+02 1.880585000000000036e+03
1.040000000000000091e-01 1.530440000000000134e-01 4.582989999999999498e+01 1.517574999999999932e+02 1.881344999999999800e+03
1.050000000000000100e-01 1.531294999999999740e-01 4.616129999999999711e+01 1.535824999999999818e+02 1.882045000000000073e+03
1.059999999999999970e-01 1.532069999999999821e-01 4.638674999999999926e+01 1.551750000000000114e+02 1.882680000000000064e+03
1.069999999999999979e-01 1.532755000000000090e-01 4.650055000000000405e+01 1.565210000000000150e+02 1.883244999999999891e+03
1.079999999999999988e-01 1.533344999999999847e-01 4.649895000000000067e+01 1.576125000000000114e+02 1.883740000000000009e+03
1.089999999999999997e-01 1.533845000000000069e-01 4.638060000000000116e+01 1.584459999999999980e+02 1.884154999999999973e+03
1.100000000000000006e-01 1.534240000000000048e-01 4.614659999999999940e+01 1.590250000000000057e+02 1.884485000000000127e+03
1.110000000000000014e-01 1.534540000000000071e-01 4.580039999999999623e+01 1.593584999999999923e+02 1.884740000000000009e+03
1.120000000000000023e-01 1.534739999999999993e-01 4.534805000000000064e+01 1.594600000000000080e+02 1.884914999999999964e+03
1.130000000000000032e-01 1.534854999999999969e-01 4.479765000000000441e+01 1.593475000000000250e+02 1.885019999999999982e+03
1.140000000000000041e-01 1.534884999999999999e-01 4.415939999999999799e+01 1.590434999999999945e+02 1.885049999999999955e+03
1.150000000000000050e-01 1.534834999999999949e-01 4.344490000000000407e+01 1.585745000000000005e+02 1.885019999999999982e+03
1.160000000000000059e-01 1.534719999999999973e-01 4.266709999999999781e+01 1.579664999999999964e+02 1.884934999999999945e+03
1.170000000000000068e-01 1.534544999999999937e-01 4.183955000000000268e+01 1.572495000000000118e+02 1.884799999999999955e+03
1.180000000000000077e-01 1.534324999999999994e-01 4.097619999999999862e+01 1.564515000000000100e+02 1.884625000000000000e+03
1.190000000000000085e-01 1.534065000000000012e-01 4.009059999999999491e+01 1.556005000000000109e+02 1.884420000000000073e+03
1.200000000000000094e-01 1.533780000000000143e-01 3.919579999999999842e+01 1.547214999999999918e+02 1.884190000000000055e+03
1.209999999999999964e-01 1.533474999999999977e-01 3.830360000000000298e+01 1.538385000000000105e+02 1.883940000000000055e+03
1.219999999999999973e-01 1.533160000000000078e-01 3.742454999999999643e+01 1.529705000000000155e+02 1.883690000000000055e+03
1.229999999999999982e-01 1.532844999999999902e-01 3.656744999999999379e+01 1.521320000000000050e+02 1.883434999999999945e+03
1.239999999999999991e-01 1.532534999999999870e-01 3.573910000000000053e+01 1.513360000000000127e+02 1.883180000000000064e+03
1.250000000000000000e-01 1.532235000000000125e-01 3.494460000000000122e+01 1.505885000000000105e+02 1.882934999999999945e+03
1.260000000000000009e-01 1.531945000000000112e-01 3.418659999999999854e+01 1.498935000000000173e+02 1.882704999999999927e+03
1.270000000000000018e-01 1.531675000000000120e-01 3.346600000000000108e+01 1.492470000000000141e+02 1.882474999999999909e+03
1.280000000000000027e-01 1.531414999999999860e-01 3.278155000000000285e+01 1.486460000000000150e+02 1.882259999999999991e+03
1.290000000000000036e-01 1.531170000000000031e-01 3.213030000000000541e+01 1.480799999999999841e+02 1.882059999999999945e+03
1.300000000000000044e-01 1.530934999999999935e-01 3.150779999999999959e+01 1.475380000000000109e+02 1.881865000000000009e+03
1.310000000000000053e-01 1.530704999999999982e-01 3.090814999999999912e+01 1.470060000000000002e+02 1.881675000000000182e+03
1.320000000000000062e-01 1.530485000000000040e-01 3.032464999999999833e+01 1.464674999999999727e+02 1.881490000000000009e+03
1.330000000000000071e-01 1.530249999999999944e-01 2.975000000000000000e+01 1.459069999999999823e+02 1.881300000000000182e+03
1.340000000000000080e-01 1.530015000000000125e-01 2.917640000000000100e+01 1.453075000000000045e+02 1.881105000000000018e+03
1.350000000000000089e-01 1.529765000000000152e-01 2.859649999999999892e+01 1.446535000000000082e+02 1.880900000000000091e+03
1.360000000000000098e-01 1.529495000000000160e-01 2.800319999999999965e+01 1.439320000000000164e+02 1.880674999999999955e+03
1.370000000000000107e-01 1.529200000000000004e-01 2.739020000000000010e+01 1.431299999999999955e+02 1.880434999999999945e+03
1.380000000000000115e-01 1.528875000000000095e-01 2.675249999999999773e+01 1.422384999999999877e+02 1.880174999999999955e+03
1.390000000000000124e-01 1.528510000000000146e-01 2.608635000000000304e+01 1.412520000000000095e+02 1.879880000000000109e+03
1.400000000000000133e-01 1.528124999999999900e-01 2.538945000000000007e+01 1.401690000000000111e+02 1.879565000000000055e+03
1.410000000000000142e-01 1.527695000000000025e-01 2.466140000000000043e+01 1.389909999999999854e+02 1.879219999999999800e+03
1.420000000000000151e-01 1.527229999999999976e-01 2.390335000000000321e+01 1.377230000000000132e+02 1.878849999999999909e+03
1.430000000000000160e-01 1.526735000000000175e-01 2.311830000000000140e+01 1.363750000000000000e+02 1.878444999999999936e+03
1.440000000000000169e-01 1.526210000000000067e-01 2.231085000000000207e+01 1.349594999999999914e+02 1.878019999999999982e+03
1.450000000000000178e-01 1.525654999999999928e-01 2.148720000000000141e+01 1.334925000000000068e+02 1.877575000000000045e+03
1.459999999999999909e-01 1.525084999999999913e-01 2.065469999999999828e+01 1.319925000000000068e+02 1.877110000000000127e+03
1.469999999999999918e-01 1.524495000000000156e-01 1.982169999999999987e+01 1.304800000000000182e+02 1.876639999999999873e+03
1.479999999999999927e-01 1.523899999999999977e-01 1.899729999999999919e+01 1.289755000000000109e+02 1.876160000000000082e+03
1.489999999999999936e-01 1.523315000000000086e-01 1.819079999999999941e+01 1.275005000000000166e+02 1.875680000000000064e+03
1.499999999999999944e-01 1.522729999999999917e-01 1.741165000000000163e+01 1.260769999999999982e+02 1.875204999999999927e+03
1.509999999999999953e-01 1.522160000000000180e-01 1.666864999999999952e+01 1.247229999999999990e+02 1.874744999999999891e+03
1.519999999999999962e-01 1.521620000000000195e-01 1.597005000000000052e+01 1.234575000000000102e+02 1.874309999999999945e+03
1.529999999999999971e-01 1.521109999999999962e-01 1.532319999999999993e+01 1.222944999999999993e+02 1.873889999999999873e+03
1.539999999999999980e-01 1.520630000000000037e-01 1.473385000000000034e+01 1.212464999999999975e+02 1.873505000000000109e+03
1.549999999999999989e-01 1.520195000000000018e-01 1.420655000000000001e+01 1.203215000000000003e+02 1.873150000000000091e+03
1.559999999999999998e-01 1.519810000000000050e-01 1.374439999999999884e+01 1.195250000000000057e+02 1.872829999999999927e+03
1.570000000000000007e-01 1.519464999999999844e-01 1.334859999999999935e+01 1.188575000000000017e+02 1.872550000000000182e+03
1.580000000000000016e-01 1.519169999999999965e-01 1.301905000000000001e+01 1.183179999999999978e+02 1.872305000000000064e+03
1.590000000000000024e-01 1.518924999999999859e-01 1.275404999999999944e+01 1.179004999999999939e+02 1.872099999999999909e+03
