# t [s], A [cm^2], U [cm/s], P [cPa], c [cm/s]
1.000000000000000021e-03 1.840034999999999865e-01 3.125149999999999872e-01 1.017836999999999961e+02 2.067699999999999818e+03
2.000000000000000042e-03 1.839534999999999920e-01 1.906031500000000101e+00 9.837489999999999668e+01 2.067324999999999818e+03
3.000000000000000062e-03 1.838144999999999918e-01 3.884428500000000284e+00 9.364070000000000960e+01 2.066315000000000055e+03
4.000000000000000083e-03 1.836225000000000218e-01 6.112211000000000283e+00 8.844830000000000325e+01 2.064940000000000055e+03
5.000000000000000104e-03 1.834144999999999803e-01 8.511174999999999713e+00 8.374899999999999523e+01 2.063465000000000146e+03
6.000000000000000125e-03 1.832130000000000147e-01 1.089591499999999868e+01 7.987375000000000114e+01 2.062055000000000291e+03
7.000000000000000146e-03 1.830240000000000200e-01 1.303650499999999823e+01 7.657529999999999859e+01 2.060755000000000109e+03
8.000000000000000167e-03 1.828509999999999858e-01 1.483977500000000127e+01 7.360444999999999993e+01 2.059579999999999927e+03
9.000000000000001055e-03 1.826975000000000127e-01 1.634394999999999953e+01 7.101345000000000596e+01 2.058559999999999945e+03
1.000000000000000194e-02 1.825674999999999937e-01 1.758830000000000027e+01 6.888884999999999081e+01 2.057704999999999927e+03
1.099999999999999936e-02 1.824614999999999987e-01 1.859104999999999919e+01 6.721160000000000423e+01 2.057014999999999873e+03
1.200000000000000025e-02 1.823764999999999969e-01 1.936939999999999884e+01 6.591944999999999766e+01 2.056470000000000255e+03
1.300000000000000114e-02 1.823099999999999998e-01 1.993025000000000091e+01 6.491190000000000282e+01 2.056045000000000073e+03
1.400000000000000203e-02 1.822555000000000147e-01 2.028399999999999892e+01 6.406525000000000603e+01 2.055715000000000146e+03
1.499999999999999944e-02 1.822119999999999851e-01 2.049190000000000111e+01 6.336164999999999736e+01 2.055449999999999818e+03
1.600000000000000033e-02 1.821824999999999972e-01 2.068545000000000300e+01 6.300159999999999627e+01 2.055274999999999636e+03
1.700000000000000122e-02 1.821764999999999912e-01 2.101839999999999975e+01 6.333615000000000350e+01 2.055244999999999891e+03
1.800000000000000211e-02 1.822019999999999751e-01 2.158565000000000111e+01 6.464345000000000141e+01 2.055414999999999964e+03
1.900000000000000300e-02 1.822610000000000063e-01 2.236865000000000236e+01 6.691714999999999236e+01 2.055810000000000400e+03
2.000000000000000042e-02 1.823484999999999967e-01 2.323959999999999937e+01 6.980719999999999459e+01 2.056385000000000218e+03
2.100000000000000130e-02 1.824474999999999847e-01 2.401545000000000130e+01 7.273259999999999081e+01 2.057055000000000291e+03
2.200000000000000219e-02 1.825404999999999944e-01 2.452929999999999922e+01 7.509260000000000446e+01 2.057684999999999945e+03
2.299999999999999961e-02 1.826125000000000109e-01 2.468704999999999927e+01 7.647169999999999845e+01 2.058190000000000055e+03
2.400000000000000050e-02 1.826534999999999964e-01 2.449114999999999753e+01 7.675804999999999723e+01 2.058484999999999673e+03
2.500000000000000139e-02 1.826645000000000074e-01 2.402560000000000073e+01 7.613994999999999891e+01 2.058579999999999927e+03
2.600000000000000228e-02 1.826510000000000078e-01 2.341409999999999769e+01 7.499639999999999418e+01 2.058515000000000327e+03
2.700000000000000316e-02 1.826254999999999962e-01 2.277090000000000103e+01 7.373654999999999404e+01 2.058350000000000364e+03
2.800000000000000058e-02 1.825964999999999949e-01 2.216434999999999889e+01 7.265619999999999834e+01 2.058159999999999854e+03
2.900000000000000147e-02 1.825694999999999957e-01 2.160334999999999894e+01 7.186039999999999850e+01 2.057984999999999673e+03
3.000000000000000236e-02 1.825465000000000004e-01 2.104840000000000089e+01 7.126820000000000732e+01 2.057829999999999927e+03
3.099999999999999978e-02 1.825239999999999918e-01 2.043880000000000052e+01 7.068344999999999345e+01 2.057675000000000182e+03
3.200000000000000067e-02 1.824970000000000203e-01 1.972404999999999831e+01 6.989759999999999707e+01 2.057500000000000000e+03
3.300000000000000155e-02 1.824609999999999843e-01 1.889049999999999940e+01 6.878679999999999950e+01 2.057265000000000327e+03
3.400000000000000244e-02 1.824149999999999938e-01 1.797364999999999924e+01 6.737409999999999854e+01 2.056965000000000146e+03
3.500000000000000333e-02 1.823620000000000241e-01 1.705429999999999779e+01 6.583780000000000143e+01 2.056619999999999891e+03
3.600000000000000422e-02 1.823099999999999998e-01 1.623839999999999861e+01 6.446569999999999823e+01 2.056274999999999636e+03
3.700000000000000511e-02 1.822679999999999856e-01 1.562875000000000014e+01 6.357160000000000366e+01 2.055989999999999782e+03
3.799999999999999906e-02 1.822449999999999903e-01 1.529679999999999929e+01 6.340245000000000175e+01 2.055824999999999818e+03
3.899999999999999994e-02 1.822469999999999923e-01 1.526425000000000054e+01 6.406640000000000157e+01 2.055819999999999709e+03
4.000000000000000083e-02 1.822759999999999936e-01 1.549729999999999919e+01 6.550034999999999741e+01 2.055994999999999891e+03
4.100000000000000172e-02 1.823275000000000035e-01 1.591495000000000104e+01 6.748375000000000057e+01 2.056324999999999818e+03
4.200000000000000261e-02 1.823934999999999862e-01 1.640670000000000073e+01 6.968835000000001401e+01 2.056755000000000109e+03
4.300000000000000350e-02 1.824644999999999739e-01 1.685405000000000086e+01 7.174690000000001078e+01 2.057220000000000255e+03
4.400000000000000439e-02 1.825284999999999824e-01 1.715035000000000309e+01 7.332200000000000273e+01 2.057649999999999636e+03
4.499999999999999833e-02 1.825749999999999873e-01 1.721544999999999703e+01 7.415980000000000416e+01 2.057965000000000146e+03
4.599999999999999922e-02 1.825970000000000093e-01 1.700305000000000177e+01 7.411979999999999791e+01 2.058119999999999891e+03
4.700000000000000011e-02 1.825895000000000157e-01 1.650094999999999956e+01 7.317874999999999375e+01 2.058085000000000036e+03
4.800000000000000100e-02 1.825530000000000208e-01 1.572530000000000072e+01 7.141294999999999504e+01 2.057855000000000018e+03
4.900000000000000189e-02 1.824890000000000123e-01 1.471245000000000047e+01 6.896719999999999118e+01 2.057439999999999600e+03
5.000000000000000278e-02 1.824020000000000086e-01 1.350985000000000014e+01 6.601999999999999602e+01 2.056869999999999891e+03
5.100000000000000366e-02 1.822969999999999868e-01 1.216853499999999855e+01 6.275355000000000416e+01 2.056170000000000073e+03
5.200000000000000455e-02 1.821789999999999798e-01 1.073850499999999997e+01 5.933334999999999582e+01 2.055394999999999982e+03
5.300000000000000544e-02 1.820545000000000080e-01 9.266999999999999460e+00 5.589959999999999951e+01 2.054569999999999709e+03
5.399999999999999939e-02 1.819279999999999786e-01 7.798804999999999765e+00 5.256810000000000116e+01 2.053724999999999909e+03
5.500000000000000028e-02 1.818039999999999934e-01 6.377729999999999677e+00 4.943775000000000119e+01 2.052894999999999982e+03
5.600000000000000117e-02 1.816860000000000142e-01 5.048205000000000275e+00 4.659955000000000069e+01 2.052105000000000018e+03
5.700000000000000205e-02 1.815780000000000172e-01 3.856158000000000197e+00 4.414390000000000214e+01 2.051384999999999764e+03
5.800000000000000294e-02 1.814839999999999787e-01 2.848500000000000032e+00 4.216440000000000055e+01 2.050744999999999891e+03
5.900000000000000383e-02 1.814080000000000137e-01 2.071444999999999759e+00 4.075624999999999432e+01 2.050224999999999909e+03
6.000000000000000472e-02 1.813535000000000008e-01 1.567842500000000028e+00 4.001120000000000232e+01 2.049850000000000364e+03
6.099999999999999867e-02 1.813234999999999986e-01 1.374017499999999892e+00 4.000894999999999868e+01 2.049634999999999764e+03
6.199999999999999956e-02 1.813214999999999966e-01 1.516745000000000010e+00 4.080899999999999750e+01 2.049605000000000018e+03
6.300000000000000044e-02 1.813494999999999968e-01 2.010869999999999713e+00 4.244289999999999452e+01 2.049769999999999982e+03
6.400000000000000133e-02 1.814089999999999869e-01 2.857974999999999710e+00 4.490950000000000131e+01 2.050144999999999982e+03
6.500000000000000222e-02 1.814985000000000070e-01 4.046124999999999972e+00 4.817374999999999829e+01 2.050720000000000255e+03
6.600000000000000311e-02 1.816185000000000160e-01 5.550724999999999909e+00 5.216854999999999620e+01 2.051500000000000000e+03
6.700000000000000400e-02 1.817654999999999965e-01 7.336235000000000284e+00 5.679994999999999550e+01 2.052465000000000146e+03
6.800000000000000488e-02 1.819370000000000154e-01 9.358525000000000205e+00 6.195339999999999492e+01 2.053590000000000146e+03
6.900000000000000577e-02 1.821289999999999853e-01 1.156740500000000083e+01 6.750199999999999534e+01 2.054859999999999673e+03
7.000000000000000666e-02 1.823359999999999981e-01 1.390952000000000055e+01 7.331385000000000218e+01 2.056235000000000127e+03
7.100000000000000755e-02 1.825545000000000084e-01 1.633095000000000141e+01 7.925990000000000180e+01 2.057690000000000055e+03
7.200000000000000844e-02 1.827794999999999837e-01 1.877994999999999948e+01 8.522055000000000291e+01 2.059194999999999709e+03
7.300000000000000933e-02 1.830065000000000164e-01 2.120935000000000059e+01 9.109200000000001296e+01 2.060720000000000255e+03
7.399999999999999634e-02 1.832314999999999916e-01 2.357840000000000202e+01 9.678989999999998872e+01 2.062239999999999782e+03
7.499999999999999722e-02 1.834525000000000183e-01 2.585459999999999781e+01 1.022542500000000132e+02 2.063734999999999673e+03
7.599999999999999811e-02 1.836669999999999969e-01 2.801449999999999818e+01 1.074491999999999905e+02 2.065184999999999945e+03
7.699999999999999900e-02 1.838720000000000077e-01 3.004384999999999906e+01 1.123635000000000019e+02 2.066585000000000036e+03
7.799999999999999989e-02 1.840689999999999826e-01 3.193735000000000213e+01 1.170074999999999932e+02 2.067920000000000073e+03
7.900000000000000078e-02 1.842564999999999897e-01 3.369719999999999516e+01 1.214095000000000084e+02 2.069204999999999927e+03
8.000000000000000167e-02 1.844365000000000032e-01 3.533169999999999789e+01 1.256099999999999994e+02 2.070439999999999600e+03
8.100000000000000255e-02 1.846094999999999819e-01 3.685325000000000273e+01 1.296564999999999941e+02 2.071625000000000000e+03
8.200000000000000344e-02 1.847769999999999968e-01 3.827620000000000289e+01 1.335954999999999870e+02 2.072779999999999745e+03
8.300000000000000433e-02 1.849409999999999943e-01 3.961520000000000152e+01 1.374705000000000155e+02 2.073899999999999636e+03
8.400000000000000522e-02 1.851019999999999888e-01 4.088315000000000055e+01 1.413135000000000048e+02 2.075010000000000218e+03
8.500000000000000611e-02 1.852619999999999822e-01 4.209064999999999657e+01 1.451465000000000032e+02 2.076105000000000018e+03
8.600000000000000699e-02 1.854204999999999881e-01 4.324429999999999552e+01 1.489775000000000205e+02 2.077194999999999709e+03
8.700000000000000788e-02 1.855785000000000073e-01 4.434714999999999918e+01 1.528014999999999759e+02 2.078279999999999745e+03
8.800000000000000877e-02 1.857354999999999978e-01 4.539799999999999613e+01 1.566005000000000109e+02 2.079364999999999782e+03
8.899999999999999578e-02 1.858910000000000007e-01 4.639225000000000421e+01 1.603485000000000014e+02 2.080430000000000291e+03
8.999999999999999667e-02 1.860435000000000005e-01 4.732184999999999775e+01 1.640095000000000027e+02 2.081480000000000018e+03
9.099999999999999756e-02 1.861929999999999974e-01 4.817655000000000598e+01 1.675425000000000182e+02 2.082505000000000109e+03
9.199999999999999845e-02 1.863365000000000160e-01 4.894429999999999836e+01 1.709054999999999893e+02 2.083500000000000000e+03
9.299999999999999933e-02 1.864735000000000142e-01 4.961220000000000141e+01 1.740550000000000068e+02 2.084445000000000164e+03
9.400000000000000022e-02 1.866019999999999901e-01 5.016729999999999734e+01 1.769499999999999886e+02 2.085335000000000036e+03
9.500000000000000111e-02 1.867205000000000115e-01 5.059734999999999872e+01 1.795525000000000091e+02 2.086154999999999745e+03
9.600000000000000200e-02 1.868279999999999941e-01 5.089170000000000016e+01 1.818324999999999818e+02 2.086904999999999745e+03
9.700000000000000289e-02 1.869230000000000058e-01 5.104179999999999495e+01 1.837649999999999864e+02 2.087565000000000055e+03
9.800000000000000377e-02 1.870044999999999902e-01 5.104194999999999993e+01 1.853329999999999984e+02 2.088135000000000218e+03
9.900000000000000466e-02 1.870724999999999749e-01 5.088980000000000103e+01 1.865305000000000177e+02 2.088609999999999673e+03
1.000000000000000056e-01 1.871255000000000002e-01 5.058634999999999593e+01 1.873594999999999970e+02 2.088994999999999891e+03
1.010000000000000064e-01 1.871654999999999847e-01 5.013654999999999973e+01 1.878305000000000007e+02 2.089274999999999636e+03
1.020000000000000073e-01 1.871909999999999963e-01 4.954905000000000115e+01 1.879664999999999964e+02 2.089460000000000036e+03
1.030000000000000082e-01 1.872034999999999949e-01 4.883565000000000111e+01 1.877950000000000159e+02 2.089559999999999945e+03
1.040000000000000091e-01 1.872044999999999959e-01 4.801149999999999807e+01 1.873530000000000086e+02 2.089574999999999818e+03
1.050000000000000100e-01 1.871944999999999859e-01 4.709390000000000498e+01 1.866820000000000164e+02 2.089515000000000327e+03
1.059999999999999970e-01 1.871749999999999803e-01 4.610159999999999769e+01 1.858255000000000052e+02 2.089394999999999982e+03
1.069999999999999979e-01 1.871484999999999954e-01 4.505449999999999733e+01 1.848305000000000007e+02 2.089220000000000255e+03
1.079999999999999988e-01 1.871160000000000045e-01 4.397204999999999586e+01 1.837404999999999973e+02 2.089000000000000000e+03
1.089999999999999997e-01 1.870789999999999953e-01 4.287330000000000041e+01 1.825980000000000132e+02 2.088750000000000000e+03
1.100000000000000006e-01 1.870394999999999974e-01 4.177550000000000097e+01 1.814404999999999859e+02 2.088485000000000127e+03
1.110000000000000014e-01 1.869985000000000119e-01 4.069380000000000308e+01 1.802995000000000232e+02 2.088204999999999927e+03
1.120000000000000023e-01 1.869569999999999843e-01 3.964079999999999870e+01 1.791995000000000005e+02 2.087920000000000073e+03
1.130000000000000032e-01 1.869164999999999854e-01 3.862610000000000099e+01 1.781589999999999918e+02 2.087639999999999873e+03
1.140000000000000041e-01 1.868779999999999886e-01 3.765625000000000000e+01 1.771875000000000000e+02 2.087375000000000000e+03
1.150000000000000050e-01 1.868409999999999793e-01 3.673449999999999704e+01 1.762884999999999991e+02 2.087114999999999782e+03
1.160000000000000059e-01 1.868055000000000132e-01 3.586114999999999498e+01 1.754565000000000055e+02 2.086869999999999891e+03
1.170000000000000068e-01 1.867725000000000080e-01 3.503345000000000198e+01 1.746814999999999998e+02 2.086640000000000327e+03
1.180000000000000077e-01 1.867415000000000047e-01 3.424630000000000507e+01 1.739484999999999957e+02 2.086420000000000073e+03
1.190000000000000085e-01 1.867110000000000158e-01 3.349235000000000184e+01 1.732365000000000066e+02 2.086210000000000036e+03
1.200000000000000094e-01 1.866809999999999858e-01 3.276274999999999693e+01 1.725240000000000009e+02 2.086000000000000000e+03
1.209999999999999964e-01 1.866510000000000113e-01 3.204760000000000275e+01 1.717855000000000132e+02 2.085789999999999964e+03
1.219999999999999973e-01 1.866200000000000081e-01 3.133660000000000068e+01 1.709970000000000141e+02 2.085574999999999818e+03
1.229999999999999982e-01 1.865870000000000029e-01 3.061955000000000027e+01 1.701359999999999957e+02 2.085345000000000255e+03
1.239999999999999991e-01 1.865509999999999946e-01 2.988714999999999833e+01 1.691814999999999998e+02 2.085099999999999909e+03
1.250000000000000000e-01 1.865114999999999967e-01 2.913134999999999764e+01 1.681170000000000186e+02 2.084829999999999927e+03
1.260000000000000009e-01 1.864684999999999815e-01 2.834560000000000102e+01 1.669314999999999998e+02 2.084529999999999745e+03
1.270000000000000018e-01 1.864204999999999890e-01 2.752564999999999884e+01 1.656169999999999902e+02 2.084199999999999818e+03
1.280000000000000027e-01 1.863679999999999781e-01 2.666949999999999932e+01 1.641750000000000114e+02 2.083845000000000255e+03
1.290000000000000036e-01 1.863104999999999900e-01 2.577755000000000152e+01 1.626084999999999923e+02 2.083454999999999927e+03
1.300000000000000044e-01 1.862484999999999835e-01 2.485275000000000034e+01 1.609304999999999950e+02 2.083034999999999854e+03
1.310000000000000053e-01 1.861829999999999874e-01 2.390034999999999954e+01 1.591580000000000155e+02 2.082579999999999927e+03
1.320000000000000062e-01 1.861134999999999873e-01 2.292774999999999963e+01 1.573109999999999786e+02 2.082110000000000127e+03
1.330000000000000071e-01 1.860414999999999985e-01 2.194404999999999717e+01 1.554159999999999968e+02 2.081614999999999782e+03
1.340000000000000080e-01 1.859669999999999934e-01 2.095974999999999966e+01 1.535004999999999882e+02 2.081109999999999673e+03
1.350000000000000089e-01 1.858925000000000161e-01 1.998635000000000161e+01 1.515944999999999823e+02 2.080600000000000364e+03
1.360000000000000098e-01 1.858174999999999966e-01 1.903565000000000040e+01 1.497280000000000086e+02 2.080090000000000146e+03
1.370000000000000107e-01 1.857449999999999934e-01 1.811914999999999765e+01 1.479279999999999973e+02 2.079590000000000146e+03
1.380000000000000115e-01 1.856740000000000057e-01 1.724784999999999968e+01 1.462220000000000084e+02 2.079105000000000018e+03
1.390000000000000124e-01 1.856059999999999932e-01 1.643140000000000001e+01 1.446320000000000050e+02 2.078640000000000327e+03
1.400000000000000133e-01 1.855430000000000135e-01 1.567805000000000071e+01 1.431775000000000091e+02 2.078199999999999818e+03
1.410000000000000142e-01 1.854839999999999822e-01 1.499415000000000120e+01 1.418700000000000045e+02 2.077800000000000182e+03
1.420000000000000151e-01 1.854310000000000125e-01 1.438400000000000034e+01 1.407199999999999989e+02 2.077434999999999945e+03
1.430000000000000160e-01 1.853839999999999932e-01 1.384975000000000023e+01 1.397289999999999850e+02 2.077105000000000018e+03
1.440000000000000169e-01 1.853425000000000211e-01 1.339155000000000051e+01 1.388965000000000032e+02 2.076815000000000055e+03
1.450000000000000178e-01 1.853069999999999995e-01 1.300740000000000052e+01 1.382144999999999868e+02 2.076565000000000055e+03
1.459999999999999909e-01 1.852769999999999972e-01 1.269364999999999988e+01 1.376734999999999900e+02 2.076355000000000018e+03
1.469999999999999918e-01 1.852520000000000000e-01 1.244495000000000040e+01 1.372595000000000027e+02 2.076184999999999945e+03
1.479999999999999927e-01 1.852329999999999810e-01 1.225489999999999924e+01 1.369560000000000173e+02 2.076039999999999964e+03
1.489999999999999936e-01 1.852170000000000205e-01 1.211585000000000001e+01 1.367454999999999927e+02 2.075929999999999836e+03
1.499999999999999944e-01 1.852050000000000085e-01 1.201984999999999992e+01 1.366105000000000018e+02 2.075845000000000255e+03
1.509999999999999953e-01 1.851964999999999861e-01 1.195855000000000068e+01 1.365310000000000059e+02 2.075784999999999854e+03
1.519999999999999962e-01 1.851905000000000079e-01 1.192354999999999876e+01 1.364894999999999925e+02 2.075735000000000127e+03
1.529999999999999971e-01 1.851855000000000029e-01 1.190680000000000049e+01 1.364694999999999823e+02 2.075699999999999818e+03
1.539999999999999980e-01 1.851824999999999999e-01 1.190075000000000038e+01 1.364550000000000125e+02 2.075670000000000073e+03
1.549999999999999989e-01 1.851794999999999969e-01 1.189860000000000007e+01 1.364340000000000259e+02 2.075654999999999745e+03
1.559999999999999998e-01 1.851765000000000216e-01 1.189444999999999908e+01 1.363949999999999818e+02 2.075630000000000109e+03
1.570000000000000007e-01 1.851730000000000043e-01 1.188344999999999985e+01 1.363299999999999841e+02 2.075605000000000018e+03
1.580000000000000016e-01 1.851694999999999869e-01 1.186179999999999879e+01 1.362325000000000159e+02 2.075579999999999927e+03
1.590000000000000024e-01 1.851639999999999953e-01 1.182689999999999841e+01 1.361000000000000227e+02 2.075545000000000073e+03
