# t [s], A [cm^2], U [cm/s], P [cPa], c [cm/s]
1.000000000000000021e-03 6.612879999999999869e-01 8.091000000000000969e-03 9.314754999999999541e+01 1.868759999999999991e+03
2.000000000000000042e-03 6.612754999999999050e-01 -4.058680000000000274e-03 9.310370000000000346e+01 1.868755000000000109e+03
3.000000000000000062e-03 6.613350000000000062e-01 1.186074000000000017e-01 9.325550000000001205e+01 1.868779999999999973e+03
4.000000000000000083e-03 6.613729999999999887e-01 2.191251999999999922e-01 9.338375000000000625e+01 1.868804999999999836e+03
5.000000000000000104e-03 6.613149999999999862e-01 1.439070000000000071e-01 9.320595000000000141e+01 1.868775000000000091e+03
6.000000000000000125e-03 6.612450000000000827e-01 3.504449999999997845e-02 9.287954999999999472e+01 1.868710000000000036e+03
7.000000000000000146e-03 6.611825000000000063e-01 -7.158200000000003449e-02 9.249774999999999636e+01 1.868634999999999991e+03
8.000000000000000167e-03 6.610590000000000632e-01 -3.185799999999999743e-01 9.186754999999999427e+01 1.868514999999999873e+03
9.000000000000001055e-03 6.608709999999999862e-01 -7.197800000000000864e-01 9.092255000000000109e+01 1.868339999999999918e+03
1.000000000000000194e-02 6.606039999999999690e-01 -1.297469999999999901e+00 8.958410000000000650e+01 1.868085000000000036e+03
1.099999999999999936e-02 6.602330000000000698e-01 -2.087874999999999925e+00 8.773875000000001023e+01 1.867730000000000018e+03
1.200000000000000025e-02 6.597945000000000615e-01 -2.992925000000000058e+00 8.546420000000000528e+01 1.867284999999999854e+03
1.300000000000000114e-02 6.593845000000000400e-01 -3.785892000000000479e+00 8.307734999999999559e+01 1.866799999999999955e+03
1.400000000000000203e-02 6.590789999999999704e-01 -4.263964000000000532e+00 8.093104999999999905e+01 1.866340000000000146e+03
1.499999999999999944e-02 6.588894999999999058e-01 -4.360725000000000406e+00 7.920855000000000246e+01 1.865940000000000055e+03
1.600000000000000033e-02 6.587684999999999791e-01 -4.147240000000000038e+00 7.786760000000001014e+01 1.865610000000000127e+03
1.700000000000000122e-02 6.586475000000000524e-01 -3.764689999999999870e+00 7.671134999999999593e+01 1.865305000000000064e+03
1.800000000000000211e-02 6.584719999999999462e-01 -3.345424999999999649e+00 7.550995000000000346e+01 1.865005000000000109e+03
1.900000000000000300e-02 6.582230000000000025e-01 -2.957840500000000095e+00 7.410984999999999445e+01 1.864664999999999964e+03
2.000000000000000042e-02 6.579174999999999329e-01 -2.591029999999999944e+00 7.248855000000000359e+01 1.864285000000000082e+03
2.100000000000000130e-02 6.575954999999999995e-01 -2.179364999999999775e+00 7.074105000000000132e+01 1.863884999999999991e+03
2.200000000000000219e-02 6.572959999999999914e-01 -1.650765000000000038e+00 6.901245000000000118e+01 1.863480000000000018e+03
2.299999999999999961e-02 6.570394999999999985e-01 -9.731149999999999523e-01 6.741630000000000678e+01 1.863095000000000027e+03
2.400000000000000050e-02 6.568150000000000377e-01 -1.790099999999998914e-01 6.597435000000000116e+01 1.862735000000000127e+03
2.500000000000000139e-02 6.565885000000000193e-01 6.366749999999998799e-01 6.459879999999999711e+01 1.862394999999999982e+03
2.600000000000000228e-02 6.563124999999999654e-01 1.341500000000000137e+00 6.311565000000000225e+01 1.862029999999999973e+03
2.700000000000000316e-02 6.559424999999999839e-01 1.803579999999999961e+00 6.131935000000000002e+01 1.861625000000000000e+03
2.800000000000000058e-02 6.554524999999999935e-01 1.932259999999999867e+00 5.904380000000000450e+01 1.861125000000000000e+03
2.900000000000000147e-02 6.548479999999999857e-01 1.707644999999999857e+00 5.622544999999999504e+01 1.860529999999999973e+03
3.000000000000000236e-02 6.541620000000000212e-01 1.186365000000000336e+00 5.293309999999999604e+01 1.859849999999999909e+03
3.099999999999999978e-02 6.534484999999999877e-01 4.811200000000006582e-01 4.935320000000000107e+01 1.859095000000000027e+03
3.200000000000000067e-02 6.527659999999999574e-01 -2.747599999999996712e-01 4.573985000000000412e+01 1.858329999999999927e+03
3.300000000000000155e-02 6.521619999999999084e-01 -9.611400000000003274e-01 4.235434999999999661e+01 1.857595000000000027e+03
3.400000000000000244e-02 6.516680000000000250e-01 -1.492119999999999891e+00 3.941610000000000014e+01 1.856934999999999945e+03
3.500000000000000333e-02 6.512990000000000723e-01 -1.821985000000000188e+00 3.707600000000000051e+01 1.856390000000000100e+03
3.600000000000000422e-02 6.510544999999999805e-01 -1.939215000000000133e+00 3.541105000000000302e+01 1.855974999999999909e+03
3.700000000000000511e-02 6.509270000000000334e-01 -1.853745500000000046e+00 3.443665000000000020e+01 1.855694999999999936e+03
3.799999999999999906e-02 6.509065000000000545e-01 -1.582384999999999931e+00 3.412810000000000343e+01 1.855570000000000164e+03
3.899999999999999994e-02 6.509860000000000646e-01 -1.136553900000000006e+00 3.444554999999999723e+01 1.855575000000000045e+03
4.000000000000000083e-02 6.511605000000000310e-01 -5.156199999999999672e-01 3.535325000000000273e+01 1.855715000000000146e+03
4.100000000000000172e-02 6.514320000000000110e-01 2.928150000000000475e-01 3.682935000000000514e+01 1.855974999999999909e+03
4.200000000000000261e-02 6.518030000000000213e-01 1.306744999999999823e+00 3.886445000000000505e+01 1.856365000000000009e+03
4.300000000000000350e-02 6.522749999999999382e-01 2.540654999999999664e+00 4.145185000000000031e+01 1.856875000000000000e+03
4.400000000000000439e-02 6.528449999999998976e-01 3.997309999999999697e+00 4.457489999999999952e+01 1.857505000000000109e+03
4.499999999999999833e-02 6.535029999999999450e-01 5.662735000000000518e+00 4.819665000000000532e+01 1.858250000000000000e+03
4.599999999999999922e-02 6.542350000000000110e-01 7.505890000000000839e+00 5.225529999999999831e+01 1.859090000000000146e+03
4.700000000000000011e-02 6.550215000000000343e-01 9.481932499999999209e+00 5.666515000000000413e+01 1.860019999999999982e+03
4.800000000000000100e-02 6.558420000000000361e-01 1.153775999999999868e+01 6.132415000000000305e+01 1.861005000000000109e+03
4.900000000000000189e-02 6.566754999999999676e-01 1.361890500000000159e+01 6.612349999999999284e+01 1.862039999999999964e+03
5.000000000000000278e-02 6.575044999999999362e-01 1.567542500000000061e+01 7.095904999999999063e+01 1.863090000000000146e+03
5.100000000000000366e-02 6.583149999999999835e-01 1.766600000000000037e+01 7.574049999999999727e+01 1.864144999999999982e+03
5.200000000000000455e-02 6.590989999999999904e-01 1.956040000000000134e+01 8.039785000000000537e+01 1.865184999999999945e+03
5.300000000000000544e-02 6.598494999999999777e-01 2.133944999999999936e+01 8.488445000000000107e+01 1.866194999999999936e+03
5.399999999999999939e-02 6.605680000000000440e-01 2.299385000000000190e+01 8.917660000000000764e+01 1.867180000000000064e+03
5.500000000000000028e-02 6.612550000000000372e-01 2.452190000000000225e+01 9.326980000000000359e+01 1.868115000000000009e+03
5.600000000000000117e-02 6.619140000000000024e-01 2.592764999999999986e+01 9.717579999999999529e+01 1.869025000000000091e+03
5.700000000000000205e-02 6.625510000000000010e-01 2.721865000000000023e+01 1.009175000000000040e+02 1.869894999999999982e+03
5.800000000000000294e-02 6.631700000000000372e-01 2.840455000000000041e+01 1.045229500000000087e+02 1.870735000000000127e+03
5.900000000000000383e-02 6.637770000000000614e-01 2.949515000000000242e+01 1.080220999999999947e+02 1.871550000000000182e+03
6.000000000000000472e-02 6.643749999999999378e-01 3.049940000000000140e+01 1.114424999999999955e+02 1.872345000000000027e+03
6.099999999999999867e-02 6.649669999999999748e-01 3.142390000000000327e+01 1.148050000000000068e+02 1.873125000000000000e+03
6.199999999999999956e-02 6.655530000000000612e-01 3.227219999999999800e+01 1.181204999999999927e+02 1.873900000000000091e+03
6.300000000000000044e-02 6.661325000000000163e-01 3.304429999999999978e+01 1.213905000000000030e+02 1.874659999999999854e+03
6.400000000000000133e-02 6.667024999999999757e-01 3.373680000000000234e+01 1.246030000000000086e+02 1.875405000000000200e+03
6.500000000000000222e-02 6.672569999999999890e-01 3.434359999999999502e+01 1.277390000000000043e+02 1.876139999999999873e+03
6.600000000000000311e-02 6.677914999999999823e-01 3.485734999999999673e+01 1.307715000000000032e+02 1.876845000000000027e+03
6.700000000000000400e-02 6.683004999999999640e-01 3.527025000000000432e+01 1.336690000000000111e+02 1.877529999999999973e+03
6.800000000000000488e-02 6.687779999999999836e-01 3.557574999999999932e+01 1.364010000000000105e+02 1.878175000000000182e+03
6.900000000000000577e-02 6.692204999999999959e-01 3.576899999999999835e+01 1.389385000000000048e+02 1.878784999999999854e+03
7.000000000000000666e-02 6.696234999999999271e-01 3.584725000000000250e+01 1.412584999999999980e+02 1.879340000000000146e+03
7.100000000000000755e-02 6.699859999999999705e-01 3.581004999999999683e+01 1.433425000000000011e+02 1.879845000000000027e+03
7.200000000000000844e-02 6.703044999999999698e-01 3.565895000000000437e+01 1.451795000000000186e+02 1.880304999999999836e+03
7.300000000000000933e-02 6.705795000000001060e-01 3.539705000000000013e+01 1.467620000000000005e+02 1.880700000000000045e+03
7.399999999999999634e-02 6.708110000000000461e-01 3.502925000000000466e+01 1.480900000000000034e+02 1.881039999999999964e+03
7.499999999999999722e-02 6.710004999999999997e-01 3.456179999999999808e+01 1.491684999999999945e+02 1.881320000000000164e+03
7.599999999999999811e-02 6.711489999999999956e-01 3.400274999999999892e+01 1.500064999999999884e+02 1.881550000000000182e+03
7.699999999999999900e-02 6.712595000000000089e-01 3.336195000000000022e+01 1.506195000000000164e+02 1.881730000000000018e+03
7.799999999999999989e-02 6.713354999999999739e-01 3.265109999999999957e+01 1.510269999999999868e+02 1.881855000000000018e+03
7.900000000000000078e-02 6.713819999999999233e-01 3.188364999999999938e+01 1.512524999999999977e+02 1.881934999999999945e+03
8.000000000000000167e-02 6.714035000000000419e-01 3.107464999999999833e+01 1.513240000000000123e+02 1.881985000000000127e+03
8.100000000000000255e-02 6.714050000000000296e-01 3.023984999999999701e+01 1.512724999999999795e+02 1.882000000000000000e+03
8.200000000000000344e-02 6.713930000000000176e-01 2.939504999999999768e+01 1.511285000000000025e+02 1.881990000000000009e+03
8.300000000000000433e-02 6.713724999999999277e-01 2.855519999999999925e+01 1.509250000000000114e+02 1.881954999999999927e+03
8.400000000000000522e-02 6.713480000000000558e-01 2.773355000000000103e+01 1.506890000000000214e+02 1.881914999999999964e+03
8.500000000000000611e-02 6.713230000000000031e-01 2.694055000000000177e+01 1.504465000000000146e+02 1.881869999999999891e+03
8.600000000000000699e-02 6.713005000000000777e-01 2.618384999999999962e+01 1.502154999999999916e+02 1.881819999999999936e+03
8.700000000000000788e-02 6.712820000000000453e-01 2.546734999999999971e+01 1.500095000000000027e+02 1.881775000000000091e+03
8.800000000000000877e-02 6.712679999999999758e-01 2.479189999999999827e+01 1.498340000000000032e+02 1.881735000000000127e+03
8.899999999999999578e-02 6.712565000000000337e-01 2.415510000000000090e+01 1.496885000000000048e+02 1.881700000000000045e+03
8.999999999999999667e-02 6.712474999999999969e-01 2.355205000000000126e+01 1.495664999999999907e+02 1.881664999999999964e+03
9.099999999999999756e-02 6.712374999999999314e-01 2.297579999999999956e+01 1.494574999999999818e+02 1.881634999999999991e+03
9.199999999999999845e-02 6.712240000000000428e-01 2.241795000000000115e+01 1.493474999999999966e+02 1.881605000000000018e+03
9.299999999999999933e-02 6.712055000000000105e-01 2.186945000000000050e+01 1.492195000000000107e+02 1.881570000000000164e+03
9.400000000000000022e-02 6.711774999999999824e-01 2.132094999999999985e+01 1.490584999999999809e+02 1.881530000000000200e+03
9.500000000000000111e-02 6.711380000000000123e-01 2.076350000000000051e+01 1.488474999999999966e+02 1.881484999999999900e+03
9.600000000000000200e-02 6.710855000000000015e-01 2.018909999999999982e+01 1.485720000000000027e+02 1.881424999999999955e+03
9.700000000000000289e-02 6.710180000000000033e-01 1.959104999999999919e+01 1.482205000000000155e+02 1.881349999999999909e+03
9.800000000000000377e-02 6.709344999999999892e-01 1.896454999999999913e+01 1.477864999999999895e+02 1.881255000000000109e+03
9.900000000000000466e-02 6.708350000000000701e-01 1.830695000000000050e+01 1.472649999999999864e+02 1.881144999999999982e+03
1.000000000000000056e-01 6.707205000000000528e-01 1.761795000000000044e+01 1.466585000000000036e+02 1.881014999999999873e+03
1.010000000000000064e-01 6.705925000000000358e-01 1.689985000000000070e+01 1.459735000000000014e+02 1.880869999999999891e+03
1.020000000000000073e-01 6.704539999999999944e-01 1.615700000000000003e+01 1.452205000000000155e+02 1.880704999999999927e+03
1.030000000000000082e-01 6.703075000000000561e-01 1.539625000000000199e+01 1.444170000000000016e+02 1.880535000000000082e+03
1.040000000000000091e-01 6.701570000000000027e-01 1.462589999999999968e+01 1.435794999999999959e+02 1.880349999999999909e+03
1.050000000000000100e-01 6.700070000000000192e-01 1.385568999999999917e+01 1.427325000000000159e+02 1.880170000000000073e+03
1.059999999999999970e-01 6.698610000000000397e-01 1.309594000000000058e+01 1.418960000000000150e+02 1.879980000000000018e+03
1.069999999999999979e-01 6.697239999999999860e-01 1.235707499999999825e+01 1.410939999999999941e+02 1.879800000000000182e+03
1.079999999999999988e-01 6.695979999999999155e-01 1.164906000000000041e+01 1.403480000000000132e+02 1.879630000000000109e+03
1.089999999999999997e-01 6.694875000000000131e-01 1.098088999999999871e+01 1.396764999999999759e+02 1.879474999999999909e+03
1.100000000000000006e-01 6.693940000000000445e-01 1.036003999999999969e+01 1.390960000000000036e+02 1.879335000000000036e+03
1.110000000000000014e-01 6.693195000000000672e-01 9.792275000000000063e+00 1.386159999999999854e+02 1.879220000000000027e+03
1.120000000000000023e-01 6.692644999999999289e-01 9.281225000000000946e+00 1.382445000000000164e+02 1.879125000000000000e+03
1.130000000000000032e-01 6.692289999999999628e-01 8.828390000000000626e+00 1.379834999999999923e+02 1.879049999999999955e+03
1.140000000000000041e-01 6.692110000000000003e-01 8.433254999999999058e+00 1.378284999999999911e+02 1.879005000000000109e+03
1.150000000000000050e-01 6.692104999999999304e-01 8.093225000000000335e+00 1.377729999999999961e+02 1.878974999999999909e+03
1.160000000000000059e-01 6.692240000000000411e-01 7.804140000000000299e+00 1.378054999999999950e+02 1.878970000000000027e+03
1.170000000000000068e-01 6.692489999999999828e-01 7.560544999999999405e+00 1.379124999999999943e+02 1.878980000000000018e+03
1.180000000000000077e-01 6.692829999999999613e-01 7.356110000000001037e+00 1.380785000000000196e+02 1.879009999999999991e+03
1.190000000000000085e-01 6.693225000000000424e-01 7.184045000000000236e+00 1.382860000000000014e+02 1.879045000000000073e+03
1.200000000000000094e-01 6.693655000000000577e-01 7.037420000000000009e+00 1.385194999999999936e+02 1.879085000000000036e+03
1.209999999999999964e-01 6.694089999999999208e-01 6.909539999999999793e+00 1.387629999999999768e+02 1.879134999999999991e+03
1.219999999999999973e-01 6.694504999999999484e-01 6.794109999999999872e+00 1.390035000000000025e+02 1.879184999999999945e+03
1.229999999999999982e-01 6.694879999999999720e-01 6.685439999999999827e+00 1.392289999999999850e+02 1.879230000000000018e+03
1.239999999999999991e-01 6.695214999999999916e-01 6.578490000000000393e+00 1.394279999999999973e+02 1.879275000000000091e+03
1.250000000000000000e-01 6.695485000000001019e-01 6.468994999999999607e+00 1.395949999999999989e+02 1.879309999999999945e+03
1.260000000000000009e-01 6.695679999999999410e-01 6.353415000000000035e+00 1.397224999999999966e+02 1.879340000000000146e+03
1.270000000000000018e-01 6.695800000000000640e-01 6.229054999999999787e+00 1.398070000000000164e+02 1.879360000000000127e+03
1.280000000000000027e-01 6.695845000000000269e-01 6.093964999999999854e+00 1.398475000000000250e+02 1.879375000000000000e+03
1.290000000000000036e-01 6.695809999999999818e-01 5.947039999999999438e+00 1.398425000000000011e+02 1.879375000000000000e+03
1.300000000000000044e-01 6.695699999999999985e-01 5.787955000000000183e+00 1.397944999999999993e+02 1.879369999999999891e+03
1.310000000000000053e-01 6.695524999999999949e-01 5.617135000000000211e+00 1.397049999999999841e+02 1.879355000000000018e+03
1.320000000000000062e-01 6.695294999999999996e-01 5.435679999999999623e+00 1.395785000000000196e+02 1.879329999999999927e+03
1.330000000000000071e-01 6.695005000000000539e-01 5.245284999999999975e+00 1.394200000000000159e+02 1.879299999999999955e+03
1.340000000000000080e-01 6.694679999999999520e-01 5.048065000000000246e+00 1.392339999999999804e+02 1.879259999999999991e+03
1.350000000000000089e-01 6.694320000000000270e-01 4.846384999999999721e+00 1.390264999999999986e+02 1.879215000000000146e+03
1.360000000000000098e-01 6.693940000000000445e-01 4.642704999999999416e+00 1.388029999999999973e+02 1.879170000000000073e+03
1.370000000000000107e-01 6.693540000000000045e-01 4.439379999999999882e+00 1.385690000000000168e+02 1.879119999999999891e+03
1.380000000000000115e-01 6.693139999999999645e-01 4.238515000000000477e+00 1.383274999999999864e+02 1.879070000000000164e+03
1.390000000000000124e-01 6.692735000000000767e-01 4.041834999999999845e+00 1.380829999999999984e+02 1.879014999999999873e+03
1.400000000000000133e-01 6.692325000000000079e-01 3.850649999999999906e+00 1.378369999999999891e+02 1.878960000000000036e+03
1.410000000000000142e-01 6.691920000000000091e-01 3.665795000000000137e+00 1.375914999999999964e+02 1.878904999999999973e+03
1.420000000000000151e-01 6.691515000000000102e-01 3.487705000000000055e+00 1.373449999999999989e+02 1.878849999999999909e+03
1.430000000000000160e-01 6.691104999999999414e-01 3.316485000000000127e+00 1.370985000000000014e+02 1.878795000000000073e+03
1.440000000000000169e-01 6.690685000000000660e-01 3.152019999999999822e+00 1.368489999999999895e+02 1.878735000000000127e+03
1.450000000000000178e-01 6.690259999999998985e-01 2.994114999999999860e+00 1.365960000000000036e+02 1.878680000000000064e+03
1.459999999999999909e-01 6.689819999999999656e-01 2.842604999999999826e+00 1.363369999999999891e+02 1.878619999999999891e+03
1.469999999999999918e-01 6.689370000000000038e-01 2.697474999999999845e+00 1.360715000000000146e+02 1.878559999999999945e+03
1.479999999999999927e-01 6.688899999999999846e-01 2.558949999999999836e+00 1.357989999999999782e+02 1.878500000000000000e+03
1.489999999999999936e-01 6.688425000000000065e-01 2.427509999999999835e+00 1.355194999999999936e+02 1.878440000000000055e+03
1.499999999999999944e-01 6.687929999999999708e-01 2.303919999999999746e+00 1.352355000000000018e+02 1.878375000000000000e+03
1.509999999999999953e-01 6.687440000000000051e-01 2.189159999999999773e+00 1.349479999999999791e+02 1.878305000000000064e+03
1.519999999999999962e-01 6.686950000000000394e-01 2.084405000000000285e+00 1.346605000000000132e+02 1.878240000000000009e+03
1.529999999999999971e-01 6.686464999999999215e-01 1.990920000000000023e+00 1.343770000000000095e+02 1.878174999999999955e+03
1.539999999999999980e-01 6.686000000000000831e-01 1.909985999999999962e+00 1.341014999999999873e+02 1.878110000000000127e+03
1.549999999999999989e-01 6.685555000000000803e-01 1.842813000000000034e+00 1.338375000000000057e+02 1.878045000000000073e+03
1.559999999999999998e-01 6.685140000000000526e-01 1.790483999999999964e+00 1.335894999999999868e+02 1.877990000000000009e+03
1.570000000000000007e-01 6.684760000000000701e-01 1.753866000000000147e+00 1.333615000000000066e+02 1.877940000000000055e+03
1.580000000000000016e-01 6.684419999999999806e-01 1.733585000000000154e+00 1.331564999999999941e+02 1.877884999999999991e+03
1.590000000000000024e-01 6.684129999999999239e-01 1.729975000000000041e+00 1.329775000000000205e+02 1.877840000000000146e+03
