# t [s], A [cm^2], U [cm/s], P [cPa], c [cm/s]
1.000000000000000021e-03 1.778445000000000165e-01 1.417288999999999910e-01 9.429044999999999277e+01 2.033284999999999854e+03
2.000000000000000042e-03 1.778115000000000112e-01 1.410376999999999992e+00 9.167350000000000421e+01 2.032985000000000127e+03
3.000000000000000062e-03 1.777044999999999875e-01 3.057469499999999840e+00 8.793585000000000207e+01 2.032039999999999964e+03
4.000000000000000083e-03 1.775470000000000104e-01 4.936562499999999964e+00 8.354269999999999641e+01 2.030679999999999836e+03
5.000000000000000104e-03 1.773675000000000113e-01 6.993425000000000225e+00 7.925185000000000457e+01 2.029155000000000200e+03
6.000000000000000125e-03 1.771889999999999854e-01 9.120995000000000630e+00 7.552264999999999873e+01 2.027644999999999982e+03
7.000000000000000146e-03 1.770194999999999963e-01 1.113886499999999913e+01 7.236074999999999591e+01 2.026235000000000127e+03
8.000000000000000167e-03 1.768609999999999904e-01 1.290089500000000022e+01 6.954285000000000139e+01 2.024940000000000055e+03
9.000000000000001055e-03 1.767164999999999986e-01 1.438549000000000078e+01 6.699665000000000248e+01 2.023784999999999854e+03
1.000000000000000194e-02 1.765899999999999970e-01 1.562795000000000023e+01 6.480095000000000027e+01 2.022784999999999854e+03
1.099999999999999936e-02 1.764839999999999742e-01 1.665299999999999869e+01 6.300175000000000125e+01 2.021949999999999818e+03
1.200000000000000025e-02 1.763974999999999849e-01 1.747775000000000034e+01 6.158400000000000318e+01 2.021279999999999973e+03
1.300000000000000114e-02 1.763279999999999847e-01 1.811495000000000033e+01 6.049994999999999834e+01 2.020755000000000109e+03
1.400000000000000203e-02 1.762739999999999863e-01 1.856484999999999985e+01 5.965559999999999974e+01 2.020345000000000027e+03
1.499999999999999944e-02 1.762294999999999834e-01 1.883370000000000033e+01 5.894124999999999659e+01 2.020019999999999982e+03
1.600000000000000033e-02 1.761940000000000173e-01 1.897200000000000131e+01 5.833749999999999858e+01 2.019759999999999991e+03
1.700000000000000122e-02 1.761690000000000200e-01 1.908639999999999759e+01 5.799330000000000496e+01 2.019590000000000146e+03
1.800000000000000211e-02 1.761624999999999996e-01 1.930344999999999800e+01 5.817734999999999701e+01 2.019554999999999836e+03
1.900000000000000300e-02 1.761820000000000053e-01 1.970969999999999800e+01 5.912359999999999616e+01 2.019710000000000036e+03
2.000000000000000042e-02 1.762299999999999978e-01 2.030914999999999893e+01 6.087810000000000343e+01 2.020085000000000036e+03
2.100000000000000130e-02 1.763014999999999999e-01 2.102024999999999721e+01 6.323814999999999742e+01 2.020654999999999973e+03
2.200000000000000219e-02 1.763870000000000160e-01 2.170929999999999893e+01 6.580745000000000289e+01 2.021335000000000036e+03
2.299999999999999961e-02 1.764729999999999910e-01 2.224029999999999774e+01 6.812909999999999400e+01 2.022029999999999973e+03
2.400000000000000050e-02 1.765459999999999807e-01 2.251955000000000240e+01 6.983115000000000805e+01 2.022630000000000109e+03
2.500000000000000139e-02 1.765984999999999916e-01 2.251970000000000027e+01 7.072899999999999920e+01 2.023079999999999927e+03
2.600000000000000228e-02 1.766265000000000196e-01 2.227864999999999895e+01 7.085540000000000305e+01 2.023329999999999927e+03
2.700000000000000316e-02 1.766340000000000132e-01 2.187749999999999773e+01 7.041665000000000418e+01 2.023414999999999964e+03
2.800000000000000058e-02 1.766274999999999928e-01 2.140760000000000218e+01 6.970085000000000264e+01 2.023375000000000000e+03
2.900000000000000147e-02 1.766139999999999932e-01 2.094035000000000224e+01 6.897435000000000116e+01 2.023275000000000091e+03
3.000000000000000236e-02 1.765999999999999792e-01 2.050809999999999889e+01 6.840280000000001337e+01 2.023159999999999854e+03
3.099999999999999978e-02 1.765879999999999950e-01 2.010105000000000075e+01 6.801689999999999259e+01 2.023070000000000164e+03
3.200000000000000067e-02 1.765774999999999983e-01 1.967820000000000036e+01 6.772695000000000221e+01 2.022985000000000127e+03
3.300000000000000155e-02 1.765654999999999863e-01 1.918730000000000047e+01 6.737420000000000186e+01 2.022884999999999991e+03
3.400000000000000244e-02 1.765470000000000095e-01 1.858740000000000236e+01 6.679989999999999384e+01 2.022744999999999891e+03
3.500000000000000333e-02 1.765200000000000102e-01 1.786664999999999992e+01 6.591004999999999825e+01 2.022535000000000082e+03
3.600000000000000422e-02 1.764815000000000134e-01 1.705219999999999914e+01 6.471860000000000923e+01 2.022244999999999891e+03
3.700000000000000511e-02 1.764370000000000105e-01 1.620669999999999789e+01 6.335565000000000424e+01 2.021889999999999873e+03
3.799999999999999906e-02 1.763894999999999769e-01 1.541525000000000034e+01 6.203934999999999889e+01 2.021519999999999982e+03
3.899999999999999994e-02 1.763480000000000047e-01 1.476459999999999795e+01 6.102089999999999748e+01 2.021184999999999945e+03
4.000000000000000083e-02 1.763200000000000045e-01 1.432274999999999920e+01 6.051919999999999789e+01 2.020944999999999936e+03
4.100000000000000172e-02 1.763104999999999811e-01 1.412320000000000064e+01 6.066559999999999775e+01 2.020855000000000018e+03
4.200000000000000261e-02 1.763224999999999931e-01 1.415840000000000032e+01 6.147270000000000323e+01 2.020934999999999945e+03
4.300000000000000350e-02 1.763549999999999840e-01 1.438315000000000055e+01 6.283284999999999343e+01 2.021174999999999955e+03
4.400000000000000439e-02 1.764034999999999909e-01 1.472494999999999976e+01 6.454349999999999454e+01 2.021545000000000073e+03
4.499999999999999833e-02 1.764610000000000067e-01 1.509834999999999994e+01 6.634944999999999027e+01 2.021994999999999891e+03
4.599999999999999922e-02 1.765194999999999959e-01 1.541980000000000040e+01 6.799065000000000225e+01 2.022454999999999927e+03
4.700000000000000011e-02 1.765714999999999923e-01 1.561960000000000015e+01 6.924439999999999884e+01 2.022875000000000000e+03
4.800000000000000100e-02 1.766090000000000160e-01 1.564959999999999951e+01 6.995504999999999995e+01 2.023179999999999836e+03
4.900000000000000189e-02 1.766280000000000072e-01 1.548564999999999969e+01 7.004675000000000296e+01 2.023345000000000027e+03
5.000000000000000278e-02 1.766270000000000062e-01 1.512584999999999980e+01 6.952070000000000505e+01 2.023355000000000018e+03
5.100000000000000366e-02 1.766054999999999986e-01 1.458534999999999826e+01 6.843944999999999368e+01 2.023194999999999936e+03
5.200000000000000455e-02 1.765660000000000007e-01 1.388974999999999937e+01 6.690389999999999304e+01 2.022884999999999991e+03
5.300000000000000544e-02 1.765110000000000012e-01 1.306920000000000037e+01 6.503079999999999927e+01 2.022460000000000036e+03
5.399999999999999939e-02 1.764435000000000031e-01 1.215361000000000047e+01 6.293299999999999983e+01 2.021924999999999955e+03
5.500000000000000028e-02 1.763669999999999960e-01 1.117033499999999968e+01 6.070790000000000219e+01 2.021320000000000164e+03
5.600000000000000117e-02 1.762859999999999983e-01 1.014392499999999941e+01 5.843350000000000222e+01 2.020674999999999955e+03
5.700000000000000205e-02 1.762015000000000109e-01 9.097084999999999866e+00 5.617110000000000269e+01 2.020000000000000000e+03
5.800000000000000294e-02 1.761165000000000092e-01 8.053010000000000446e+00 5.397199999999999420e+01 2.019325000000000045e+03
5.900000000000000383e-02 1.760329999999999950e-01 7.036825000000000330e+00 5.188550000000000040e+01 2.018654999999999973e+03
6.000000000000000472e-02 1.759534999999999849e-01 6.077260000000000773e+00 4.996580000000000155e+01 2.018019999999999982e+03
6.099999999999999867e-02 1.758804999999999952e-01 5.206660000000000288e+00 4.827615000000000123e+01 2.017429999999999836e+03
6.199999999999999956e-02 1.758164999999999867e-01 4.460180000000000256e+00 4.688880000000000337e+01 2.016909999999999854e+03
6.300000000000000044e-02 1.757640000000000036e-01 3.873990000000000045e+00 4.588204999999999956e+01 2.016480000000000018e+03
6.400000000000000133e-02 1.757269999999999943e-01 3.482825000000000060e+00 4.533450000000000557e+01 2.016170000000000073e+03
6.500000000000000222e-02 1.757070000000000021e-01 3.317400000000000126e+00 4.531774999999999665e+01 2.016000000000000000e+03
6.600000000000000311e-02 1.757075000000000164e-01 3.401994999999999880e+00 4.588940000000000197e+01 2.015985000000000127e+03
6.700000000000000400e-02 1.757299999999999973e-01 3.752609999999999779e+00 4.708749999999999858e+01 2.016144999999999982e+03
6.800000000000000488e-02 1.757770000000000166e-01 4.375835000000000363e+00 4.892640000000000100e+01 2.016490000000000009e+03
6.900000000000000577e-02 1.758474999999999899e-01 5.268525000000000347e+00 5.139579999999999416e+01 2.017034999999999854e+03
7.000000000000000666e-02 1.759410000000000140e-01 6.418229999999999436e+00 5.446134999999999593e+01 2.017759999999999991e+03
7.100000000000000755e-02 1.760570000000000190e-01 7.804115000000000357e+00 5.806775000000000375e+01 2.018670000000000073e+03
7.200000000000000844e-02 1.761935000000000029e-01 9.398545000000000371e+00 6.214275000000000659e+01 2.019744999999999891e+03
7.300000000000000933e-02 1.763474999999999904e-01 1.116857500000000059e+01 6.660249999999999204e+01 2.020965000000000146e+03
7.399999999999999634e-02 1.765169999999999795e-01 1.307819999999999894e+01 7.135684999999999434e+01 2.022309999999999945e+03
7.499999999999999722e-02 1.766969999999999930e-01 1.508994999999999820e+01 7.631485000000000696e+01 2.023750000000000000e+03
7.599999999999999811e-02 1.768859999999999877e-01 1.716700000000000159e+01 8.138980000000000814e+01 2.025264999999999873e+03
7.699999999999999900e-02 1.770805000000000018e-01 1.927474999999999739e+01 8.650384999999999991e+01 2.026824999999999818e+03
7.799999999999999989e-02 1.772775000000000045e-01 2.138240000000000052e+01 9.159114999999999895e+01 2.028420000000000073e+03
7.900000000000000078e-02 1.774744999999999795e-01 2.346369999999999933e+01 9.660124999999999318e+01 2.030009999999999991e+03
8.000000000000000167e-02 1.776699999999999946e-01 2.549804999999999922e+01 1.014988000000000028e+02 2.031595000000000027e+03
8.100000000000000255e-02 1.778619999999999923e-01 2.747025000000000006e+01 1.062635500000000093e+02 2.033164999999999964e+03
8.200000000000000344e-02 1.780505000000000004e-01 2.937015000000000242e+01 1.108894999999999982e+02 2.034699999999999818e+03
8.300000000000000433e-02 1.782349999999999768e-01 3.119219999999999970e+01 1.153810000000000002e+02 2.036210000000000036e+03
8.400000000000000522e-02 1.784149999999999903e-01 3.293434999999999491e+01 1.197505000000000024e+02 2.037684999999999945e+03
8.500000000000000611e-02 1.785909999999999997e-01 3.459680000000000177e+01 1.240149999999999864e+02 2.039134999999999991e+03
8.600000000000000699e-02 1.787634999999999919e-01 3.618115000000000236e+01 1.281895000000000095e+02 2.040559999999999945e+03
8.700000000000000788e-02 1.789330000000000087e-01 3.768939999999999912e+01 1.322874999999999943e+02 2.041954999999999927e+03
8.800000000000000877e-02 1.790999999999999814e-01 3.912310000000000088e+01 1.363190000000000168e+02 2.043329999999999927e+03
8.899999999999999578e-02 1.792639999999999789e-01 4.048305000000000575e+01 1.402860000000000014e+02 2.044684999999999945e+03
8.999999999999999667e-02 1.794255000000000155e-01 4.176879999999999882e+01 1.441860000000000070e+02 2.046029999999999973e+03
9.099999999999999756e-02 1.795840000000000214e-01 4.297870000000000346e+01 1.480110000000000241e+02 2.047340000000000146e+03
9.199999999999999845e-02 1.797389999999999821e-01 4.411015000000000441e+01 1.517460000000000093e+02 2.048635000000000218e+03
9.299999999999999933e-02 1.798909999999999954e-01 4.515940000000000509e+01 1.553739999999999952e+02 2.049894999999999982e+03
9.400000000000000022e-02 1.800384999999999902e-01 4.612210000000000321e+01 1.588754999999999882e+02 2.051114999999999782e+03
9.500000000000000111e-02 1.801804999999999934e-01 4.699314999999999998e+01 1.622284999999999968e+02 2.052300000000000182e+03
9.600000000000000200e-02 1.803174999999999917e-01 4.776740000000000208e+01 1.654114999999999895e+02 2.053440000000000055e+03
9.700000000000000289e-02 1.804465000000000097e-01 4.843930000000000291e+01 1.684039999999999964e+02 2.054525000000000091e+03
9.800000000000000377e-02 1.805685000000000207e-01 4.900369999999999493e+01 1.711845000000000141e+02 2.055550000000000182e+03
9.900000000000000466e-02 1.806820000000000093e-01 4.945539999999999736e+01 1.737344999999999970e+02 2.056500000000000000e+03
1.000000000000000056e-01 1.807870000000000033e-01 4.978999999999999915e+01 1.760370000000000061e+02 2.057380000000000109e+03
1.010000000000000064e-01 1.808825000000000016e-01 5.000384999999999991e+01 1.780780000000000030e+02 2.058180000000000291e+03
1.020000000000000073e-01 1.809665000000000024e-01 5.009440000000000026e+01 1.798460000000000036e+02 2.058899999999999636e+03
1.030000000000000082e-01 1.810410000000000075e-01 5.006069999999999709e+01 1.813340000000000032e+02 2.059529999999999745e+03
1.040000000000000091e-01 1.811039999999999872e-01 4.990335000000000321e+01 1.825395000000000039e+02 2.060069999999999709e+03
1.050000000000000100e-01 1.811570000000000125e-01 4.962505000000000166e+01 1.834650000000000034e+02 2.060519999999999982e+03
1.059999999999999970e-01 1.811984999999999846e-01 4.923075000000000045e+01 1.841189999999999998e+02 2.060875000000000000e+03
1.069999999999999979e-01 1.812294999999999878e-01 4.872749999999999915e+01 1.845155000000000030e+02 2.061144999999999982e+03
1.079999999999999988e-01 1.812499999999999944e-01 4.812434999999999974e+01 1.846725000000000136e+02 2.061329999999999927e+03
1.089999999999999997e-01 1.812615000000000198e-01 4.743234999999999957e+01 1.846144999999999925e+02 2.061445000000000164e+03
1.100000000000000006e-01 1.812650000000000095e-01 4.666380000000000194e+01 1.843684999999999832e+02 2.061480000000000018e+03
1.110000000000000014e-01 1.812610000000000054e-01 4.583225000000000193e+01 1.839649999999999750e+02 2.061454999999999927e+03
1.120000000000000023e-01 1.812499999999999944e-01 4.495154999999999745e+01 1.834339999999999975e+02 2.061375000000000000e+03
1.130000000000000032e-01 1.812344999999999928e-01 4.403570000000000562e+01 1.828070000000000164e+02 2.061250000000000000e+03
1.140000000000000041e-01 1.812145000000000006e-01 4.309815000000000396e+01 1.821129999999999995e+02 2.061085000000000036e+03
1.150000000000000050e-01 1.811915000000000053e-01 4.215140000000000242e+01 1.813774999999999977e+02 2.060900000000000091e+03
1.160000000000000059e-01 1.811665000000000081e-01 4.120650000000000546e+01 1.806245000000000118e+02 2.060694999999999709e+03
1.170000000000000068e-01 1.811405000000000098e-01 4.027299999999999613e+01 1.798729999999999905e+02 2.060479999999999563e+03
1.180000000000000077e-01 1.811134999999999828e-01 3.935860000000000269e+01 1.791355000000000075e+02 2.060255000000000109e+03
1.190000000000000085e-01 1.810869999999999980e-01 3.846890000000000498e+01 1.784234999999999900e+02 2.060034999999999854e+03
1.200000000000000094e-01 1.810605000000000131e-01 3.760755000000000337e+01 1.777400000000000091e+02 2.059810000000000400e+03
1.209999999999999964e-01 1.810344999999999871e-01 3.677620000000000289e+01 1.770865000000000009e+02 2.059595000000000255e+03
1.219999999999999973e-01 1.810100000000000042e-01 3.597445000000000448e+01 1.764585000000000150e+02 2.059385000000000218e+03
1.229999999999999982e-01 1.809850000000000070e-01 3.520045000000000357e+01 1.758480000000000132e+02 2.059180000000000291e+03
1.239999999999999991e-01 1.809609999999999830e-01 3.445054999999999978e+01 1.752454999999999927e+02 2.058974999999999909e+03
1.250000000000000000e-01 1.809370000000000145e-01 3.371999999999999886e+01 1.746374999999999886e+02 2.058765000000000327e+03
1.260000000000000009e-01 1.809120000000000172e-01 3.300325000000000131e+01 1.740099999999999909e+02 2.058560000000000400e+03
1.270000000000000018e-01 1.808865000000000056e-01 3.229399999999999693e+01 1.733480000000000132e+02 2.058345000000000255e+03
1.280000000000000027e-01 1.808589999999999920e-01 3.158599999999999852e+01 1.726365000000000123e+02 2.058114999999999782e+03
1.290000000000000036e-01 1.808299999999999907e-01 3.087284999999999968e+01 1.718615000000000066e+02 2.057869999999999891e+03
1.300000000000000044e-01 1.807985000000000009e-01 3.014890000000000114e+01 1.710115000000000123e+02 2.057605000000000018e+03
1.310000000000000053e-01 1.807640000000000080e-01 2.940919999999999845e+01 1.700769999999999982e+02 2.057319999999999709e+03
1.320000000000000062e-01 1.807259999999999978e-01 2.864974999999999739e+01 1.690494999999999948e+02 2.057010000000000218e+03
1.330000000000000071e-01 1.806844999999999979e-01 2.786809999999999832e+01 1.679264999999999759e+02 2.056670000000000073e+03
1.340000000000000080e-01 1.806405000000000094e-01 2.706285000000000096e+01 1.667085000000000150e+02 2.056300000000000182e+03
1.350000000000000089e-01 1.805915000000000159e-01 2.623434999999999917e+01 1.653979999999999961e+02 2.055900000000000091e+03
1.360000000000000098e-01 1.805400000000000060e-01 2.538445000000000107e+01 1.640024999999999977e+02 2.055470000000000255e+03
1.370000000000000107e-01 1.804850000000000065e-01 2.451650000000000063e+01 1.625324999999999989e+02 2.055014999999999873e+03
1.380000000000000115e-01 1.804274999999999907e-01 2.363515000000000299e+01 1.610024999999999977e+02 2.054539999999999964e+03
1.390000000000000124e-01 1.803675000000000139e-01 2.274624999999999986e+01 1.594279999999999973e+02 2.054045000000000073e+03
1.400000000000000133e-01 1.803059999999999941e-01 2.185670000000000002e+01 1.578274999999999864e+02 2.053539999999999964e+03
1.410000000000000142e-01 1.802429999999999866e-01 2.097409999999999997e+01 1.562214999999999918e+02 2.053019999999999982e+03
1.420000000000000151e-01 1.801804999999999934e-01 2.010634999999999906e+01 1.546290000000000191e+02 2.052500000000000000e+03
1.430000000000000160e-01 1.801180000000000003e-01 1.926140000000000185e+01 1.530699999999999932e+02 2.051985000000000127e+03
1.440000000000000169e-01 1.800570000000000226e-01 1.844699999999999918e+01 1.515640000000000214e+02 2.051480000000000018e+03
1.450000000000000178e-01 1.799975000000000047e-01 1.767020000000000124e+01 1.501270000000000095e+02 2.050985000000000127e+03
1.459999999999999909e-01 1.799410000000000176e-01 1.693730000000000047e+01 1.487740000000000009e+02 2.050514999999999873e+03
1.469999999999999918e-01 1.798875000000000057e-01 1.625345000000000084e+01 1.475160000000000196e+02 2.050069999999999709e+03
1.479999999999999927e-01 1.798369999999999969e-01 1.562249999999999872e+01 1.463614999999999782e+02 2.049650000000000091e+03
1.489999999999999936e-01 1.797905000000000197e-01 1.504729999999999990e+01 1.453154999999999859e+02 2.049259999999999764e+03
1.499999999999999944e-01 1.797479999999999911e-01 1.452899999999999991e+01 1.443804999999999836e+02 2.048904999999999745e+03
1.509999999999999953e-01 1.797099999999999809e-01 1.406775000000000020e+01 1.435545000000000186e+02 2.048579999999999927e+03
1.519999999999999962e-01 1.796760000000000024e-01 1.366230000000000011e+01 1.428344999999999914e+02 2.048295000000000073e+03
1.529999999999999971e-01 1.796455000000000135e-01 1.331044999999999945e+01 1.422139999999999986e+02 2.048034999999999854e+03
1.539999999999999980e-01 1.796190000000000009e-01 1.300914999999999999e+01 1.416859999999999786e+02 2.047815000000000055e+03
1.549999999999999989e-01 1.795959999999999779e-01 1.275445000000000029e+01 1.412400000000000091e+02 2.047619999999999891e+03
1.559999999999999998e-01 1.795760000000000134e-01 1.254190000000000005e+01 1.408664999999999736e+02 2.047450000000000045e+03
1.570000000000000007e-01 1.795589999999999964e-01 1.236669999999999980e+01 1.405550000000000068e+02 2.047305000000000064e+03
1.580000000000000016e-01 1.795444999999999958e-01 1.222374999999999901e+01 1.402950000000000159e+02 2.047180000000000064e+03
1.590000000000000024e-01 1.795319999999999971e-01 1.210774999999999935e+01 1.400749999999999886e+02 2.047075000000000045e+03
