# t [s], A [cm^2], U [cm/s], P [cPa], c [cm/s]
1.000000000000000021e-03 1.404455000000000009e-01 2.619690000000000074e-01 9.343120000000000402e+01 1.933815000000000055e+03
2.000000000000000042e-03 1.404164999999999996e-01 1.694152000000000102e+00 9.054879999999999995e+01 1.933509999999999991e+03
3.000000000000000062e-03 1.403234999999999899e-01 3.471200500000000133e+00 8.661984999999999957e+01 1.932579999999999927e+03
4.000000000000000083e-03 1.401879999999999793e-01 5.459837000000000273e+00 8.221574999999999989e+01 1.931264999999999873e+03
5.000000000000000104e-03 1.400365000000000082e-01 7.605959999999999610e+00 7.810054999999999836e+01 1.929789999999999964e+03
6.000000000000000125e-03 1.398860000000000103e-01 9.786785000000000068e+00 7.464445000000000618e+01 1.928340000000000146e+03
7.000000000000000146e-03 1.397430000000000061e-01 1.181948500000000024e+01 7.175409999999999400e+01 1.926984999999999900e+03
8.000000000000000167e-03 1.396089999999999831e-01 1.358131500000000003e+01 6.918314999999999770e+01 1.925744999999999891e+03
9.000000000000001055e-03 1.394880000000000009e-01 1.507169999999999987e+01 6.687754999999999939e+01 1.924630000000000109e+03
1.000000000000000194e-02 1.393814999999999915e-01 1.632985000000000042e+01 6.491470000000001050e+01 1.923670000000000073e+03
1.099999999999999936e-02 1.392920000000000269e-01 1.737604999999999933e+01 6.331884999999999764e+01 1.922865000000000009e+03
1.200000000000000025e-02 1.392185000000000228e-01 1.822299999999999898e+01 6.205570000000000164e+01 1.922210000000000036e+03
1.300000000000000114e-02 1.391585000000000183e-01 1.888230000000000075e+01 6.107175000000000153e+01 1.921684999999999945e+03
1.400000000000000203e-02 1.391104999999999980e-01 1.935750000000000171e+01 6.028584999999999638e+01 1.921275000000000091e+03
1.499999999999999944e-02 1.390715000000000146e-01 1.966089999999999804e+01 5.961374999999999602e+01 1.920945000000000164e+03
1.600000000000000033e-02 1.390394999999999825e-01 1.984595000000000198e+01 5.905875000000000341e+01 1.920684999999999945e+03
1.700000000000000122e-02 1.390170000000000017e-01 2.001514999999999844e+01 5.877355000000000018e+01 1.920500000000000000e+03
1.800000000000000211e-02 1.390095000000000081e-01 2.028594999999999970e+01 5.901009999999999422e+01 1.920454999999999927e+03
1.900000000000000300e-02 1.390235000000000221e-01 2.073604999999999876e+01 5.997755000000000081e+01 1.920589999999999918e+03
2.000000000000000042e-02 1.390604999999999758e-01 2.136500000000000199e+01 6.170544999999999902e+01 1.920914999999999964e+03
2.100000000000000130e-02 1.391169999999999907e-01 2.209179999999999922e+01 6.399084999999999468e+01 1.921429999999999836e+03
2.200000000000000219e-02 1.391855000000000175e-01 2.278569999999999851e+01 6.645150000000001000e+01 1.922059999999999945e+03
2.299999999999999961e-02 1.392559999999999909e-01 2.331259999999999977e+01 6.864844999999999686e+01 1.922704999999999927e+03
2.400000000000000050e-02 1.393170000000000242e-01 2.357730000000000103e+01 7.022185000000000343e+01 1.923275000000000091e+03
2.500000000000000139e-02 1.393610000000000126e-01 2.354820000000000135e+01 7.098894999999998845e+01 1.923700000000000045e+03
2.600000000000000228e-02 1.393849999999999811e-01 2.325860000000000127e+01 7.097624999999999318e+01 1.923940000000000055e+03
2.700000000000000316e-02 1.393905000000000005e-01 2.278689999999999927e+01 7.038249999999999318e+01 1.924009999999999991e+03
2.800000000000000058e-02 1.393820000000000059e-01 2.222605000000000075e+01 6.949250000000000682e+01 1.923954999999999927e+03
2.900000000000000147e-02 1.393670000000000186e-01 2.165319999999999823e+01 6.857810000000000628e+01 1.923825000000000045e+03
3.000000000000000236e-02 1.393500000000000016e-01 2.111009999999999920e+01 6.781950000000000500e+01 1.923680000000000064e+03
3.099999999999999978e-02 1.393345000000000000e-01 2.059789999999999921e+01 6.726939999999999031e+01 1.923539999999999964e+03
3.200000000000000067e-02 1.393214999999999870e-01 2.008655000000000257e+01 6.686329999999999529e+01 1.923420000000000073e+03
3.300000000000000155e-02 1.393085000000000018e-01 1.953219999999999956e+01 6.646520000000001005e+01 1.923304999999999836e+03
3.400000000000000244e-02 1.392930000000000001e-01 1.889760000000000062e+01 6.592985000000000184e+01 1.923164999999999964e+03
3.500000000000000333e-02 1.392720000000000069e-01 1.816900000000000048e+01 6.516214999999999691e+01 1.922980000000000018e+03
3.600000000000000422e-02 1.392444999999999933e-01 1.736580000000000013e+01 6.415709999999999980e+01 1.922735000000000127e+03
3.700000000000000511e-02 1.392125000000000168e-01 1.653920000000000101e+01 6.301139999999999475e+01 1.922445000000000164e+03
3.799999999999999906e-02 1.391780000000000239e-01 1.576239999999999952e+01 6.190309999999999491e+01 1.922135000000000218e+03
3.899999999999999994e-02 1.391470000000000207e-01 1.511364999999999981e+01 6.104740000000000322e+01 1.921855000000000018e+03
4.000000000000000083e-02 1.391249999999999987e-01 1.465779999999999816e+01 6.064135000000000275e+01 1.921650000000000091e+03
4.100000000000000172e-02 1.391169999999999907e-01 1.443110000000000070e+01 6.081309999999999860e+01 1.921559999999999945e+03
4.200000000000000261e-02 1.391249999999999987e-01 1.443329999999999913e+01 6.158939999999999770e+01 1.921625000000000000e+03
4.300000000000000350e-02 1.391494999999999815e-01 1.462785000000000046e+01 6.288790000000000191e+01 1.921829999999999927e+03
4.400000000000000439e-02 1.391880000000000062e-01 1.494909999999999961e+01 6.453350000000000364e+01 1.922164999999999964e+03
4.499999999999999833e-02 1.392345000000000110e-01 1.531479999999999997e+01 6.629250000000000398e+01 1.922579999999999927e+03
4.599999999999999922e-02 1.392835000000000045e-01 1.563945000000000007e+01 6.791440000000000055e+01 1.923019999999999982e+03
4.700000000000000011e-02 1.393280000000000074e-01 1.584645000000000081e+01 6.917195000000000960e+01 1.923424999999999955e+03
4.800000000000000100e-02 1.393630000000000146e-01 1.587729999999999997e+01 6.989225000000000421e+01 1.923740000000000009e+03
4.900000000000000189e-02 1.393820000000000059e-01 1.569614999999999938e+01 6.997405000000000541e+01 1.923924999999999955e+03
5.000000000000000278e-02 1.393824999999999925e-01 1.529005000000000081e+01 6.939124999999999943e+01 1.923944999999999936e+03
5.100000000000000366e-02 1.393649999999999889e-01 1.466635000000000133e+01 6.818344999999999345e+01 1.923795000000000073e+03
5.200000000000000455e-02 1.393290000000000084e-01 1.384750000000000014e+01 6.643900000000000716e+01 1.923480000000000018e+03
5.300000000000000544e-02 1.392769999999999841e-01 1.286514999999999986e+01 6.427439999999999998e+01 1.923015000000000100e+03
5.399999999999999939e-02 1.392114999999999880e-01 1.175579000000000107e+01 6.181494999999999607e+01 1.922425000000000182e+03
5.500000000000000028e-02 1.391364999999999963e-01 1.055657500000000049e+01 5.918099999999999739e+01 1.921750000000000000e+03
5.600000000000000117e-02 1.390549999999999842e-01 9.303530000000000300e+00 5.647899999999999920e+01 1.921009999999999991e+03
5.700000000000000205e-02 1.389690000000000092e-01 8.031109999999999971e+00 5.379975000000000307e+01 1.920235000000000127e+03
5.800000000000000294e-02 1.388829999999999787e-01 6.772759999999999891e+00 5.122034999999999627e+01 1.919454999999999927e+03
5.900000000000000383e-02 1.387990000000000057e-01 5.561740000000000350e+00 4.880930000000000035e+01 1.918690000000000055e+03
6.000000000000000472e-02 1.387194999999999956e-01 4.432034999999999947e+00 4.663124999999999432e+01 1.917960000000000036e+03
6.099999999999999867e-02 1.386459999999999915e-01 3.418488500000000041e+00 4.475090000000000146e+01 1.917295000000000073e+03
6.199999999999999956e-02 1.385824999999999974e-01 2.556445500000000148e+00 4.323449999999999704e+01 1.916704999999999927e+03
6.300000000000000044e-02 1.385294999999999999e-01 1.880481499999999917e+00 4.214870000000000516e+01 1.916215000000000146e+03
6.400000000000000133e-02 1.384909999999999752e-01 1.422714500000000104e+00 4.155715000000000003e+01 1.915849999999999909e+03
6.500000000000000222e-02 1.384680000000000077e-01 1.210771499999999889e+00 4.151590000000000202e+01 1.915630000000000109e+03
6.600000000000000311e-02 1.384624999999999884e-01 1.265849999999999920e+00 4.206810000000000116e+01 1.915565000000000055e+03
6.700000000000000400e-02 1.384765000000000024e-01 1.601109000000000115e+00 4.323944999999999794e+01 1.915674999999999955e+03
6.800000000000000488e-02 1.385104999999999809e-01 2.220646000000000342e+00 4.503495000000000203e+01 1.915960000000000036e+03
6.900000000000000577e-02 1.385645000000000071e-01 3.119129999999999736e+00 4.743774999999999409e+01 1.916429999999999836e+03
7.000000000000000666e-02 1.386384999999999978e-01 4.282119999999999926e+00 5.040954999999999586e+01 1.917085000000000036e+03
7.100000000000000755e-02 1.387309999999999932e-01 5.686975000000000335e+00 5.389309999999999690e+01 1.917905000000000200e+03
7.200000000000000844e-02 1.388405000000000056e-01 7.304140000000000299e+00 5.781569999999999965e+01 1.918889999999999873e+03
7.300000000000000933e-02 1.389644999999999908e-01 9.098924999999999486e+00 6.209380000000000166e+01 1.920005000000000109e+03
7.399999999999999634e-02 1.391014999999999890e-01 1.103303499999999993e+01 6.663785000000000025e+01 1.921240000000000009e+03
7.499999999999999722e-02 1.392484999999999973e-01 1.306662000000000035e+01 7.135715000000000430e+01 1.922569999999999936e+03
7.599999999999999811e-02 1.394024999999999848e-01 1.515995000000000203e+01 7.616394999999999982e+01 1.923970000000000027e+03
7.699999999999999900e-02 1.395600000000000174e-01 1.727519999999999811e+01 8.097810000000001196e+01 1.925409999999999854e+03
7.799999999999999989e-02 1.397200000000000109e-01 1.937750000000000128e+01 8.572990000000000066e+01 1.926869999999999891e+03
7.900000000000000078e-02 1.398785000000000167e-01 2.143699999999999761e+01 9.036304999999998699e+01 1.928335000000000036e+03
8.000000000000000167e-02 1.400355000000000072e-01 2.342899999999999849e+01 9.483635000000001014e+01 1.929775000000000091e+03
8.100000000000000255e-02 1.401884999999999937e-01 2.533505000000000251e+01 9.912364999999999782e+01 1.931190000000000055e+03
8.200000000000000344e-02 1.403364999999999752e-01 2.714300000000000068e+01 1.032154999999999916e+02 1.932565000000000055e+03
8.300000000000000433e-02 1.404794999999999794e-01 2.884645000000000081e+01 1.071153500000000065e+02 1.933889999999999873e+03
8.400000000000000522e-02 1.406169999999999920e-01 3.044460000000000122e+01 1.108384999999999962e+02 1.935174999999999955e+03
8.500000000000000611e-02 1.407490000000000130e-01 3.194095000000000084e+01 1.144099999999999966e+02 1.936409999999999854e+03
8.600000000000000699e-02 1.408774999999999888e-01 3.334220000000000539e+01 1.178580000000000041e+02 1.937610000000000127e+03
8.700000000000000788e-02 1.410020000000000162e-01 3.465720000000000312e+01 1.212145000000000010e+02 1.938775000000000091e+03
8.800000000000000877e-02 1.411229999999999984e-01 3.589539999999999509e+01 1.245080000000000098e+02 1.939914999999999964e+03
8.899999999999999578e-02 1.412419999999999787e-01 3.706605000000000416e+01 1.277634999999999934e+02 1.941029999999999973e+03
8.999999999999999667e-02 1.413599999999999857e-01 3.817714999999999748e+01 1.309985000000000070e+02 1.942139999999999873e+03
9.099999999999999756e-02 1.414770000000000194e-01 3.923470000000000368e+01 1.342244999999999777e+02 1.943235000000000127e+03
9.199999999999999845e-02 1.415929999999999966e-01 4.024235000000000184e+01 1.374424999999999955e+02 1.944329999999999927e+03
9.299999999999999933e-02 1.417085000000000150e-01 4.120114999999999839e+01 1.406469999999999914e+02 1.945414999999999964e+03
9.400000000000000022e-02 1.418230000000000046e-01 4.210974999999999824e+01 1.438235000000000241e+02 1.946494999999999891e+03
9.500000000000000111e-02 1.419365000000000210e-01 4.296434999999999604e+01 1.469530000000000030e+02 1.947565000000000055e+03
9.600000000000000200e-02 1.420480000000000076e-01 4.375910000000000366e+01 1.500105000000000075e+02 1.948615000000000009e+03
9.700000000000000289e-02 1.421570000000000056e-01 4.448660000000000281e+01 1.529675000000000011e+02 1.949639999999999873e+03
9.800000000000000377e-02 1.422625000000000139e-01 4.513844999999999885e+01 1.557950000000000159e+02 1.950634999999999991e+03
9.900000000000000466e-02 1.423635000000000039e-01 4.570550000000000068e+01 1.584635000000000105e+02 1.951595000000000027e+03
1.000000000000000056e-01 1.424595000000000167e-01 4.617860000000000298e+01 1.609440000000000168e+02 1.952505000000000109e+03
1.010000000000000064e-01 1.425489999999999813e-01 4.654914999999999736e+01 1.632104999999999961e+02 1.953355000000000018e+03
1.020000000000000073e-01 1.426310000000000078e-01 4.680910000000000082e+01 1.652404999999999973e+02 1.954135000000000218e+03
1.030000000000000082e-01 1.427054999999999851e-01 4.695204999999999984e+01 1.670149999999999864e+02 1.954849999999999909e+03
1.040000000000000091e-01 1.427720000000000100e-01 4.697314999999999685e+01 1.685194999999999936e+02 1.955480000000000018e+03
1.050000000000000100e-01 1.428294999999999981e-01 4.686965000000000003e+01 1.697470000000000141e+02 1.956035000000000082e+03
1.059999999999999970e-01 1.428780000000000050e-01 4.664099999999999824e+01 1.706939999999999884e+02 1.956494999999999891e+03
1.069999999999999979e-01 1.429159999999999875e-01 4.628919999999999391e+01 1.713645000000000209e+02 1.956875000000000000e+03
1.079999999999999988e-01 1.429459999999999897e-01 4.581865000000000521e+01 1.717674999999999841e+02 1.957164999999999964e+03
1.089999999999999997e-01 1.429664999999999964e-01 4.523635000000000161e+01 1.719189999999999827e+02 1.957369999999999891e+03
1.100000000000000006e-01 1.429785000000000084e-01 4.455150000000000432e+01 1.718374999999999773e+02 1.957494999999999891e+03
1.110000000000000014e-01 1.429825000000000124e-01 4.377540000000000475e+01 1.715500000000000114e+02 1.957545000000000073e+03
1.120000000000000023e-01 1.429789999999999950e-01 4.292090000000000316e+01 1.710825000000000102e+02 1.957525000000000091e+03
1.130000000000000032e-01 1.429694999999999994e-01 4.200209999999999866e+01 1.704664999999999964e+02 1.957440000000000055e+03
1.140000000000000041e-01 1.429544999999999844e-01 4.103369999999999607e+01 1.697334999999999923e+02 1.957309999999999945e+03
1.150000000000000050e-01 1.429354999999999931e-01 4.003064999999999429e+01 1.689139999999999873e+02 1.957130000000000109e+03
1.160000000000000059e-01 1.429124999999999979e-01 3.900755000000000194e+01 1.680389999999999873e+02 1.956924999999999955e+03
1.170000000000000068e-01 1.428875000000000006e-01 3.797814999999999941e+01 1.671355000000000075e+02 1.956684999999999945e+03
1.180000000000000077e-01 1.428599999999999870e-01 3.695485000000000042e+01 1.662280000000000086e+02 1.956434999999999945e+03
1.190000000000000085e-01 1.428329999999999878e-01 3.594854999999999734e+01 1.653365000000000009e+02 1.956175000000000182e+03
1.200000000000000094e-01 1.428049999999999875e-01 3.496815000000000140e+01 1.644774999999999920e+02 1.955914999999999964e+03
1.209999999999999964e-01 1.427775000000000016e-01 3.402060000000000173e+01 1.636610000000000014e+02 1.955654999999999973e+03
1.219999999999999973e-01 1.427509999999999890e-01 3.311039999999999850e+01 1.628944999999999936e+02 1.955405000000000200e+03
1.229999999999999982e-01 1.427255000000000051e-01 3.224014999999999986e+01 1.621775000000000091e+02 1.955164999999999964e+03
1.239999999999999991e-01 1.427009999999999945e-01 3.140990000000000038e+01 1.615090000000000146e+02 1.954929999999999836e+03
1.250000000000000000e-01 1.426779999999999993e-01 3.061800000000000210e+01 1.608795000000000073e+02 1.954710000000000036e+03
1.260000000000000009e-01 1.426560000000000050e-01 2.986079999999999757e+01 1.602794999999999845e+02 1.954500000000000000e+03
1.270000000000000018e-01 1.426344999999999974e-01 2.913325000000000031e+01 1.596949999999999932e+02 1.954289999999999964e+03
1.280000000000000027e-01 1.426135000000000042e-01 2.842905000000000015e+01 1.591100000000000136e+02 1.954089999999999918e+03
1.290000000000000036e-01 1.425919999999999965e-01 2.774105000000000132e+01 1.585084999999999980e+02 1.953884999999999991e+03
1.300000000000000044e-01 1.425704999999999889e-01 2.706165000000000020e+01 1.578735000000000070e+02 1.953679999999999836e+03
1.310000000000000053e-01 1.425470000000000070e-01 2.638344999999999985e+01 1.571879999999999882e+02 1.953454999999999927e+03
1.320000000000000062e-01 1.425230000000000108e-01 2.569910000000000139e+01 1.564370000000000118e+02 1.953224999999999909e+03
1.330000000000000071e-01 1.424964999999999982e-01 2.500195000000000078e+01 1.556075000000000159e+02 1.952970000000000027e+03
1.340000000000000080e-01 1.424670000000000103e-01 2.428674999999999784e+01 1.546910000000000025e+02 1.952700000000000045e+03
1.350000000000000089e-01 1.424349999999999783e-01 2.354919999999999902e+01 1.536790000000000020e+02 1.952394999999999982e+03
1.360000000000000098e-01 1.423999999999999988e-01 2.278665000000000163e+01 1.525699999999999932e+02 1.952070000000000164e+03
1.370000000000000107e-01 1.423619999999999886e-01 2.199810000000000088e+01 1.513644999999999925e+02 1.951715000000000146e+03
1.380000000000000115e-01 1.423210000000000031e-01 2.118430000000000035e+01 1.500674999999999955e+02 1.951329999999999927e+03
1.390000000000000124e-01 1.422769999999999868e-01 2.034785000000000110e+01 1.486885000000000048e+02 1.950914999999999964e+03
1.400000000000000133e-01 1.422299999999999953e-01 1.949279999999999902e+01 1.472400000000000091e+02 1.950480000000000018e+03
1.410000000000000142e-01 1.421815000000000162e-01 1.862474999999999881e+01 1.457379999999999995e+02 1.950019999999999982e+03
1.420000000000000151e-01 1.421304999999999930e-01 1.775070000000000192e+01 1.441995000000000005e+02 1.949545000000000073e+03
1.430000000000000160e-01 1.420784999999999965e-01 1.687845000000000084e+01 1.426454999999999984e+02 1.949059999999999945e+03
1.440000000000000169e-01 1.420254999999999990e-01 1.601655000000000229e+01 1.410970000000000084e+02 1.948565000000000055e+03
1.450000000000000178e-01 1.419730000000000159e-01 1.517385000000000161e+01 1.395755000000000052e+02 1.948070000000000164e+03
1.459999999999999909e-01 1.419209999999999916e-01 1.435899999999999999e+01 1.381005000000000109e+02 1.947585000000000036e+03
1.469999999999999918e-01 1.418705000000000105e-01 1.358050000000000068e+01 1.366920000000000073e+02 1.947105000000000018e+03
1.479999999999999927e-01 1.418214999999999892e-01 1.284574999999999889e+01 1.353659999999999854e+02 1.946650000000000091e+03
1.489999999999999936e-01 1.417749999999999844e-01 1.216136000000000017e+01 1.341365000000000123e+02 1.946210000000000036e+03
1.499999999999999944e-01 1.417319999999999969e-01 1.153271499999999961e+01 1.330149999999999864e+02 1.945804999999999836e+03
1.509999999999999953e-01 1.416919999999999846e-01 1.096359499999999976e+01 1.320079999999999814e+02 1.945424999999999955e+03
1.519999999999999962e-01 1.416554999999999898e-01 1.045645500000000006e+01 1.311194999999999879e+02 1.945079999999999927e+03
1.529999999999999971e-01 1.416235000000000133e-01 1.001219999999999999e+01 1.303505000000000109e+02 1.944769999999999982e+03
1.539999999999999980e-01 1.415939999999999976e-01 9.630359999999999587e+00 1.296980000000000075e+02 1.944494999999999891e+03
1.549999999999999989e-01 1.415690000000000004e-01 9.309000000000001052e+00 1.291554999999999893e+02 1.944255000000000109e+03
1.559999999999999998e-01 1.415480000000000071e-01 9.045065000000001021e+00 1.287164999999999964e+02 1.944049999999999955e+03
1.570000000000000007e-01 1.415295000000000025e-01 8.834509999999999863e+00 1.283700000000000045e+02 1.943875000000000000e+03
1.580000000000000016e-01 1.415150000000000019e-01 8.672534999999999883e+00 1.281050000000000182e+02 1.943730000000000018e+03
1.590000000000000024e-01 1.415029999999999899e-01 8.553720000000000212e+00 1.279110000000000014e+02 1.943615000000000009e+03
