# t [s], A [cm^2], U [cm/s], P [cPa], c [cm/s]
1.000000000000000021e-03 6.474484999999999824e-01 5.702999999999999736e-03 1.010854999999999961e+02 1.794860000000000127e+03
2.000000000000000042e-03 6.474439999999999085e-01 1.115025000000000217e-02 1.010600000000000023e+02 1.794855000000000018e+03
3.000000000000000062e-03 6.475180000000000380e-01 1.629896999999999874e-01 1.012443000000000097e+02 1.794890000000000100e+03
4.000000000000000083e-03 6.475385000000000169e-01 2.290814999999999935e-01 1.013200999999999965e+02 1.794910000000000082e+03
5.000000000000000104e-03 6.474664999999999448e-01 1.198409999999999753e-01 1.010759999999999934e+02 1.794865000000000009e+03
6.000000000000000125e-03 6.473915000000000086e-01 -7.718500000000017014e-03 1.006910000000000025e+02 1.794784999999999854e+03
7.000000000000000146e-03 6.472919999999999785e-01 -1.995700000000000252e-01 1.001416499999999985e+02 1.794674999999999955e+03
8.000000000000000167e-03 6.471120000000000205e-01 -5.710350000000000703e-01 9.924609999999999843e+01 1.794500000000000000e+03
9.000000000000001055e-03 6.468490000000000073e-01 -1.124025000000000052e+00 9.793684999999999263e+01 1.794235000000000127e+03
1.000000000000000194e-02 6.464794999999999847e-01 -1.888270000000000115e+00 9.611234999999999218e+01 1.793869999999999891e+03
1.099999999999999936e-02 6.459924999999999695e-01 -2.861340000000000217e+00 9.370310000000000628e+01 1.793364999999999782e+03
1.200000000000000025e-02 6.454489999999999394e-01 -3.885180000000000078e+00 9.087534999999999741e+01 1.792764999999999873e+03
1.300000000000000114e-02 6.449570000000000025e-01 -4.700198499999999946e+00 8.801449999999999818e+01 1.792140000000000100e+03
1.400000000000000203e-02 6.445920000000000538e-01 -5.105591999999999686e+00 8.550485000000000468e+01 1.791550000000000182e+03
1.499999999999999944e-02 6.443600000000000438e-01 -5.055524999999999380e+00 8.353459999999999752e+01 1.791050000000000182e+03
1.600000000000000033e-02 6.442065000000000152e-01 -4.648130000000000095e+00 8.204894999999999072e+01 1.790634999999999991e+03
1.700000000000000122e-02 6.440580000000000194e-01 -4.053255000000000052e+00 8.082189999999999941e+01 1.790269999999999982e+03
1.800000000000000211e-02 6.438534999999999675e-01 -3.428555000000000241e+00 7.958384999999999820e+01 1.789914999999999964e+03
1.900000000000000300e-02 6.435679999999999179e-01 -2.857489499999999794e+00 7.814349999999998886e+01 1.789525000000000091e+03
2.000000000000000042e-02 6.432199999999999029e-01 -2.332240000000000091e+00 7.645449999999999591e+01 1.789090000000000146e+03
2.100000000000000130e-02 6.428490000000000038e-01 -1.785809999999999897e+00 7.460030000000000427e+01 1.788625000000000000e+03
2.200000000000000219e-02 6.424924999999999109e-01 -1.150519999999999987e+00 7.271584999999998900e+01 1.788150000000000091e+03
2.299999999999999961e-02 6.421654999999999447e-01 -4.088150000000001505e-01 7.089690000000000225e+01 1.787674999999999955e+03
2.400000000000000050e-02 6.418504999999999905e-01 3.852999999999999758e-01 6.913984999999999559e+01 1.787220000000000027e+03
2.500000000000000139e-02 6.415075000000000083e-01 1.116209999999999702e+00 6.732994999999999663e+01 1.786750000000000000e+03
2.600000000000000228e-02 6.410854999999999748e-01 1.639369999999999994e+00 6.527369999999999095e+01 1.786235000000000127e+03
2.700000000000000316e-02 6.405425000000000146e-01 1.824384999999999923e+00 6.276245000000000118e+01 1.785630000000000109e+03
2.800000000000000058e-02 6.398574999999999680e-01 1.595534999999999481e+00 5.964509999999999934e+01 1.784909999999999854e+03
2.900000000000000147e-02 6.390424999999999578e-01 9.563399999999999679e-01 5.588765000000000072e+01 1.784059999999999945e+03
3.000000000000000236e-02 6.381390000000000118e-01 -1.079999999999969873e-02 5.159685000000000343e+01 1.783105000000000018e+03
3.099999999999999978e-02 6.372075000000000378e-01 -1.168834999999999624e+00 4.700010000000000332e+01 1.782065000000000055e+03
3.200000000000000067e-02 6.363125000000000586e-01 -2.361270000000000202e+00 4.239535000000000053e+01 1.781009999999999991e+03
3.300000000000000155e-02 6.355119999999999658e-01 -3.445910000000000029e+00 3.808995000000000175e+01 1.780000000000000000e+03
3.400000000000000244e-02 6.348464999999999803e-01 -4.315769999999999662e+00 3.434975000000000023e+01 1.779090000000000146e+03
3.500000000000000333e-02 6.343400000000000150e-01 -4.906550000000000189e+00 3.136714999999999876e+01 1.778335000000000036e+03
3.600000000000000422e-02 6.339989999999999792e-01 -5.192649999999999544e+00 2.925025000000000119e+01 1.777750000000000000e+03
3.700000000000000511e-02 6.338190000000000213e-01 -5.175550000000000317e+00 2.803075000000000117e+01 1.777365000000000009e+03
3.799999999999999906e-02 6.337899999999999645e-01 -4.870569999999999844e+00 2.768365000000000009e+01 1.777184999999999945e+03
3.899999999999999994e-02 6.339010000000000478e-01 -4.295225000000000293e+00 2.815115000000000123e+01 1.777184999999999945e+03
4.000000000000000083e-02 6.341390000000000082e-01 -3.462677499999999853e+00 2.936319999999999908e+01 1.777369999999999891e+03
4.100000000000000172e-02 6.344965000000000188e-01 -2.381289999999999907e+00 3.125019999999999953e+01 1.777719999999999800e+03
4.200000000000000261e-02 6.349629999999999441e-01 -1.058945000000000025e+00 3.374609999999999843e+01 1.778219999999999800e+03
4.300000000000000350e-02 6.355290000000000106e-01 4.906300000000003436e-01 3.678374999999999773e+01 1.778849999999999909e+03
4.400000000000000439e-02 6.361799999999999677e-01 2.242440000000000211e+00 4.028844999999999743e+01 1.779599999999999909e+03
4.499999999999999833e-02 6.368979999999999642e-01 4.158084999999999809e+00 4.417224999999999824e+01 1.780449999999999818e+03
4.599999999999999922e-02 6.376619999999999511e-01 6.186769999999999214e+00 4.833305000000000007e+01 1.781375000000000000e+03
4.700000000000000011e-02 6.384495000000000031e-01 8.270120499999999097e+00 5.265805000000000291e+01 1.782355000000000018e+03
4.800000000000000100e-02 6.392370000000000552e-01 1.034776500000000077e+01 5.703170000000000073e+01 1.783360000000000127e+03
4.900000000000000189e-02 6.400055000000000049e-01 1.236379499999999965e+01 6.134505000000000052e+01 1.784375000000000000e+03
5.000000000000000278e-02 6.407399999999999762e-01 1.427159499999999959e+01 6.550525000000000375e+01 1.785365000000000009e+03
5.100000000000000366e-02 6.414294999999999858e-01 1.603717499999999774e+01 6.944245000000000800e+01 1.786320000000000164e+03
5.200000000000000455e-02 6.420700000000000296e-01 1.764010000000000034e+01 7.311394999999998845e+01 1.787224999999999909e+03
5.300000000000000544e-02 6.426609999999999268e-01 1.907294999999999874e+01 7.650475000000000136e+01 1.788070000000000164e+03
5.399999999999999939e-02 6.432069999999999732e-01 2.033955000000000268e+01 7.962475000000000591e+01 1.788860000000000127e+03
5.500000000000000028e-02 6.437159999999999549e-01 2.145230000000000103e+01 8.250479999999998881e+01 1.789599999999999909e+03
5.600000000000000117e-02 6.441974999999999785e-01 2.242989999999999995e+01 8.519089999999999918e+01 1.790300000000000182e+03
5.700000000000000205e-02 6.446614999999999984e-01 2.329500000000000171e+01 8.773850000000000193e+01 1.790954999999999927e+03
5.800000000000000294e-02 6.451184999999999281e-01 2.407225000000000037e+01 9.020695000000000618e+01 1.791595000000000027e+03
5.900000000000000383e-02 6.455790000000000139e-01 2.478584999999999994e+01 9.265395000000000891e+01 1.792224999999999909e+03
6.000000000000000472e-02 6.460505000000000830e-01 2.545824999999999960e+01 9.513079999999999359e+01 1.792855000000000018e+03
6.099999999999999867e-02 6.465395000000000447e-01 2.610784999999999911e+01 9.767775000000000318e+01 1.793494999999999891e+03
6.199999999999999956e-02 6.470489999999999853e-01 2.674750000000000227e+01 1.003204999999999956e+02 1.794154999999999973e+03
6.300000000000000044e-02 6.475800000000000445e-01 2.738360000000000127e+01 1.030675499999999971e+02 1.794835000000000036e+03
6.400000000000000133e-02 6.481274999999999675e-01 2.801534999999999798e+01 1.059104999999999990e+02 1.795534999999999854e+03
6.500000000000000222e-02 6.486859999999999848e-01 2.863539999999999708e+01 1.088209999999999980e+02 1.796250000000000000e+03
6.600000000000000311e-02 6.492470000000000185e-01 2.923075000000000045e+01 1.117614999999999981e+02 1.796970000000000027e+03
6.700000000000000400e-02 6.497994999999999743e-01 2.978454999999999941e+01 1.146769999999999925e+02 1.797690000000000055e+03
6.800000000000000488e-02 6.503335000000000088e-01 3.027769999999999939e+01 1.175130000000000052e+02 1.798400000000000091e+03
6.900000000000000577e-02 6.508380000000000276e-01 3.069099999999999895e+01 1.202090000000000032e+02 1.799074999999999818e+03
7.000000000000000666e-02 6.513025000000000064e-01 3.100639999999999930e+01 1.227104999999999961e+02 1.799710000000000036e+03
7.100000000000000755e-02 6.517195000000000071e-01 3.120889999999999986e+01 1.249680000000000035e+02 1.800300000000000182e+03
7.200000000000000844e-02 6.520829999999999682e-01 3.128705000000000069e+01 1.269435000000000002e+02 1.800815000000000055e+03
7.300000000000000933e-02 6.523889999999999967e-01 3.123375000000000057e+01 1.286094999999999970e+02 1.801269999999999982e+03
7.399999999999999634e-02 6.526345000000000063e-01 3.104684999999999917e+01 1.299529999999999745e+02 1.801644999999999982e+03
7.499999999999999722e-02 6.528220000000000134e-01 3.072875000000000156e+01 1.309720000000000084e+02 1.801950000000000045e+03
7.599999999999999811e-02 6.529530000000000056e-01 3.028679999999999950e+01 1.316775000000000091e+02 1.802170000000000073e+03
7.699999999999999900e-02 6.530320000000000569e-01 2.973229999999999862e+01 1.320910000000000082e+02 1.802325000000000045e+03
7.799999999999999989e-02 6.530655000000000765e-01 2.908055000000000234e+01 1.322444999999999879e+02 1.802414999999999964e+03
7.900000000000000078e-02 6.530610000000000026e-01 2.834964999999999691e+01 1.321770000000000209e+02 1.802445000000000164e+03
8.000000000000000167e-02 6.530264999999999542e-01 2.755979999999999919e+01 1.319325000000000045e+02 1.802429999999999836e+03
8.100000000000000255e-02 6.529705000000000092e-01 2.673245000000000005e+01 1.315575000000000045e+02 1.802375000000000000e+03
8.200000000000000344e-02 6.529015000000000235e-01 2.588875000000000171e+01 1.310980000000000132e+02 1.802300000000000182e+03
8.300000000000000433e-02 6.528264999999999763e-01 2.504885000000000161e+01 1.305995000000000061e+02 1.802194999999999936e+03
8.400000000000000522e-02 6.527540000000000564e-01 2.423064999999999714e+01 1.301020000000000039e+02 1.802094999999999800e+03
8.500000000000000611e-02 6.526879999999999349e-01 2.344910000000000139e+01 1.296394999999999982e+02 1.801990000000000009e+03
8.600000000000000699e-02 6.526330000000000187e-01 2.271519999999999939e+01 1.292359999999999900e+02 1.801900000000000091e+03
8.700000000000000788e-02 6.525914999999999910e-01 2.203600000000000136e+01 1.289099999999999966e+02 1.801820000000000164e+03
8.800000000000000877e-02 6.525644999999999918e-01 2.141394999999999982e+01 1.286680000000000064e+02 1.801750000000000000e+03
8.899999999999999578e-02 6.525499999999999634e-01 2.084754999999999825e+01 1.285079999999999814e+02 1.801704999999999927e+03
8.999999999999999667e-02 6.525469999999999882e-01 2.033145000000000024e+01 1.284200000000000159e+02 1.801675000000000182e+03
9.099999999999999756e-02 6.525505000000000333e-01 1.985699999999999932e+01 1.283859999999999957e+02 1.801650000000000091e+03
9.199999999999999845e-02 6.525570000000000537e-01 1.941319999999999979e+01 1.283849999999999909e+02 1.801640000000000100e+03
9.299999999999999933e-02 6.525615000000000165e-01 1.898734999999999928e+01 1.283894999999999982e+02 1.801630000000000109e+03
9.400000000000000022e-02 6.525585000000000413e-01 1.856584999999999752e+01 1.283725000000000023e+02 1.801619999999999891e+03
9.500000000000000111e-02 6.525434999999999430e-01 1.813550000000000040e+01 1.283054999999999950e+02 1.801599999999999909e+03
9.600000000000000200e-02 6.525119999999999809e-01 1.768370000000000175e+01 1.281630000000000109e+02 1.801565000000000055e+03
9.700000000000000289e-02 6.524609999999999577e-01 1.719999999999999929e+01 1.279240000000000066e+02 1.801514999999999873e+03
9.800000000000000377e-02 6.523870000000000502e-01 1.667620000000000147e+01 1.275709999999999980e+02 1.801429999999999836e+03
9.900000000000000466e-02 6.522900000000000365e-01 1.610730000000000217e+01 1.270955000000000013e+02 1.801325000000000045e+03
1.000000000000000056e-01 6.521689999999999987e-01 1.549169999999999980e+01 1.264945000000000022e+02 1.801195000000000164e+03
1.010000000000000064e-01 6.520270000000000232e-01 1.483135000000000048e+01 1.257735000000000127e+02 1.801034999999999854e+03
1.020000000000000073e-01 6.518659999999999455e-01 1.413172999999999924e+01 1.249455000000000098e+02 1.800844999999999800e+03
1.030000000000000082e-01 6.516904999999999504e-01 1.340155500000000011e+01 1.240294999999999987e+02 1.800639999999999873e+03
1.040000000000000091e-01 6.515060000000000295e-01 1.265235500000000002e+01 1.230510000000000019e+02 1.800414999999999964e+03
1.050000000000000100e-01 6.513174999999999937e-01 1.189760499999999865e+01 1.220399999999999920e+02 1.800180000000000064e+03
1.059999999999999970e-01 6.511314999999999742e-01 1.115210500000000060e+01 1.210300000000000011e+02 1.799945000000000164e+03
1.069999999999999979e-01 6.509540000000000326e-01 1.043117499999999964e+01 1.200529999999999973e+02 1.799704999999999927e+03
1.079999999999999988e-01 6.507914999999999672e-01 9.749534999999999840e+00 1.191415000000000077e+02 1.799485000000000127e+03
1.089999999999999997e-01 6.506484999999999630e-01 9.120689999999999742e+00 1.183255000000000052e+02 1.799279999999999973e+03
1.100000000000000006e-01 6.505294999999999828e-01 8.556190000000000850e+00 1.176285000000000025e+02 1.799105000000000018e+03
1.110000000000000014e-01 6.504365000000000840e-01 8.064899999999999736e+00 1.170709999999999980e+02 1.798950000000000045e+03
1.120000000000000023e-01 6.503719999999999501e-01 7.652635000000000076e+00 1.166645000000000039e+02 1.798835000000000036e+03
1.130000000000000032e-01 6.503365000000000951e-01 7.322004999999999875e+00 1.164140000000000015e+02 1.798750000000000000e+03
1.140000000000000041e-01 6.503289999999999349e-01 7.072400000000000020e+00 1.163174999999999955e+02 1.798704999999999927e+03
1.150000000000000050e-01 6.503465000000000495e-01 6.900140000000000384e+00 1.163665000000000020e+02 1.798695000000000164e+03
1.160000000000000059e-01 6.503870000000000484e-01 6.798904999999999532e+00 1.165459999999999923e+02 1.798710000000000036e+03
1.170000000000000068e-01 6.504465000000000385e-01 6.760180000000000078e+00 1.168369999999999891e+02 1.798759999999999991e+03
1.180000000000000077e-01 6.505199999999999871e-01 6.773830000000000240e+00 1.172169999999999987e+02 1.798829999999999927e+03
1.190000000000000085e-01 6.506035000000000013e-01 6.828725000000000378e+00 1.176620000000000061e+02 1.798920000000000073e+03
1.200000000000000094e-01 6.506929999999999659e-01 6.913299999999999557e+00 1.181469999999999914e+02 1.799019999999999982e+03
1.209999999999999964e-01 6.507834999999999592e-01 7.016140000000000043e+00 1.186484999999999985e+02 1.799130000000000109e+03
1.219999999999999973e-01 6.508715000000000472e-01 7.126440000000000552e+00 1.191440000000000055e+02 1.799239999999999782e+03
1.229999999999999982e-01 6.509544999999999915e-01 7.234420000000000073e+00 1.196149999999999949e+02 1.799349999999999909e+03
1.239999999999999991e-01 6.510279999999999401e-01 7.331620000000000026e+00 1.200455000000000041e+02 1.799449999999999818e+03
1.250000000000000000e-01 6.510920000000000041e-01 7.411134999999999806e+00 1.204230000000000018e+02 1.799545000000000073e+03
1.260000000000000009e-01 6.511445000000000149e-01 7.467729999999999535e+00 1.207400000000000091e+02 1.799625000000000000e+03
1.270000000000000018e-01 6.511854999999999727e-01 7.497919999999999696e+00 1.209915000000000020e+02 1.799684999999999945e+03
1.280000000000000027e-01 6.512150000000000993e-01 7.499900000000000233e+00 1.211774999999999949e+02 1.799740000000000009e+03
1.290000000000000036e-01 6.512324999999999919e-01 7.473489999999999966e+00 1.213000000000000114e+02 1.799779999999999973e+03
1.300000000000000044e-01 6.512409999999999588e-01 7.419980000000000686e+00 1.213644999999999925e+02 1.799804999999999836e+03
1.310000000000000053e-01 6.512409999999999588e-01 7.341920000000000002e+00 1.213789999999999907e+02 1.799820000000000164e+03
1.320000000000000062e-01 6.512339999999999796e-01 7.242895000000000749e+00 1.213520000000000039e+02 1.799815000000000055e+03
1.330000000000000071e-01 6.512225000000000374e-01 7.127240000000000464e+00 1.212939999999999969e+02 1.799809999999999945e+03
1.340000000000000080e-01 6.512080000000000091e-01 6.999765000000000015e+00 1.212155000000000058e+02 1.799804999999999836e+03
1.350000000000000089e-01 6.511934999999999807e-01 6.865415000000000489e+00 1.211270000000000095e+02 1.799784999999999854e+03
1.360000000000000098e-01 6.511789999999999523e-01 6.729014999999999525e+00 1.210379999999999967e+02 1.799769999999999982e+03
1.370000000000000107e-01 6.511670000000000513e-01 6.594969999999999999e+00 1.209569999999999936e+02 1.799755000000000109e+03
1.380000000000000115e-01 6.511584999999999734e-01 6.467060000000000031e+00 1.208900000000000006e+02 1.799740000000000009e+03
1.390000000000000124e-01 6.511534999999999407e-01 6.348225000000000229e+00 1.208420000000000130e+02 1.799730000000000018e+03
1.400000000000000133e-01 6.511525000000000230e-01 6.240510000000000446e+00 1.208149999999999977e+02 1.799724999999999909e+03
1.410000000000000142e-01 6.511554999999999982e-01 6.144985000000000142e+00 1.208100000000000023e+02 1.799720000000000027e+03
1.420000000000000151e-01 6.511620000000000186e-01 6.061790000000000234e+00 1.208245000000000005e+02 1.799720000000000027e+03
1.430000000000000160e-01 6.511709999999999443e-01 5.990235000000000198e+00 1.208549999999999898e+02 1.799730000000000018e+03
1.440000000000000169e-01 6.511815000000000797e-01 5.928980000000000139e+00 1.208969999999999914e+02 1.799734999999999900e+03
1.450000000000000178e-01 6.511929999999999108e-01 5.876165000000000305e+00 1.209440000000000026e+02 1.799744999999999891e+03
1.459999999999999909e-01 6.512029999999999763e-01 5.829665000000000319e+00 1.209909999999999997e+02 1.799759999999999991e+03
1.469999999999999918e-01 6.512115000000000542e-01 5.787275000000000169e+00 1.210310000000000059e+02 1.799764999999999873e+03
1.479999999999999927e-01 6.512175000000000047e-01 5.746889999999999610e+00 1.210589999999999975e+02 1.799769999999999982e+03
1.489999999999999936e-01 6.512204999999999799e-01 5.706670000000000798e+00 1.210709999999999980e+02 1.799769999999999982e+03
1.499999999999999944e-01 6.512189999999999923e-01 5.665150000000000574e+00 1.210630000000000024e+02 1.799775000000000091e+03
1.509999999999999953e-01 6.512130000000000418e-01 5.621304999999999552e+00 1.210335000000000036e+02 1.799769999999999982e+03
1.519999999999999962e-01 6.512029999999999763e-01 5.574609999999999843e+00 1.209825000000000017e+02 1.799755000000000109e+03
1.529999999999999971e-01 6.511894999999999767e-01 5.525045000000000428e+00 1.209110000000000014e+02 1.799740000000000009e+03
1.539999999999999980e-01 6.511730000000000018e-01 5.473055000000000447e+00 1.208209999999999980e+02 1.799720000000000027e+03
1.549999999999999989e-01 6.511534999999999407e-01 5.419534999999999769e+00 1.207164999999999964e+02 1.799694999999999936e+03
1.559999999999999998e-01 6.511320000000000441e-01 5.365785000000000693e+00 1.206015000000000015e+02 1.799670000000000073e+03
1.570000000000000007e-01 6.511099999999999666e-01 5.313419999999999810e+00 1.204819999999999993e+02 1.799639999999999873e+03
1.580000000000000016e-01 6.510880000000000001e-01 5.264330000000000176e+00 1.203629999999999995e+02 1.799615000000000009e+03
1.590000000000000024e-01 6.510679999999999801e-01 5.220594999999999430e+00 1.202510000000000048e+02 1.799590000000000146e+03
