# t [s], A [cm^2], U [cm/s], P [cPa], c [cm/s]
1.000000000000000021e-03 7.446405000000000385e-01 8.022000000000001352e-03 1.084985000000000070e+02 1.833340000000000146e+03
2.000000000000000042e-03 7.446289999999999853e-01 1.729950000000000064e-03 1.084620000000000033e+02 1.833329999999999927e+03
3.000000000000000062e-03 7.447064999999999380e-01 1.372925000000000118e-01 1.086324999999999932e+02 1.833369999999999891e+03
4.000000000000000083e-03 7.447414999999999452e-01 2.237778500000000004e-01 1.087404999999999973e+02 1.833389999999999873e+03
5.000000000000000104e-03 7.446669999999999678e-01 1.321615000000000151e-01 1.085289999999999964e+02 1.833349999999999909e+03
6.000000000000000125e-03 7.445850000000000524e-01 1.786799999999999500e-02 1.081765000000000043e+02 1.833275000000000091e+03
7.000000000000000146e-03 7.444960000000000466e-01 -1.236150000000000304e-01 1.077205000000000013e+02 1.833180000000000064e+03
8.000000000000000167e-03 7.443269999999999609e-01 -4.255450000000000621e-01 1.069704999999999870e+02 1.833025000000000091e+03
9.000000000000001055e-03 7.440759999999999597e-01 -8.944850000000000856e-01 1.058605000000000018e+02 1.832799999999999955e+03
1.000000000000000194e-02 7.437190000000000190e-01 -1.558064999999999811e+00 1.042933000000000021e+02 1.832474999999999909e+03
1.099999999999999936e-02 7.432320000000000038e-01 -2.437295000000000211e+00 1.021656499999999994e+02 1.832025000000000091e+03
1.200000000000000025e-02 7.426710000000000811e-01 -3.403284999999999449e+00 9.959175000000000466e+01 1.831470000000000027e+03
1.300000000000000114e-02 7.421524999999999928e-01 -4.206011000000000166e+00 9.692345000000000255e+01 1.830875000000000000e+03
1.400000000000000203e-02 7.417644999999999378e-01 -4.635963499999999904e+00 9.453344999999998777e+01 1.830309999999999945e+03
1.499999999999999944e-02 7.415165000000000228e-01 -4.632559999999999789e+00 9.260855000000000814e+01 1.829820000000000164e+03
1.600000000000000033e-02 7.413494999999999946e-01 -4.279925000000000423e+00 9.109790000000000987e+01 1.829400000000000091e+03
1.700000000000000122e-02 7.411799999999999500e-01 -3.736115000000000297e+00 8.978565000000000396e+01 1.829025000000000091e+03
1.800000000000000211e-02 7.409395000000000842e-01 -3.149968499999999949e+00 8.841729999999999734e+01 1.828639999999999873e+03
1.900000000000000300e-02 7.406025000000000524e-01 -2.600681999999999938e+00 8.681829999999999359e+01 1.828215000000000146e+03
2.000000000000000042e-02 7.401904999999999735e-01 -2.079860000000000042e+00 8.495680000000000121e+01 1.827735000000000127e+03
2.100000000000000130e-02 7.397525000000000350e-01 -1.519405000000000117e+00 8.293010000000001014e+01 1.827224999999999909e+03
2.200000000000000219e-02 7.393345000000000056e-01 -8.460250000000000270e-01 8.089015000000000555e+01 1.826694999999999936e+03
2.299999999999999961e-02 7.389585000000000736e-01 -3.163500000000007972e-02 7.895410000000001105e+01 1.826190000000000055e+03
2.400000000000000050e-02 7.386125000000000052e-01 8.819200000000000372e-01 7.714154999999999518e+01 1.825704999999999927e+03
2.500000000000000139e-02 7.382539999999999658e-01 1.788009999999999877e+00 7.535759999999999081e+01 1.825224999999999909e+03
2.600000000000000228e-02 7.378259999999999819e-01 2.543560000000000265e+00 7.341915000000000191e+01 1.824714999999999918e+03
2.700000000000000316e-02 7.372775000000000301e-01 3.010104999999999364e+00 7.111430000000000007e+01 1.824139999999999873e+03
2.800000000000000058e-02 7.365794999999999426e-01 3.095790000000000042e+00 6.827530000000000143e+01 1.823465000000000146e+03
2.900000000000000147e-02 7.357389999999999208e-01 2.784480000000000288e+00 6.484264999999999191e+01 1.822660000000000082e+03
3.000000000000000236e-02 7.347974999999999923e-01 2.139719999999999622e+00 6.089430000000000121e+01 1.821755000000000109e+03
3.099999999999999978e-02 7.338209999999999456e-01 1.283439999999999692e+00 5.663025000000000375e+01 1.820769999999999982e+03
3.200000000000000067e-02 7.328779999999999184e-01 3.599999999999994316e-01 5.232285000000000252e+01 1.819759999999999991e+03
3.300000000000000155e-02 7.320294999999999996e-01 -4.980999999999999872e-01 4.825554999999999950e+01 1.818789999999999964e+03
3.400000000000000244e-02 7.313175000000000647e-01 -1.192490000000000272e+00 4.467234999999999445e+01 1.817909999999999854e+03
3.500000000000000333e-02 7.307639999999999691e-01 -1.666269999999999918e+00 4.174665000000000248e+01 1.817164999999999964e+03
3.600000000000000422e-02 7.303724999999999801e-01 -1.899599999999999733e+00 3.957274999999999920e+01 1.816574999999999818e+03
3.700000000000000511e-02 7.301360000000000072e-01 -1.897999999999999909e+00 3.817459999999999809e+01 1.816164999999999964e+03
3.799999999999999906e-02 7.300415000000000099e-01 -1.678144000000000080e+00 3.752630000000000621e+01 1.815924999999999955e+03
3.899999999999999994e-02 7.300780000000000047e-01 -1.255397000000000096e+00 3.757644999999999413e+01 1.815849999999999909e+03
4.000000000000000083e-02 7.302355000000000373e-01 -6.365000000000000657e-01 3.826959999999999695e+01 1.815934999999999945e+03
4.100000000000000172e-02 7.305099999999999927e-01 1.811949999999999950e-01 3.955835000000000434e+01 1.816170000000000073e+03
4.200000000000000261e-02 7.308974999999999778e-01 1.204745000000000177e+00 4.140524999999999523e+01 1.816545000000000073e+03
4.300000000000000350e-02 7.313950000000000173e-01 2.437809999999999810e+00 4.377585000000000548e+01 1.817045000000000073e+03
4.400000000000000439e-02 7.319919999999999760e-01 3.873345000000000482e+00 4.662869999999999493e+01 1.817670000000000073e+03
4.499999999999999833e-02 7.326764999999999528e-01 5.489499999999999602e+00 4.990709999999999980e+01 1.818394999999999982e+03
4.599999999999999922e-02 7.334279999999999688e-01 7.249299500000000229e+00 5.353464999999999918e+01 1.819220000000000027e+03
4.700000000000000011e-02 7.342239999999999878e-01 9.104264999999999830e+00 5.741764999999999475e+01 1.820105000000000018e+03
4.800000000000000100e-02 7.350410000000000554e-01 1.100006499999999932e+01 6.145130000000000337e+01 1.821050000000000182e+03
4.900000000000000189e-02 7.358554999999999957e-01 1.288312499999999972e+01 6.552994999999999948e+01 1.822009999999999991e+03
5.000000000000000278e-02 7.366494999999999571e-01 1.470596000000000103e+01 6.955684999999999718e+01 1.822980000000000018e+03
5.100000000000000366e-02 7.374095000000000510e-01 1.643169999999999931e+01 7.345300000000000296e+01 1.823929999999999836e+03
5.200000000000000455e-02 7.381275000000000475e-01 1.803535000000000110e+01 7.716284999999999172e+01 1.824845000000000027e+03
5.300000000000000544e-02 7.388014999999999999e-01 1.950424999999999898e+01 8.065614999999999668e+01 1.825724999999999909e+03
5.399999999999999939e-02 7.394330000000000069e-01 2.083614999999999995e+01 8.392660000000000764e+01 1.826554999999999836e+03
5.500000000000000028e-02 7.400279999999999081e-01 2.203699999999999903e+01 8.698834999999999695e+01 1.827335000000000036e+03
5.600000000000000117e-02 7.405935000000000157e-01 2.311860000000000070e+01 8.987109999999999843e+01 1.828079999999999927e+03
5.700000000000000205e-02 7.411395000000000621e-01 2.409640000000000271e+01 9.261459999999999582e+01 1.828789999999999964e+03
5.800000000000000294e-02 7.416739999999999444e-01 2.498750000000000071e+01 9.526335000000000264e+01 1.829474999999999909e+03
5.900000000000000383e-02 7.422059999999999214e-01 2.580865000000000009e+01 9.786169999999999902e+01 1.830150000000000091e+03
6.000000000000000472e-02 7.427414999999999434e-01 2.657524999999999693e+01 1.004496000000000038e+02 1.830809999999999945e+03
6.099999999999999867e-02 7.432859999999998912e-01 2.729939999999999856e+01 1.030570500000000038e+02 1.831480000000000018e+03
6.199999999999999956e-02 7.438420000000000032e-01 2.798879999999999768e+01 1.057034999999999911e+02 1.832150000000000091e+03
6.300000000000000044e-02 7.444079999999999586e-01 2.864625000000000199e+01 1.083930000000000007e+02 1.832829999999999927e+03
6.400000000000000133e-02 7.449805000000000454e-01 2.926924999999999955e+01 1.111170000000000044e+02 1.833514999999999873e+03
6.500000000000000222e-02 7.455529999999999102e-01 2.985079999999999956e+01 1.138524999999999920e+02 1.834204999999999927e+03
6.600000000000000311e-02 7.461185000000000178e-01 3.038040000000000163e+01 1.165660000000000025e+02 1.834894999999999982e+03
6.700000000000000400e-02 7.466680000000001094e-01 3.084539999999999793e+01 1.192169999999999987e+02 1.835565000000000055e+03
6.800000000000000488e-02 7.471909999999999386e-01 3.123264999999999958e+01 1.217620000000000005e+02 1.836219999999999800e+03
6.900000000000000577e-02 7.476804999999999701e-01 3.152960000000000207e+01 1.241570000000000107e+02 1.836839999999999918e+03
7.000000000000000666e-02 7.481284999999999741e-01 3.172574999999999790e+01 1.263635000000000019e+02 1.837410000000000082e+03
7.100000000000000755e-02 7.485300000000000287e-01 3.181309999999999860e+01 1.283480000000000132e+02 1.837940000000000055e+03
7.200000000000000844e-02 7.488795000000000313e-01 3.178649999999999665e+01 1.300860000000000127e+02 1.838410000000000082e+03
7.300000000000000933e-02 7.491760000000000641e-01 3.164420000000000144e+01 1.315614999999999952e+02 1.838815000000000055e+03
7.399999999999999634e-02 7.494174999999999587e-01 3.138745000000000118e+01 1.327685000000000173e+02 1.839154999999999973e+03
7.499999999999999722e-02 7.496065000000000644e-01 3.102090000000000103e+01 1.337085000000000150e+02 1.839434999999999945e+03
7.599999999999999811e-02 7.497445000000000359e-01 3.055209999999999582e+01 1.343930000000000007e+02 1.839644999999999982e+03
7.699999999999999900e-02 7.498365000000000169e-01 2.999155000000000371e+01 1.348389999999999986e+02 1.839799999999999955e+03
7.799999999999999989e-02 7.498875000000000401e-01 2.935229999999999961e+01 1.350715000000000146e+02 1.839900000000000091e+03
7.900000000000000078e-02 7.499040000000000150e-01 2.864929999999999666e+01 1.351214999999999975e+02 1.839954999999999927e+03
8.000000000000000167e-02 7.498925000000000729e-01 2.789914999999999878e+01 1.350210000000000150e+02 1.839960000000000036e+03
8.100000000000000255e-02 7.498605000000000409e-01 2.711909999999999599e+01 1.348060000000000116e+02 1.839940000000000055e+03
8.200000000000000344e-02 7.498154999999999681e-01 2.632620000000000005e+01 1.345115000000000123e+02 1.839889999999999873e+03
8.300000000000000433e-02 7.497629999999999573e-01 2.553659999999999997e+01 1.341730000000000018e+02 1.839825000000000045e+03
8.400000000000000522e-02 7.497095000000000287e-01 2.476425000000000054e+01 1.338189999999999884e+02 1.839750000000000000e+03
8.500000000000000611e-02 7.496590000000000753e-01 2.402070000000000149e+01 1.334755000000000109e+02 1.839675000000000182e+03
8.600000000000000699e-02 7.496150000000000313e-01 2.331414999999999793e+01 1.331604999999999848e+02 1.839605000000000018e+03
8.700000000000000788e-02 7.495784999999999254e-01 2.264914999999999878e+01 1.328859999999999957e+02 1.839534999999999854e+03
8.800000000000000877e-02 7.495490000000000208e-01 2.202684999999999960e+01 1.326539999999999964e+02 1.839474999999999909e+03
8.899999999999999578e-02 7.495264999999999844e-01 2.144485000000000241e+01 1.324635000000000105e+02 1.839420000000000073e+03
8.999999999999999667e-02 7.495069999999999233e-01 2.089804999999999779e+01 1.323029999999999973e+02 1.839375000000000000e+03
9.099999999999999756e-02 7.494879999999999320e-01 2.037879999999999825e+01 1.321569999999999823e+02 1.839335000000000036e+03
9.199999999999999845e-02 7.494644999999999779e-01 1.987780000000000058e+01 1.320084999999999980e+02 1.839295000000000073e+03
9.299999999999999933e-02 7.494324999999999459e-01 1.938470000000000226e+01 1.318344999999999914e+02 1.839244999999999891e+03
9.400000000000000022e-02 7.493879999999999431e-01 1.888879999999999981e+01 1.316134999999999877e+02 1.839190000000000055e+03
9.500000000000000111e-02 7.493265000000000065e-01 1.837989999999999924e+01 1.313255000000000052e+02 1.839115000000000009e+03
9.600000000000000200e-02 7.492445000000000910e-01 1.784890000000000043e+01 1.309505000000000052e+02 1.839025000000000091e+03
9.700000000000000289e-02 7.491404999999999870e-01 1.728819999999999979e+01 1.304729999999999848e+02 1.838920000000000073e+03
9.800000000000000377e-02 7.490114999999999412e-01 1.669259999999999877e+01 1.298845000000000027e+02 1.838780000000000200e+03
9.900000000000000466e-02 7.488584999999999825e-01 1.605959999999999965e+01 1.291790000000000020e+02 1.838615000000000009e+03
1.000000000000000056e-01 7.486814999999999998e-01 1.538945000000000007e+01 1.283584999999999923e+02 1.838424999999999955e+03
1.010000000000000064e-01 7.484834999999999683e-01 1.468580000000000041e+01 1.274314999999999998e+02 1.838204999999999927e+03
1.020000000000000073e-01 7.482685000000000031e-01 1.395487499999999947e+01 1.264130000000000109e+02 1.837970000000000027e+03
1.030000000000000082e-01 7.480400000000000382e-01 1.320575499999999991e+01 1.253229999999999933e+02 1.837710000000000036e+03
1.040000000000000091e-01 7.478050000000000530e-01 1.244956999999999958e+01 1.241850000000000023e+02 1.837440000000000055e+03
1.050000000000000100e-01 7.475689999999999280e-01 1.169890999999999970e+01 1.230284999999999940e+02 1.837159999999999854e+03
1.059999999999999970e-01 7.473380000000000578e-01 1.096725999999999956e+01 1.218834999999999980e+02 1.836880000000000109e+03
1.069999999999999979e-01 7.471174999999999899e-01 1.026797499999999985e+01 1.207789999999999964e+02 1.836605000000000018e+03
1.079999999999999988e-01 7.469139999999999668e-01 9.613680000000000447e+00 1.197445000000000022e+02 1.836349999999999909e+03
1.089999999999999997e-01 7.467325000000000212e-01 9.015634999999999621e+00 1.188034999999999997e+02 1.836105000000000018e+03
1.100000000000000006e-01 7.465755000000000585e-01 8.482940000000001035e+00 1.179784999999999968e+02 1.835889999999999873e+03
1.110000000000000014e-01 7.464465000000000128e-01 8.022414999999998741e+00 1.172835000000000036e+02 1.835704999999999927e+03
1.120000000000000023e-01 7.463459999999999539e-01 7.637879999999999114e+00 1.167280000000000086e+02 1.835549999999999955e+03
1.130000000000000032e-01 7.462739999999999929e-01 7.330529999999999546e+00 1.163155000000000001e+02 1.835424999999999955e+03
1.140000000000000041e-01 7.462299999999999489e-01 7.098710000000000520e+00 1.160415000000000134e+02 1.835335000000000036e+03
1.150000000000000050e-01 7.462109999999999577e-01 6.938274999999999082e+00 1.158984999999999985e+02 1.835279999999999973e+03
1.160000000000000059e-01 7.462139999999999329e-01 6.842954999999999899e+00 1.158719999999999999e+02 1.835255000000000109e+03
1.170000000000000068e-01 7.462349999999999817e-01 6.804864999999999498e+00 1.159455000000000098e+02 1.835250000000000000e+03
1.180000000000000077e-01 7.462705000000000588e-01 6.814975000000000449e+00 1.161005000000000109e+02 1.835269999999999982e+03
1.190000000000000085e-01 7.463159999999999794e-01 6.863674999999999748e+00 1.163160000000000025e+02 1.835304999999999836e+03
1.200000000000000094e-01 7.463675000000000725e-01 6.941264999999999574e+00 1.165725000000000051e+02 1.835349999999999909e+03
1.209999999999999964e-01 7.464220000000000299e-01 7.038370000000000459e+00 1.168509999999999991e+02 1.835404999999999973e+03
1.219999999999999973e-01 7.464760000000000284e-01 7.146295000000000286e+00 1.171345000000000027e+02 1.835464999999999918e+03
1.229999999999999982e-01 7.465269999999999406e-01 7.257305000000000561e+00 1.174089999999999918e+02 1.835530000000000200e+03
1.239999999999999991e-01 7.465724999999999723e-01 7.364794999999999980e+00 1.176624999999999943e+02 1.835585000000000036e+03
1.250000000000000000e-01 7.466120000000000534e-01 7.463395000000000223e+00 1.178875000000000028e+02 1.835639999999999873e+03
1.260000000000000009e-01 7.466440000000000854e-01 7.549049999999999372e+00 1.180780000000000030e+02 1.835690000000000055e+03
1.270000000000000018e-01 7.466684999999999572e-01 7.618985000000000340e+00 1.182319999999999993e+02 1.835730000000000018e+03
1.280000000000000027e-01 7.466869999999999896e-01 7.671680000000000277e+00 1.183490000000000038e+02 1.835755000000000109e+03
1.290000000000000036e-01 7.466979999999999729e-01 7.706789999999999807e+00 1.184320000000000022e+02 1.835780000000000200e+03
1.300000000000000044e-01 7.467040000000000344e-01 7.725025000000000475e+00 1.184844999999999970e+02 1.835800000000000182e+03
1.310000000000000053e-01 7.467059999999999809e-01 7.728020000000000778e+00 1.185124999999999886e+02 1.835809999999999945e+03
1.320000000000000062e-01 7.467049999999999521e-01 7.718120000000000758e+00 1.185235000000000127e+02 1.835815000000000055e+03
1.330000000000000071e-01 7.467030000000000056e-01 7.698219999999999175e+00 1.185234999999999985e+02 1.835819999999999936e+03
1.340000000000000080e-01 7.467014999999999070e-01 7.671510000000000495e+00 1.185215000000000032e+02 1.835825000000000045e+03
1.350000000000000089e-01 7.467019999999999769e-01 7.641255000000000130e+00 1.185235000000000127e+02 1.835825000000000045e+03
1.360000000000000098e-01 7.467049999999999521e-01 7.610549999999999926e+00 1.185360000000000014e+02 1.835829999999999927e+03
1.370000000000000107e-01 7.467125000000000012e-01 7.582134999999999181e+00 1.185645000000000095e+02 1.835840000000000146e+03
1.380000000000000115e-01 7.467245000000000132e-01 7.558194999999999553e+00 1.186129999999999995e+02 1.835855000000000018e+03
1.390000000000000124e-01 7.467414999999999470e-01 7.540255000000000152e+00 1.186835000000000093e+02 1.835869999999999891e+03
1.400000000000000133e-01 7.467630000000000656e-01 7.529109999999999303e+00 1.187754999999999939e+02 1.835889999999999873e+03
1.410000000000000142e-01 7.467885000000000773e-01 7.524820000000000064e+00 1.188880000000000052e+02 1.835920000000000073e+03
1.420000000000000151e-01 7.468179999999999819e-01 7.526790000000000092e+00 1.190190000000000055e+02 1.835950000000000045e+03
1.430000000000000160e-01 7.468489999999999851e-01 7.533850000000000158e+00 1.191634999999999991e+02 1.835985000000000127e+03
1.440000000000000169e-01 7.468820000000000459e-01 7.544470000000000454e+00 1.193164999999999907e+02 1.836019999999999982e+03
1.450000000000000178e-01 7.469144999999999257e-01 7.556865000000000165e+00 1.194720000000000084e+02 1.836054999999999836e+03
1.459999999999999909e-01 7.469459999999999988e-01 7.569250000000000256e+00 1.196260000000000048e+02 1.836095000000000027e+03
1.469999999999999918e-01 7.469760000000000844e-01 7.579975000000001017e+00 1.197719999999999914e+02 1.836130000000000109e+03
1.479999999999999927e-01 7.470035000000000425e-01 7.587695000000000078e+00 1.199069999999999965e+02 1.836164999999999964e+03
1.489999999999999936e-01 7.470274999999999554e-01 7.591445000000000221e+00 1.200279999999999916e+02 1.836195000000000164e+03
1.499999999999999944e-01 7.470480000000000453e-01 7.590735000000000454e+00 1.201324999999999932e+02 1.836220000000000027e+03
1.509999999999999953e-01 7.470654999999999379e-01 7.585535000000000139e+00 1.202214999999999918e+02 1.836244999999999891e+03
1.519999999999999962e-01 7.470794999999998964e-01 7.576254999999999740e+00 1.202944999999999993e+02 1.836269999999999982e+03
1.529999999999999971e-01 7.470915000000000195e-01 7.563710000000000377e+00 1.203550000000000040e+02 1.836284999999999854e+03
1.539999999999999980e-01 7.471015000000000850e-01 7.549050000000000260e+00 1.204055000000000035e+02 1.836295000000000073e+03
1.549999999999999989e-01 7.471114999999999284e-01 7.533669999999998979e+00 1.204505000000000052e+02 1.836309999999999945e+03
1.559999999999999998e-01 7.471209999999999241e-01 7.519185000000000230e+00 1.204939999999999998e+02 1.836319999999999936e+03
1.570000000000000007e-01 7.471309999999999896e-01 7.507324999999999804e+00 1.205405000000000086e+02 1.836335000000000036e+03
1.580000000000000016e-01 7.471434999999999604e-01 7.499914999999999665e+00 1.205960000000000036e+02 1.836345000000000027e+03
1.590000000000000024e-01 7.471590000000000176e-01 7.498825000000000074e+00 1.206645000000000039e+02 1.836365000000000009e+03
