# t [s], A [cm^2], U [cm/s], P [cPa], c [cm/s]
1.000000000000000021e-03 1.977860000000000174e-01 3.076778500000000305e-01 1.040534999999999997e+02 2.308010000000000218e+03
2.000000000000000042e-03 1.977234999999999965e-01 1.899475500000000094e+00 1.002229999999999990e+02 2.307465000000000146e+03
3.000000000000000062e-03 1.975709999999999966e-01 3.909429999999999517e+00 9.474930000000000518e+01 2.306175000000000182e+03
4.000000000000000083e-03 1.973714999999999775e-01 6.207966500000000387e+00 8.887944999999999141e+01 2.304515000000000327e+03
5.000000000000000104e-03 1.971664999999999945e-01 8.680534999999999002e+00 8.375815000000000055e+01 2.302829999999999927e+03
6.000000000000000125e-03 1.969734999999999958e-01 1.105306999999999995e+01 7.958060000000000400e+01 2.301269999999999982e+03
7.000000000000000146e-03 1.967955000000000121e-01 1.306642500000000062e+01 7.590330000000000155e+01 2.299864999999999782e+03
8.000000000000000167e-03 1.966370000000000062e-01 1.470159999999999911e+01 7.261339999999999861e+01 2.298625000000000000e+03
9.000000000000001055e-03 1.965029999999999832e-01 1.602424999999999855e+01 6.988530000000000086e+01 2.297599999999999909e+03
1.000000000000000194e-02 1.963949999999999863e-01 1.706589999999999918e+01 6.775390000000000157e+01 2.296784999999999854e+03
1.099999999999999936e-02 1.963114999999999999e-01 1.785324999999999918e+01 6.615840000000000032e+01 2.296159999999999854e+03
1.200000000000000025e-02 1.962479999999999780e-01 1.839329999999999998e+01 6.496054999999999779e+01 2.295690000000000055e+03
1.300000000000000114e-02 1.961964999999999959e-01 1.868645000000000067e+01 6.394559999999999889e+01 2.295324999999999818e+03
1.400000000000000203e-02 1.961550000000000238e-01 1.881669999999999732e+01 6.307920000000000016e+01 2.295034999999999854e+03
1.499999999999999944e-02 1.961304999999999854e-01 1.898714999999999975e+01 6.273470000000000368e+01 2.294869999999999891e+03
1.600000000000000033e-02 1.961384999999999934e-01 1.941944999999999766e+01 6.351300000000000523e+01 2.294940000000000055e+03
1.700000000000000122e-02 1.961895000000000167e-01 2.020524999999999949e+01 6.576975000000000193e+01 2.295319999999999709e+03
1.800000000000000211e-02 1.962794999999999956e-01 2.123629999999999995e+01 6.926349999999999341e+01 2.296010000000000218e+03
1.900000000000000300e-02 1.963920000000000110e-01 2.225594999999999857e+01 7.318360000000001264e+01 2.296880000000000109e+03
2.000000000000000042e-02 1.965010000000000090e-01 2.298505000000000109e+01 7.650360000000000582e+01 2.297739999999999782e+03
2.100000000000000130e-02 1.965820000000000067e-01 2.324484999999999957e+01 7.842610000000000525e+01 2.298394999999999982e+03
2.200000000000000219e-02 1.966209999999999902e-01 2.301944999999999908e+01 7.868455000000000155e+01 2.298734999999999673e+03
2.299999999999999961e-02 1.966200000000000170e-01 2.243805000000000049e+01 7.758064999999999145e+01 2.298760000000000218e+03
2.400000000000000050e-02 1.965905000000000014e-01 2.169859999999999900e+01 7.577524999999999977e+01 2.298554999999999836e+03
2.500000000000000139e-02 1.965494999999999881e-01 2.097475000000000023e+01 7.396174999999999500e+01 2.298244999999999891e+03
2.600000000000000228e-02 1.965105000000000046e-01 2.035074999999999790e+01 7.258205000000000950e+01 2.297939999999999600e+03
2.700000000000000316e-02 1.964799999999999880e-01 1.980570000000000164e+01 7.169870000000000232e+01 2.297699999999999818e+03
2.800000000000000058e-02 1.964544999999999764e-01 1.924479999999999791e+01 7.104664999999999964e+01 2.297494999999999891e+03
2.900000000000000147e-02 1.964270000000000183e-01 1.855760000000000076e+01 7.021229999999999905e+01 2.297279999999999745e+03
3.000000000000000236e-02 1.963865000000000194e-01 1.767839999999999989e+01 6.885644999999999527e+01 2.296980000000000018e+03
3.099999999999999978e-02 1.963305000000000189e-01 1.662635000000000218e+01 6.689220000000000255e+01 2.296555000000000291e+03
3.200000000000000067e-02 1.962615000000000054e-01 1.551159999999999961e+01 6.455429999999999779e+01 2.296029999999999745e+03
3.300000000000000155e-02 1.961904999999999899e-01 1.450324999999999953e+01 6.233465000000000344e+01 2.295474999999999909e+03
3.400000000000000244e-02 1.961330000000000018e-01 1.377465000000000117e+01 6.081239999999999668e+01 2.295020000000000437e+03
3.500000000000000333e-02 1.961025000000000129e-01 1.344614999999999938e+01 6.044979999999999620e+01 2.294765000000000327e+03
3.600000000000000422e-02 1.961090000000000055e-01 1.354749999999999943e+01 6.143359999999999843e+01 2.294784999999999854e+03
3.700000000000000511e-02 1.961519999999999930e-01 1.401099999999999923e+01 6.361419999999999675e+01 2.295090000000000146e+03
3.799999999999999906e-02 1.962240000000000095e-01 1.469229999999999947e+01 6.655134999999999934e+01 2.295625000000000000e+03
3.899999999999999994e-02 1.963104999999999989e-01 1.540854999999999997e+01 6.963620000000000232e+01 2.296284999999999854e+03
4.000000000000000083e-02 1.963940000000000130e-01 1.597995000000000054e+01 7.224254999999999427e+01 2.296934999999999945e+03
4.100000000000000172e-02 1.964585000000000081e-01 1.626439999999999841e+01 7.386105000000000587e+01 2.297444999999999709e+03
4.200000000000000261e-02 1.964914999999999856e-01 1.617654999999999887e+01 7.418545000000000300e+01 2.297720000000000255e+03
4.300000000000000350e-02 1.964865000000000084e-01 1.569194999999999851e+01 7.313810000000000855e+01 2.297699999999999818e+03
4.400000000000000439e-02 1.964420000000000055e-01 1.483705000000000140e+01 7.084024999999999750e+01 2.297375000000000000e+03
4.499999999999999833e-02 1.963624999999999954e-01 1.367194999999999894e+01 6.754585000000000150e+01 2.296784999999999854e+03
4.599999999999999922e-02 1.962550000000000128e-01 1.227154499999999970e+01 6.356445000000000789e+01 2.295960000000000036e+03
4.700000000000000011e-02 1.961279999999999968e-01 1.071078499999999956e+01 5.919510000000000360e+01 2.294980000000000018e+03
4.800000000000000100e-02 1.959885000000000099e-01 9.056844999999999146e+00 5.468659999999999854e+01 2.293899999999999636e+03
4.900000000000000189e-02 1.958435000000000037e-01 7.367329999999999934e+00 5.022594999999999743e+01 2.292779999999999745e+03
5.000000000000000278e-02 1.957000000000000128e-01 5.693730000000000402e+00 4.594969999999999999e+01 2.291659999999999854e+03
5.100000000000000366e-02 1.955600000000000116e-01 4.086037499999999767e+00 4.196630000000000393e+01 2.290574999999999818e+03
5.200000000000000455e-02 1.954299999999999926e-01 2.596917499999999990e+00 3.837980000000000302e+01 2.289555000000000291e+03
5.300000000000000544e-02 1.953130000000000144e-01 1.283185000000000242e+00 3.530514999999999759e+01 2.288635000000000218e+03
5.399999999999999939e-02 1.952134999999999843e-01 2.041899999999998716e-01 3.287140000000000128e+01 2.287849999999999909e+03
5.500000000000000028e-02 1.951364999999999905e-01 -5.824149999999999050e-01 3.121389999999999887e+01 2.287234999999999673e+03
5.600000000000000117e-02 1.950850000000000084e-01 -1.026406799999999953e+00 3.045790000000000219e+01 2.286814999999999600e+03
5.700000000000000205e-02 1.950645000000000018e-01 -1.090789500000000078e+00 3.069955000000000211e+01 2.286630000000000109e+03
5.800000000000000294e-02 1.950770000000000004e-01 -7.562652500000000000e-01 3.198969999999999914e+01 2.286699999999999818e+03
5.900000000000000383e-02 1.951229999999999909e-01 -2.360500000000009813e-02 3.432365000000000066e+01 2.287029999999999745e+03
6.000000000000000472e-02 1.952030000000000154e-01 1.086305000000000076e+00 3.763924999999999699e+01 2.287619999999999891e+03
6.099999999999999867e-02 1.953139999999999876e-01 2.534500500000000045e+00 4.182220000000000226e+01 2.288454999999999927e+03
6.199999999999999956e-02 1.954520000000000146e-01 4.267413000000000345e+00 4.671694999999999709e+01 2.289510000000000218e+03
6.300000000000000044e-02 1.956129999999999813e-01 6.221260000000000012e+00 5.214095000000000368e+01 2.290739999999999782e+03
6.400000000000000133e-02 1.957904999999999784e-01 8.326670000000000016e+00 5.789959999999999951e+01 2.292105000000000018e+03
6.500000000000000222e-02 1.959784999999999999e-01 1.051351999999999975e+01 6.380154999999999887e+01 2.293559999999999945e+03
6.600000000000000311e-02 1.961714999999999987e-01 1.271522500000000022e+01 6.967125000000000057e+01 2.295065000000000055e+03
6.700000000000000400e-02 1.963639999999999830e-01 1.487295000000000122e+01 7.536105000000000587e+01 2.296569999999999709e+03
6.800000000000000488e-02 1.965514999999999901e-01 1.693890000000000029e+01 8.075979999999999848e+01 2.298045000000000073e+03
6.900000000000000577e-02 1.967309999999999892e-01 1.887870000000000203e+01 8.579810000000000514e+01 2.299454999999999927e+03
7.000000000000000666e-02 1.969004999999999783e-01 2.067235000000000156e+01 9.045024999999999693e+01 2.300795000000000073e+03
7.100000000000000755e-02 1.970585000000000253e-01 2.231374999999999886e+01 9.473089999999999122e+01 2.302050000000000182e+03
7.200000000000000844e-02 1.972059999999999924e-01 2.380924999999999869e+01 9.868789999999999907e+01 2.303230000000000018e+03
7.300000000000000933e-02 1.973449999999999926e-01 2.517464999999999975e+01 1.023933999999999997e+02 2.304335000000000036e+03
7.399999999999999634e-02 1.974770000000000136e-01 2.643155000000000143e+01 1.059304999999999950e+02 2.305389999999999873e+03
7.499999999999999722e-02 1.976040000000000019e-01 2.760439999999999827e+01 1.093814999999999884e+02 2.306404999999999745e+03
7.599999999999999811e-02 1.977289999999999881e-01 2.871659999999999968e+01 1.128209999999999980e+02 2.307400000000000091e+03
7.699999999999999900e-02 1.978530000000000011e-01 2.978810000000000002e+01 1.163029999999999973e+02 2.308389999999999873e+03
7.799999999999999989e-02 1.979790000000000161e-01 3.083375000000000199e+01 1.198594999999999970e+02 2.309394999999999982e+03
7.900000000000000078e-02 1.981064999999999909e-01 3.186209999999999809e+01 1.235010000000000048e+02 2.310409999999999854e+03
8.000000000000000167e-02 1.982360000000000233e-01 3.287500000000000000e+01 1.272144999999999868e+02 2.311440000000000055e+03
8.100000000000000255e-02 1.983675000000000022e-01 3.386834999999999951e+01 1.309664999999999964e+02 2.312480000000000018e+03
8.200000000000000344e-02 1.984985000000000221e-01 3.483254999999999768e+01 1.347099999999999795e+02 2.313529999999999745e+03
8.300000000000000433e-02 1.986284999999999856e-01 3.575384999999999991e+01 1.383879999999999768e+02 2.314569999999999709e+03
8.400000000000000522e-02 1.987559999999999882e-01 3.661525000000000318e+01 1.419364999999999952e+02 2.315585000000000036e+03
8.500000000000000611e-02 1.988785000000000136e-01 3.739804999999999779e+01 1.452909999999999968e+02 2.316560000000000400e+03
8.600000000000000699e-02 1.989930000000000032e-01 3.808299999999999841e+01 1.483880000000000052e+02 2.317480000000000018e+03
8.700000000000000788e-02 1.990994999999999848e-01 3.865185000000000315e+01 1.511715000000000089e+02 2.318335000000000036e+03
8.800000000000000877e-02 1.991944999999999966e-01 3.908809999999999718e+01 1.535924999999999727e+02 2.319099999999999909e+03
8.899999999999999578e-02 1.992780000000000107e-01 3.937860000000000582e+01 1.556139999999999759e+02 2.319774999999999636e+03
8.999999999999999667e-02 1.993475000000000108e-01 3.951425000000000409e+01 1.572119999999999891e+02 2.320340000000000146e+03
9.099999999999999756e-02 1.994029999999999969e-01 3.949094999999999800e+01 1.583760000000000048e+02 2.320795000000000073e+03
9.199999999999999845e-02 1.994444999999999968e-01 3.930995000000000061e+01 1.591129999999999995e+02 2.321140000000000327e+03
9.299999999999999933e-02 1.994715000000000238e-01 3.897794999999999987e+01 1.594429999999999836e+02 2.321375000000000000e+03
9.400000000000000022e-02 1.994854999999999823e-01 3.850690000000000168e+01 1.594019999999999868e+02 2.321494999999999891e+03
9.500000000000000111e-02 1.994874999999999843e-01 3.791320000000000334e+01 1.590360000000000014e+02 2.321519999999999982e+03
9.600000000000000200e-02 1.994789999999999897e-01 3.721679999999999922e+01 1.584010000000000105e+02 2.321465000000000146e+03
9.700000000000000289e-02 1.994615000000000138e-01 3.644020000000000437e+01 1.575570000000000164e+02 2.321340000000000146e+03
9.800000000000000377e-02 1.994370000000000032e-01 3.560679999999999978e+01 1.565664999999999907e+02 2.321150000000000091e+03
9.900000000000000466e-02 1.994080000000000019e-01 3.474014999999999986e+01 1.554900000000000091e+02 2.320920000000000073e+03
1.000000000000000056e-01 1.993754999999999833e-01 3.386260000000000048e+01 1.543834999999999980e+02 2.320670000000000073e+03
1.010000000000000064e-01 1.993415000000000048e-01 3.299425000000000097e+01 1.532950000000000159e+02 2.320399999999999636e+03
1.020000000000000073e-01 1.993079999999999852e-01 3.215209999999999724e+01 1.522649999999999864e+02 2.320130000000000109e+03
1.030000000000000082e-01 1.992760000000000087e-01 3.134944999999999737e+01 1.513209999999999980e+02 2.319875000000000000e+03
1.040000000000000091e-01 1.992459999999999787e-01 3.059550000000000125e+01 1.504809999999999945e+02 2.319635000000000218e+03
1.050000000000000100e-01 1.992185000000000206e-01 2.989489999999999981e+01 1.497509999999999764e+02 2.319414999999999964e+03
1.059999999999999970e-01 1.991950000000000109e-01 2.924779999999999802e+01 1.491250000000000000e+02 2.319220000000000255e+03
1.069999999999999979e-01 1.991735000000000033e-01 2.864995000000000047e+01 1.485860000000000127e+02 2.319045000000000073e+03
1.079999999999999988e-01 1.991545000000000121e-01 2.809340000000000259e+01 1.481080000000000041e+02 2.318889999999999873e+03
1.089999999999999997e-01 1.991370000000000084e-01 2.756669999999999732e+01 1.476564999999999941e+02 2.318744999999999891e+03
1.100000000000000006e-01 1.991200000000000192e-01 2.705620000000000047e+01 1.471924999999999955e+02 2.318609999999999673e+03
1.110000000000000014e-01 1.991020000000000012e-01 2.654694999999999894e+01 1.466745000000000232e+02 2.318460000000000036e+03
1.120000000000000023e-01 1.990820000000000090e-01 2.602355000000000018e+01 1.460614999999999952e+02 2.318300000000000182e+03
1.130000000000000032e-01 1.990584999999999993e-01 2.547169999999999845e+01 1.453164999999999907e+02 2.318110000000000127e+03
1.140000000000000041e-01 1.990304999999999991e-01 2.487894999999999968e+01 1.444080000000000155e+02 2.317890000000000327e+03
1.150000000000000050e-01 1.989964999999999928e-01 2.423579999999999757e+01 1.433145000000000095e+02 2.317625000000000000e+03
1.160000000000000059e-01 1.989575000000000093e-01 2.353614999999999924e+01 1.420244999999999891e+02 2.317315000000000055e+03
1.170000000000000068e-01 1.989120000000000055e-01 2.277819999999999823e+01 1.405384999999999991e+02 2.316954999999999927e+03
1.180000000000000077e-01 1.988599999999999812e-01 2.196439999999999770e+01 1.388689999999999998e+02 2.316545000000000073e+03
1.190000000000000085e-01 1.988020000000000065e-01 2.110139999999999816e+01 1.370400000000000205e+02 2.316095000000000255e+03
1.200000000000000094e-01 1.987395000000000134e-01 2.019969999999999999e+01 1.350849999999999795e+02 2.315599999999999909e+03
1.209999999999999964e-01 1.986735000000000029e-01 1.927319999999999922e+01 1.330469999999999970e+02 2.315070000000000164e+03
1.219999999999999973e-01 1.986050000000000038e-01 1.833800000000000097e+01 1.309730000000000132e+02 2.314529999999999745e+03
1.229999999999999982e-01 1.985350000000000170e-01 1.741179999999999950e+01 1.289145000000000039e+02 2.313980000000000018e+03
1.239999999999999991e-01 1.984659999999999758e-01 1.651250000000000284e+01 1.269210000000000065e+02 2.313430000000000291e+03
1.250000000000000000e-01 1.983995000000000064e-01 1.565735000000000099e+01 1.250395000000000039e+02 2.312904999999999745e+03
1.260000000000000009e-01 1.983369999999999855e-01 1.486204999999999998e+01 1.233114999999999952e+02 2.312400000000000091e+03
1.270000000000000018e-01 1.982789999999999830e-01 1.413980000000000103e+01 1.217700000000000102e+02 2.311934999999999945e+03
1.280000000000000027e-01 1.982269999999999865e-01 1.350065000000000026e+01 1.204389999999999930e+02 2.311519999999999982e+03
1.290000000000000036e-01 1.981819999999999971e-01 1.295149999999999935e+01 1.193340000000000032e+02 2.311154999999999745e+03
1.300000000000000044e-01 1.981445000000000012e-01 1.249544999999999995e+01 1.184579999999999984e+02 2.310855000000000018e+03
1.310000000000000053e-01 1.981134999999999979e-01 1.213240000000000052e+01 1.178069999999999879e+02 2.310599999999999909e+03
1.320000000000000062e-01 1.980909999999999893e-01 1.185899999999999999e+01 1.173695000000000022e+02 2.310409999999999854e+03
1.330000000000000071e-01 1.980740000000000001e-01 1.166915000000000013e+01 1.171254999999999882e+02 2.310275000000000091e+03
1.340000000000000080e-01 1.980640000000000178e-01 1.155464999999999876e+01 1.170504999999999995e+02 2.310184999999999945e+03
1.350000000000000089e-01 1.980594999999999994e-01 1.150559999999999938e+01 1.171185000000000116e+02 2.310139999999999873e+03
1.360000000000000098e-01 1.980594999999999994e-01 1.151089999999999947e+01 1.173004999999999995e+02 2.310139999999999873e+03
1.370000000000000107e-01 1.980635000000000034e-01 1.155904999999999916e+01 1.175664999999999907e+02 2.310159999999999854e+03
1.380000000000000115e-01 1.980704999999999827e-01 1.163840000000000074e+01 1.178889999999999958e+02 2.310215000000000146e+03
1.390000000000000124e-01 1.980794999999999917e-01 1.173765000000000036e+01 1.182409999999999997e+02 2.310280000000000200e+03
1.400000000000000133e-01 1.980895000000000017e-01 1.184649999999999892e+01 1.185990000000000038e+02 2.310355000000000018e+03
1.410000000000000142e-01 1.980989999999999973e-01 1.195560000000000045e+01 1.189435000000000002e+02 2.310434999999999945e+03
1.420000000000000151e-01 1.981094999999999939e-01 1.205699999999999861e+01 1.192570000000000050e+02 2.310510000000000218e+03
1.430000000000000160e-01 1.981185000000000029e-01 1.214450000000000074e+01 1.195279999999999916e+02 2.310585000000000036e+03
1.440000000000000169e-01 1.981269999999999976e-01 1.221349999999999980e+01 1.197480000000000047e+02 2.310650000000000091e+03
1.450000000000000178e-01 1.981335000000000179e-01 1.226129999999999853e+01 1.199145000000000039e+02 2.310699999999999818e+03
1.459999999999999909e-01 1.981384999999999952e-01 1.228689999999999927e+01 1.200279999999999916e+02 2.310744999999999891e+03
1.469999999999999918e-01 1.981424999999999992e-01 1.229100000000000037e+01 1.200925000000000011e+02 2.310775000000000091e+03
1.479999999999999927e-01 1.981439999999999868e-01 1.227570000000000050e+01 1.201159999999999997e+02 2.310795000000000073e+03
1.489999999999999936e-01 1.981455000000000022e-01 1.224429999999999907e+01 1.201094999999999970e+02 2.310805000000000291e+03
1.499999999999999944e-01 1.981455000000000022e-01 1.220100000000000051e+01 1.200854999999999961e+02 2.310809999999999945e+03
1.509999999999999953e-01 1.981455000000000022e-01 1.215029999999999966e+01 1.200554999999999950e+02 2.310809999999999945e+03
1.519999999999999962e-01 1.981450000000000156e-01 1.209700000000000131e+01 1.200319999999999965e+02 2.310809999999999945e+03
1.529999999999999971e-01 1.981450000000000156e-01 1.204540000000000077e+01 1.200269999999999868e+02 2.310809999999999945e+03
1.539999999999999980e-01 1.981459999999999888e-01 1.199920000000000009e+01 1.200474999999999994e+02 2.310809999999999945e+03
1.549999999999999989e-01 1.981470000000000176e-01 1.196134999999999948e+01 1.200999999999999943e+02 2.310819999999999709e+03
1.559999999999999998e-01 1.981489999999999918e-01 1.193360000000000021e+01 1.201870000000000118e+02 2.310840000000000146e+03
1.570000000000000007e-01 1.981529999999999958e-01 1.191675000000000040e+01 1.203079999999999927e+02 2.310869999999999891e+03
1.580000000000000016e-01 1.981574999999999864e-01 1.191055000000000064e+01 1.204594999999999914e+02 2.310899999999999636e+03
1.590000000000000024e-01 1.981620000000000048e-01 1.191380000000000017e+01 1.206364999999999981e+02 2.310945000000000164e+03
