# t [s], A [cm^2], U [cm/s], P [cPa], c [cm/s]
1.000000000000000021e-03 7.764055000000000817e-01 4.216699999999996840e-03 1.005979999999999990e+02 1.577200000000000045e+03
2.000000000000000042e-03 7.763945000000000984e-01 -5.568950000000001763e-04 1.005745000000000005e+02 1.577190000000000055e+03
3.000000000000000062e-03 7.764575000000000227e-01 8.695549999999999113e-02 1.006659499999999952e+02 1.577210000000000036e+03
4.000000000000000083e-03 7.765185000000000004e-01 1.783999500000000016e-01 1.007810000000000059e+02 1.577240000000000009e+03
5.000000000000000104e-03 7.764969999999999928e-01 1.632667999999999897e-01 1.007468499999999949e+02 1.577235000000000127e+03
6.000000000000000125e-03 7.764254999999999907e-01 7.653399999999999093e-02 1.005635000000000048e+02 1.577199999999999818e+03
7.000000000000000146e-03 7.763594999999999802e-01 -9.326999999999974200e-03 1.003170000000000073e+02 1.577144999999999982e+03
8.000000000000000167e-03 7.762634999999999952e-01 -1.464759999999999951e-01 9.996195000000000164e+01 1.577074999999999818e+03
9.000000000000001055e-03 7.760985000000000245e-01 -3.949949999999999850e-01 9.940980000000000416e+01 1.576964999999999918e+03
1.000000000000000194e-02 7.758564999999999490e-01 -7.639900000000000579e-01 9.861440000000000339e+01 1.576800000000000182e+03
1.099999999999999936e-02 7.755214999999999748e-01 -1.266675000000000217e+00 9.752254999999999541e+01 1.576565000000000055e+03
1.200000000000000025e-02 7.750774999999999748e-01 -1.909560000000000368e+00 9.608609999999998763e+01 1.576259999999999991e+03
1.300000000000000114e-02 7.745469999999999855e-01 -2.640290000000000248e+00 9.432965000000000089e+01 1.575875000000000000e+03
1.400000000000000203e-02 7.739935000000000009e-01 -3.341850000000000431e+00 9.238009999999999877e+01 1.575434999999999945e+03
1.499999999999999944e-02 7.734860000000000069e-01 -3.882195999999999980e+00 9.041840000000000543e+01 1.574974999999999909e+03
1.600000000000000033e-02 7.730684999999999363e-01 -4.170354999999999812e+00 8.860450000000000159e+01 1.574529999999999973e+03
1.700000000000000122e-02 7.727435000000000276e-01 -4.182223500000000094e+00 8.702309999999999945e+01 1.574115000000000009e+03
1.800000000000000211e-02 7.724830000000000307e-01 -3.953949500000000228e+00 8.567170000000000130e+01 1.573744999999999891e+03
1.900000000000000300e-02 7.722424999999999429e-01 -3.556982999999999784e+00 8.448069999999999879e+01 1.573400000000000091e+03
2.000000000000000042e-02 7.719799999999999995e-01 -3.068667999999999729e+00 8.334950000000000614e+01 1.573065000000000055e+03
2.100000000000000130e-02 7.716689999999999383e-01 -2.547548999999999619e+00 8.218534999999999968e+01 1.572724999999999909e+03
2.200000000000000219e-02 7.713039999999999896e-01 -2.019944999999999879e+00 8.093229999999999791e+01 1.572375000000000000e+03
2.299999999999999961e-02 7.708994999999999598e-01 -1.480935000000000112e+00 7.958205000000000950e+01 1.571994999999999891e+03
2.400000000000000050e-02 7.704759999999999387e-01 -9.080499999999998018e-01 7.816440000000000055e+01 1.571605000000000018e+03
2.500000000000000139e-02 7.700550000000000450e-01 -2.805199999999996585e-01 7.672384999999999877e+01 1.571210000000000036e+03
2.600000000000000228e-02 7.696439999999999948e-01 4.042699999999999072e-01 7.529425000000000523e+01 1.570809999999999945e+03
2.700000000000000316e-02 7.692380000000000884e-01 1.122595000000000010e+00 7.387959999999999638e+01 1.570414999999999964e+03
2.800000000000000058e-02 7.688165000000000138e-01 1.825705000000000133e+00 7.244769999999999754e+01 1.570014999999999873e+03
2.900000000000000147e-02 7.683504999999999363e-01 2.448934999999999640e+00 7.093555000000000632e+01 1.569599999999999909e+03
3.000000000000000236e-02 7.678135000000000376e-01 2.925340000000000273e+00 6.926474999999999227e+01 1.569150000000000091e+03
3.099999999999999978e-02 7.671829999999999483e-01 3.200410000000000199e+00 6.736164999999999736e+01 1.568659999999999854e+03
3.200000000000000067e-02 7.664524999999999810e-01 3.244334999999999969e+00 6.517855000000000132e+01 1.568105000000000018e+03
3.300000000000000155e-02 7.656304999999999916e-01 3.058640000000000025e+00 6.270924999999999727e+01 1.567490000000000009e+03
3.400000000000000244e-02 7.647429999999999506e-01 2.675835000000000630e+00 5.999495000000000289e+01 1.566829999999999927e+03
3.500000000000000333e-02 7.638255000000000461e-01 2.152304999999999691e+00 5.712055000000000149e+01 1.566125000000000000e+03
3.600000000000000422e-02 7.629194999999999727e-01 1.557129999999999903e+00 5.420149999999999579e+01 1.565405000000000200e+03
3.700000000000000511e-02 7.620655000000000623e-01 9.605349999999992505e-01 5.136690000000000111e+01 1.564695000000000164e+03
3.799999999999999906e-02 7.612974999999999604e-01 4.243899999999998229e-01 4.874215000000000231e+01 1.564029999999999973e+03
3.899999999999999994e-02 7.606414999999999704e-01 -3.244999999999720330e-03 4.643580000000000041e+01 1.563420000000000073e+03
4.000000000000000083e-02 7.601139999999999564e-01 -2.899899999999999700e-01 4.453109999999999502e+01 1.562900000000000091e+03
4.100000000000000172e-02 7.597234999999999960e-01 -4.176000000000001933e-01 4.308290000000000219e+01 1.562485000000000127e+03
4.200000000000000261e-02 7.594724999999999948e-01 -3.784950000000000259e-01 4.211969999999999459e+01 1.562179999999999836e+03
4.300000000000000350e-02 7.593575000000000186e-01 -1.715550000000000130e-01 4.164825000000000443e+01 1.561990000000000009e+03
4.400000000000000439e-02 7.593754999999999811e-01 2.016830000000000012e-01 4.166015000000000157e+01 1.561925000000000182e+03
4.499999999999999833e-02 7.595205000000000428e-01 7.395194999999998853e-01 4.213770000000000238e+01 1.561970000000000027e+03
4.599999999999999922e-02 7.597890000000000477e-01 1.441035000000000066e+00 4.305865000000000009e+01 1.562125000000000000e+03
4.700000000000000011e-02 7.601740000000000164e-01 2.305414999999999992e+00 4.439839999999999520e+01 1.562394999999999982e+03
4.800000000000000100e-02 7.606709999999999861e-01 3.330290000000000195e+00 4.613040000000000163e+01 1.562760000000000218e+03
4.900000000000000189e-02 7.612704999999999611e-01 4.509710000000000107e+00 4.822520000000000095e+01 1.563220000000000027e+03
5.000000000000000278e-02 7.619644999999999335e-01 5.832625000000000171e+00 5.064844999999999686e+01 1.563769999999999982e+03
5.100000000000000366e-02 7.627390000000000558e-01 7.281792500000000778e+00 5.335990000000000322e+01 1.564394999999999982e+03
5.200000000000000455e-02 7.635804999999999954e-01 8.834424000000000277e+00 5.631300000000000239e+01 1.565090000000000146e+03
5.300000000000000544e-02 7.644720000000000404e-01 1.046298499999999976e+01 5.945579999999999643e+01 1.565840000000000146e+03
5.399999999999999939e-02 7.653959999999999653e-01 1.213730499999999957e+01 6.273284999999999911e+01 1.566634999999999991e+03
5.500000000000000028e-02 7.663375000000000048e-01 1.382662000000000191e+01 6.608799999999999386e+01 1.567454999999999927e+03
5.600000000000000117e-02 7.672799999999999621e-01 1.550178000000000011e+01 6.946760000000000446e+01 1.568295000000000073e+03
5.700000000000000205e-02 7.682115000000000471e-01 1.713687499999999986e+01 7.282359999999999900e+01 1.569134999999999991e+03
5.800000000000000294e-02 7.691220000000000834e-01 1.871079999999999899e+01 7.611589999999999634e+01 1.569974999999999909e+03
5.900000000000000383e-02 7.700040000000000218e-01 2.020769999999999911e+01 7.931395000000000550e+01 1.570799999999999955e+03
6.000000000000000472e-02 7.708544999999999980e-01 2.161724999999999852e+01 8.239785000000000537e+01 1.571605000000000018e+03
6.099999999999999867e-02 7.716730000000000533e-01 2.293430000000000035e+01 8.535784999999999911e+01 1.572384999999999991e+03
6.199999999999999956e-02 7.724600000000000355e-01 2.415804999999999936e+01 8.819364999999999100e+01 1.573134999999999991e+03
6.300000000000000044e-02 7.732189999999999896e-01 2.529144999999999754e+01 9.091304999999999836e+01 1.573865000000000009e+03
6.400000000000000133e-02 7.739549999999999486e-01 2.634009999999999962e+01 9.352960000000000207e+01 1.574570000000000164e+03
6.500000000000000222e-02 7.746735000000000149e-01 2.731139999999999901e+01 9.606114999999999782e+01 1.575255000000000109e+03
6.600000000000000311e-02 7.753794999999999993e-01 2.821375000000000099e+01 9.852819999999999823e+01 1.575924999999999955e+03
6.700000000000000400e-02 7.760785000000000045e-01 2.905564999999999998e+01 1.009509500000000060e+02 1.576579999999999927e+03
6.800000000000000488e-02 7.767755000000000631e-01 2.984499999999999886e+01 1.033466500000000110e+02 1.577230000000000018e+03
6.900000000000000577e-02 7.774725000000000108e-01 3.058845000000000169e+01 1.057319999999999993e+02 1.577875000000000000e+03
7.000000000000000666e-02 7.781735000000000735e-01 3.129095000000000226e+01 1.081160000000000139e+02 1.578515000000000100e+03
7.100000000000000755e-02 7.788770000000000415e-01 3.195524999999999949e+01 1.105049999999999955e+02 1.579159999999999854e+03
7.200000000000000844e-02 7.795829999999999149e-01 3.258194999999999908e+01 1.128975000000000080e+02 1.579804999999999836e+03
7.300000000000000933e-02 7.802884999999999405e-01 3.316935000000000144e+01 1.152870000000000061e+02 1.580444999999999936e+03
7.399999999999999634e-02 7.809885000000000854e-01 3.371370000000000289e+01 1.176620000000000061e+02 1.581085000000000036e+03
7.499999999999999722e-02 7.816780000000000950e-01 3.420964999999999634e+01 1.200054999999999978e+02 1.581710000000000036e+03
7.599999999999999811e-02 7.823510000000000186e-01 3.465070000000000050e+01 1.222969999999999970e+02 1.582335000000000036e+03
7.699999999999999900e-02 7.830010000000000581e-01 3.502974999999999994e+01 1.245150000000000006e+02 1.582934999999999945e+03
7.799999999999999989e-02 7.836214999999999709e-01 3.533970000000000056e+01 1.266364999999999981e+02 1.583515000000000100e+03
7.900000000000000078e-02 7.842065000000000285e-01 3.557394999999999641e+01 1.286405000000000030e+02 1.584069999999999936e+03
8.000000000000000167e-02 7.847500000000000586e-01 3.572674999999999557e+01 1.305049999999999955e+02 1.584589999999999918e+03
8.100000000000000255e-02 7.852485000000000159e-01 3.579349999999999454e+01 1.322135000000000105e+02 1.585070000000000164e+03
8.200000000000000344e-02 7.856969999999999787e-01 3.577129999999999654e+01 1.337520000000000095e+02 1.585510000000000218e+03
8.300000000000000433e-02 7.860940000000000705e-01 3.565885000000000105e+01 1.351100000000000136e+02 1.585904999999999973e+03
8.400000000000000522e-02 7.864385000000000403e-01 3.545649999999999835e+01 1.362824999999999989e+02 1.586255000000000109e+03
8.500000000000000611e-02 7.867300000000000404e-01 3.516649999999999920e+01 1.372669999999999959e+02 1.586559999999999945e+03
8.600000000000000699e-02 7.869694999999999885e-01 3.479274999999999807e+01 1.380685000000000002e+02 1.586815000000000055e+03
8.700000000000000788e-02 7.871595000000000120e-01 3.434085000000000321e+01 1.386915000000000191e+02 1.587019999999999982e+03
8.800000000000000877e-02 7.873040000000000038e-01 3.381794999999999618e+01 1.391479999999999961e+02 1.587179999999999836e+03
8.899999999999999578e-02 7.874054999999999804e-01 3.323245000000000005e+01 1.394515000000000100e+02 1.587304999999999836e+03
8.999999999999999667e-02 7.874689999999999745e-01 3.259390000000000498e+01 1.396179999999999950e+02 1.587389999999999873e+03
9.099999999999999756e-02 7.875004999999999367e-01 3.191270000000000095e+01 1.396659999999999968e+02 1.587440000000000055e+03
9.199999999999999845e-02 7.875054999999999694e-01 3.119964999999999833e+01 1.396150000000000091e+02 1.587460000000000036e+03
9.299999999999999933e-02 7.874889999999999946e-01 3.046564999999999657e+01 1.394850000000000136e+02 1.587454999999999927e+03
9.400000000000000022e-02 7.874565000000000037e-01 2.972124999999999773e+01 1.392965000000000089e+02 1.587434999999999945e+03
9.500000000000000111e-02 7.874134999999999884e-01 2.897650000000000148e+01 1.390679999999999836e+02 1.587394999999999982e+03
9.600000000000000200e-02 7.873645000000000227e-01 2.824034999999999940e+01 1.388170000000000073e+02 1.587349999999999909e+03
9.700000000000000289e-02 7.873134999999999994e-01 2.752029999999999887e+01 1.385589999999999975e+02 1.587295000000000073e+03
9.800000000000000377e-02 7.872630000000000461e-01 2.682235000000000014e+01 1.383059999999999832e+02 1.587240000000000009e+03
9.900000000000000466e-02 7.872159999999999158e-01 2.615064999999999884e+01 1.380679999999999836e+02 1.587180000000000064e+03
1.000000000000000056e-01 7.871734999999999705e-01 2.550744999999999862e+01 1.378489999999999895e+02 1.587125000000000000e+03
1.010000000000000064e-01 7.871360000000000579e-01 2.489320000000000022e+01 1.376529999999999916e+02 1.587075000000000045e+03
1.020000000000000073e-01 7.871015000000000095e-01 2.430669999999999931e+01 1.374780000000000086e+02 1.587029999999999973e+03
1.030000000000000082e-01 7.870699999999999363e-01 2.374504999999999910e+01 1.373204999999999814e+02 1.586985000000000127e+03
1.040000000000000091e-01 7.870395000000000030e-01 2.320425000000000182e+01 1.371750000000000114e+02 1.586940000000000055e+03
1.050000000000000100e-01 7.870060000000000944e-01 2.267909999999999826e+01 1.370324999999999989e+02 1.586900000000000091e+03
1.059999999999999970e-01 7.869690000000000296e-01 2.216400000000000148e+01 1.368829999999999814e+02 1.586855000000000018e+03
1.069999999999999979e-01 7.869239999999999569e-01 2.165294999999999703e+01 1.367164999999999964e+02 1.586809999999999945e+03
1.079999999999999988e-01 7.868684999999999707e-01 2.113994999999999891e+01 1.365235000000000127e+02 1.586759999999999991e+03
1.089999999999999997e-01 7.868005000000000138e-01 2.061935000000000073e+01 1.362934999999999945e+02 1.586699999999999818e+03
1.100000000000000006e-01 7.867180000000000284e-01 2.008610000000000184e+01 1.360190000000000055e+02 1.586630000000000109e+03
1.110000000000000014e-01 7.866195000000000270e-01 1.953620000000000090e+01 1.356924999999999955e+02 1.586545000000000073e+03
1.120000000000000023e-01 7.865029999999999522e-01 1.896649999999999991e+01 1.353095000000000141e+02 1.586450000000000045e+03
1.130000000000000032e-01 7.863689999999999847e-01 1.837519999999999953e+01 1.348679999999999950e+02 1.586340000000000146e+03
1.140000000000000041e-01 7.862179999999999724e-01 1.776190000000000069e+01 1.343669999999999902e+02 1.586219999999999800e+03
1.150000000000000050e-01 7.860515000000000141e-01 1.712744999999999962e+01 1.338110000000000070e+02 1.586079999999999927e+03
1.160000000000000059e-01 7.858704999999999163e-01 1.647414999999999807e+01 1.332034999999999911e+02 1.585934999999999945e+03
1.170000000000000068e-01 7.856784999999999464e-01 1.580560000000000009e+01 1.325529999999999973e+02 1.585769999999999982e+03
1.180000000000000077e-01 7.854775000000000507e-01 1.512650000000000006e+01 1.318689999999999998e+02 1.585599999999999909e+03
1.190000000000000085e-01 7.852715000000000112e-01 1.444266499999999809e+01 1.311630000000000109e+02 1.585424999999999955e+03
1.200000000000000094e-01 7.850650000000000128e-01 1.376066999999999929e+01 1.304484999999999957e+02 1.585240000000000009e+03
1.209999999999999964e-01 7.848614999999999897e-01 1.308749000000000073e+01 1.297379999999999995e+02 1.585059999999999945e+03
1.219999999999999973e-01 7.846649999999999459e-01 1.243045000000000044e+01 1.290465000000000089e+02 1.584884999999999991e+03
1.229999999999999982e-01 7.844789999999999264e-01 1.179684999999999917e+01 1.283870000000000005e+02 1.584710000000000036e+03
1.239999999999999991e-01 7.843080000000000052e-01 1.119358000000000075e+01 1.277740000000000009e+02 1.584545000000000073e+03
1.250000000000000000e-01 7.841544999999999765e-01 1.062690000000000090e+01 1.272180000000000035e+02 1.584394999999999982e+03
1.260000000000000009e-01 7.840219999999999967e-01 1.010243000000000002e+01 1.267289999999999992e+02 1.584260000000000218e+03
1.270000000000000018e-01 7.839114999999999833e-01 9.624425000000000452e+00 1.263160000000000025e+02 1.584139999999999873e+03
1.280000000000000027e-01 7.838249999999999940e-01 9.196149999999999380e+00 1.259844999999999970e+02 1.584039999999999964e+03
1.290000000000000036e-01 7.837629999999999875e-01 8.819459999999999411e+00 1.257369999999999948e+02 1.583960000000000036e+03
1.300000000000000044e-01 7.837245000000000461e-01 8.494899999999999451e+00 1.255745000000000005e+02 1.583904999999999973e+03
1.310000000000000053e-01 7.837095000000000589e-01 8.221669999999999590e+00 1.254945000000000022e+02 1.583869999999999891e+03
1.320000000000000062e-01 7.837159999999999682e-01 7.997720000000000162e+00 1.254919999999999902e+02 1.583849999999999909e+03
1.330000000000000071e-01 7.837419999999999387e-01 7.819905000000000328e+00 1.255620000000000118e+02 1.583849999999999909e+03
1.340000000000000080e-01 7.837844999999999951e-01 7.684139999999999304e+00 1.256945000000000050e+02 1.583869999999999891e+03
1.350000000000000089e-01 7.838415000000000799e-01 7.585604999999999265e+00 1.258810000000000002e+02 1.583900000000000091e+03
1.360000000000000098e-01 7.839095000000000368e-01 7.518969999999999487e+00 1.261110000000000042e+02 1.583940000000000055e+03
1.370000000000000107e-01 7.839859999999999607e-01 7.478625000000000078e+00 1.263735000000000070e+02 1.584000000000000000e+03
1.380000000000000115e-01 7.840659999999999297e-01 7.458864999999999412e+00 1.266564999999999941e+02 1.584059999999999945e+03
1.390000000000000124e-01 7.841489999999999849e-01 7.454140000000000654e+00 1.269509999999999934e+02 1.584130000000000109e+03
1.400000000000000133e-01 7.842314999999999703e-01 7.459165000000000489e+00 1.272469999999999999e+02 1.584194999999999936e+03
1.410000000000000142e-01 7.843109999999999804e-01 7.469115000000000393e+00 1.275355000000000132e+02 1.584264999999999873e+03
1.420000000000000151e-01 7.843865000000000975e-01 7.479720000000000368e+00 1.278100000000000023e+02 1.584329999999999927e+03
1.430000000000000160e-01 7.844550000000000134e-01 7.487315000000000609e+00 1.280639999999999930e+02 1.584394999999999982e+03
1.440000000000000169e-01 7.845170000000000199e-01 7.488955000000000695e+00 1.282940000000000111e+02 1.584454999999999927e+03
1.450000000000000178e-01 7.845709999999999074e-01 7.482355000000000089e+00 1.284965000000000259e+02 1.584509999999999991e+03
1.459999999999999909e-01 7.846170000000000089e-01 7.465939999999999799e+00 1.286700000000000159e+02 1.584559999999999945e+03
1.469999999999999918e-01 7.846549999999999914e-01 7.438819999999999766e+00 1.288145000000000095e+02 1.584595000000000027e+03
1.479999999999999927e-01 7.846859999999999946e-01 7.400689999999999991e+00 1.289300000000000068e+02 1.584630000000000109e+03
1.489999999999999936e-01 7.847090000000001009e-01 7.351824999999999832e+00 1.290199999999999818e+02 1.584660000000000082e+03
1.499999999999999944e-01 7.847265000000001045e-01 7.292970000000000397e+00 1.290860000000000127e+02 1.584684999999999945e+03
1.509999999999999953e-01 7.847389999999999644e-01 7.225274999999999892e+00 1.291315000000000168e+02 1.584694999999999936e+03
1.519999999999999962e-01 7.847474999999999312e-01 7.150179999999999758e+00 1.291605000000000132e+02 1.584710000000000036e+03
1.529999999999999971e-01 7.847530000000000339e-01 7.069345000000000212e+00 1.291759999999999877e+02 1.584719999999999800e+03
1.539999999999999980e-01 7.847560000000000091e-01 6.984550000000000480e+00 1.291820000000000164e+02 1.584724999999999909e+03
1.549999999999999989e-01 7.847580000000000666e-01 6.897579999999999600e+00 1.291820000000000164e+02 1.584724999999999909e+03
1.559999999999999998e-01 7.847595000000000542e-01 6.810164999999999580e+00 1.291795000000000186e+02 1.584730000000000018e+03
1.570000000000000007e-01 7.847619999999999596e-01 6.723884999999999224e+00 1.291765000000000043e+02 1.584730000000000018e+03
1.580000000000000016e-01 7.847649999999999348e-01 6.640119999999999578e+00 1.291759999999999877e+02 1.584735000000000127e+03
1.590000000000000024e-01 7.847695000000000087e-01 6.559969999999999857e+00 1.291795000000000186e+02 1.584740000000000009e+03
