# t [s], A [cm^2], U [cm/s], P [cPa], c [cm/s]
1.000000000000000021e-03 2.153999999999999804e-01 3.316844999999999932e-01 9.264039999999999964e+01 1.987815000000000055e+03
2.000000000000000042e-03 2.153479999999999839e-01 1.830500499999999864e+00 8.949680000000000746e+01 1.987449999999999818e+03
3.000000000000000062e-03 2.151974999999999860e-01 3.655980500000000077e+00 8.524805000000000632e+01 1.986434999999999945e+03
4.000000000000000083e-03 2.149874999999999980e-01 5.692946499999999688e+00 8.066595000000000937e+01 1.985039999999999964e+03
5.000000000000000104e-03 2.147585000000000188e-01 7.876940000000000275e+00 7.657984999999999332e+01 1.983534999999999854e+03
6.000000000000000125e-03 2.145360000000000045e-01 1.004507500000000064e+01 7.325845000000001050e+01 1.982089999999999918e+03
7.000000000000000146e-03 2.143265000000000031e-01 1.199747999999999948e+01 7.046930000000000405e+01 1.980750000000000000e+03
8.000000000000000167e-03 2.141335000000000044e-01 1.364962999999999838e+01 6.797409999999999286e+01 1.979529999999999973e+03
9.000000000000001055e-03 2.139619999999999855e-01 1.503260000000000041e+01 6.579659999999999798e+01 1.978464999999999918e+03
1.000000000000000194e-02 2.138154999999999917e-01 1.618195000000000050e+01 6.400920000000000698e+01 1.977565000000000055e+03
1.099999999999999936e-02 2.136939999999999951e-01 1.711120000000000019e+01 6.259275000000000233e+01 1.976829999999999927e+03
1.200000000000000025e-02 2.135960000000000081e-01 1.783239999999999981e+01 6.148725000000000307e+01 1.976240000000000009e+03
1.300000000000000114e-02 2.135174999999999990e-01 1.835249999999999915e+01 6.061150000000000659e+01 1.975779999999999973e+03
1.400000000000000203e-02 2.134530000000000038e-01 1.867989999999999995e+01 5.986690000000000111e+01 1.975404999999999973e+03
1.499999999999999944e-02 2.134004999999999930e-01 1.886005000000000109e+01 5.922494999999999976e+01 1.975110000000000127e+03
1.600000000000000033e-02 2.133610000000000229e-01 1.899844999999999828e+01 5.882920000000000016e+01 1.974894999999999982e+03
1.700000000000000122e-02 2.133444999999999925e-01 1.923190000000000310e+01 5.897150000000000603e+01 1.974809999999999945e+03
1.800000000000000211e-02 2.133599999999999941e-01 1.966324999999999790e+01 5.992980000000000018e+01 1.974920000000000073e+03
1.900000000000000300e-02 2.134149999999999936e-01 2.030705000000000027e+01 6.178074999999999761e+01 1.975255000000000109e+03
2.000000000000000042e-02 2.135035000000000127e-01 2.107795000000000130e+01 6.431080000000000041e+01 1.975800000000000182e+03
2.100000000000000130e-02 2.136145000000000127e-01 2.182489999999999952e+01 6.706895000000000095e+01 1.976485000000000127e+03
2.200000000000000219e-02 2.137280000000000013e-01 2.238765000000000072e+01 6.952070000000000505e+01 1.977199999999999818e+03
2.299999999999999961e-02 2.138259999999999883e-01 2.265109999999999957e+01 7.122480000000000189e+01 1.977819999999999936e+03
2.400000000000000050e-02 2.138944999999999874e-01 2.257610000000000028e+01 7.196155000000000257e+01 1.978264999999999873e+03
2.500000000000000139e-02 2.139274999999999927e-01 2.220139999999999958e+01 7.177240000000000464e+01 1.978500000000000000e+03
2.600000000000000228e-02 2.139289999999999803e-01 2.161890000000000001e+01 7.090809999999999036e+01 1.978530000000000200e+03
2.700000000000000316e-02 2.139079999999999870e-01 2.093540000000000134e+01 6.971585000000000321e+01 1.978414999999999964e+03
2.800000000000000058e-02 2.138740000000000085e-01 2.023760000000000048e+01 6.851515000000000555e+01 1.978220000000000027e+03
2.900000000000000147e-02 2.138375000000000137e-01 1.957000000000000028e+01 6.750554999999999950e+01 1.977994999999999891e+03
3.000000000000000236e-02 2.138039999999999941e-01 1.893234999999999957e+01 6.673305000000000575e+01 1.977789999999999964e+03
3.099999999999999978e-02 2.137739999999999918e-01 1.829240000000000066e+01 6.611320000000000618e+01 1.977599999999999909e+03
3.200000000000000067e-02 2.137439999999999896e-01 1.760795000000000243e+01 6.549414999999999054e+01 1.977414999999999964e+03
3.300000000000000155e-02 2.137100000000000111e-01 1.684924999999999784e+01 6.473255000000000337e+01 1.977210000000000036e+03
3.400000000000000244e-02 2.136695000000000122e-01 1.601574999999999704e+01 6.375830000000000553e+01 1.976965000000000146e+03
3.500000000000000333e-02 2.136210000000000053e-01 1.514250000000000007e+01 6.260930000000000462e+01 1.976670000000000073e+03
3.600000000000000422e-02 2.135684999999999945e-01 1.429460000000000086e+01 6.142964999999999520e+01 1.976349999999999909e+03
3.700000000000000511e-02 2.135179999999999856e-01 1.355235000000000056e+01 6.043209999999999837e+01 1.976039999999999964e+03
3.799999999999999906e-02 2.134790000000000021e-01 1.299085000000000001e+01 5.983939999999999770e+01 1.975789999999999964e+03
3.899999999999999994e-02 2.134584999999999955e-01 1.266120000000000090e+01 5.982120000000000459e+01 1.975654999999999973e+03
4.000000000000000083e-02 2.134624999999999995e-01 1.257719999999999949e+01 6.044624999999999915e+01 1.975664999999999964e+03
4.100000000000000172e-02 2.134920000000000151e-01 1.271185000000000009e+01 6.166070000000000562e+01 1.975835000000000036e+03
4.200000000000000261e-02 2.135440000000000116e-01 1.300210000000000043e+01 6.329670000000000130e+01 1.976140000000000100e+03
4.300000000000000350e-02 2.136115000000000097e-01 1.336105000000000054e+01 6.510509999999999309e+01 1.976545000000000073e+03
4.400000000000000439e-02 2.136844999999999994e-01 1.369289999999999985e+01 6.680249999999999488e+01 1.976990000000000009e+03
4.499999999999999833e-02 2.137515000000000109e-01 1.390775000000000006e+01 6.811965000000000714e+01 1.977404999999999973e+03
4.599999999999999922e-02 2.138030000000000208e-01 1.393335000000000079e+01 6.884194999999999709e+01 1.977720000000000027e+03
4.700000000000000011e-02 2.138289999999999913e-01 1.372180000000000000e+01 6.883440000000000225e+01 1.977889999999999873e+03
4.800000000000000100e-02 2.138255000000000017e-01 1.325195000000000078e+01 6.804970000000000141e+01 1.977880000000000109e+03
4.900000000000000189e-02 2.137894999999999934e-01 1.252669999999999995e+01 6.652089999999999748e+01 1.977670000000000073e+03
5.000000000000000278e-02 2.137224999999999819e-01 1.156859000000000037e+01 6.434290000000000020e+01 1.977264999999999873e+03
5.100000000000000366e-02 2.136264999999999969e-01 1.041320999999999941e+01 6.164954999999999785e+01 1.976679999999999836e+03
5.200000000000000455e-02 2.135070000000000023e-01 9.103729999999998768e+00 5.859094999999999942e+01 1.975954999999999927e+03
5.300000000000000544e-02 2.133700000000000041e-01 7.686314999999999564e+00 5.531595000000000084e+01 1.975109999999999900e+03
5.399999999999999939e-02 2.132215000000000082e-01 6.207604999999999151e+00 5.196119999999999806e+01 1.974199999999999818e+03
5.500000000000000028e-02 2.130670000000000064e-01 4.713108500000000589e+00 4.864705000000000013e+01 1.973250000000000000e+03
5.600000000000000117e-02 2.129119999999999902e-01 3.247374999999999901e+00 4.547844999999999516e+01 1.972289999999999964e+03
5.700000000000000205e-02 2.127614999999999923e-01 1.854144999999999932e+00 4.254860000000000042e+01 1.971355000000000018e+03
5.800000000000000294e-02 2.126204999999999901e-01 5.765499999999998959e-01 3.994324999999999903e+01 1.970485000000000127e+03
5.900000000000000383e-02 2.124925000000000008e-01 -5.431799999999999962e-01 3.774334999999999951e+01 1.969690000000000055e+03
6.000000000000000472e-02 2.123829999999999885e-01 -1.464686999999999850e+00 3.602550000000000097e+01 1.969005000000000109e+03
6.099999999999999867e-02 2.122954999999999981e-01 -2.151083499999999926e+00 3.486045000000000016e+01 1.968450000000000045e+03
6.199999999999999956e-02 2.122330000000000050e-01 -2.570929999999999715e+00 3.430830000000000268e+01 1.968049999999999955e+03
6.300000000000000044e-02 2.121994999999999854e-01 -2.700280000000000236e+00 3.441424999999999557e+01 1.967825000000000045e+03
6.400000000000000133e-02 2.121959999999999957e-01 -2.524504999999999999e+00 3.520359999999999445e+01 1.967784999999999854e+03
6.500000000000000222e-02 2.122244999999999826e-01 -2.039480000000000182e+00 3.667770000000000152e+01 1.967940000000000055e+03
6.600000000000000311e-02 2.122855000000000159e-01 -1.252133000000000163e+00 3.881284999999999741e+01 1.968289999999999964e+03
6.700000000000000400e-02 2.123769999999999825e-01 -1.800649999999999196e-01 4.156029999999999802e+01 1.968840000000000146e+03
6.800000000000000488e-02 2.124979999999999924e-01 1.149480000000000057e+00 4.484929999999999950e+01 1.969565000000000055e+03
6.900000000000000577e-02 2.126454999999999873e-01 2.701298500000000047e+00 4.859130000000000393e+01 1.970454999999999927e+03
7.000000000000000666e-02 2.128150000000000042e-01 4.434269999999999712e+00 5.268595000000000539e+01 1.971490000000000009e+03
7.100000000000000755e-02 2.130029999999999979e-01 6.303664999999999630e+00 5.702705000000000268e+01 1.972639999999999873e+03
7.200000000000000844e-02 2.132045000000000190e-01 8.263424999999999798e+00 6.150865000000000293e+01 1.973875000000000000e+03
7.300000000000000933e-02 2.134145000000000070e-01 1.026840499999999956e+01 6.603079999999999927e+01 1.975170000000000073e+03
7.399999999999999634e-02 2.136284999999999989e-01 1.227645000000000053e+01 7.050469999999999970e+01 1.976494999999999891e+03
7.499999999999999722e-02 2.138424999999999909e-01 1.425009999999999977e+01 7.485624999999998863e+01 1.977825000000000045e+03
7.599999999999999811e-02 2.140540000000000220e-01 1.615794999999999959e+01 7.902895000000000891e+01 1.979139999999999873e+03
7.699999999999999900e-02 2.142590000000000050e-01 1.797569999999999979e+01 8.298584999999999923e+01 1.980420000000000073e+03
7.799999999999999989e-02 2.144554999999999934e-01 1.968700000000000117e+01 8.670945000000000391e+01 1.981659999999999854e+03
7.900000000000000078e-02 2.146430000000000005e-01 2.128275000000000006e+01 9.020109999999999673e+01 1.982835000000000036e+03
8.000000000000000167e-02 2.148214999999999986e-01 2.276135000000000019e+01 9.347870000000000346e+01 1.983964999999999918e+03
8.100000000000000255e-02 2.149909999999999877e-01 2.412749999999999773e+01 9.657345000000000823e+01 1.985034999999999854e+03
8.200000000000000344e-02 2.151530000000000109e-01 2.539110000000000156e+01 9.952625000000000455e+01 1.986070000000000164e+03
8.300000000000000433e-02 2.153090000000000004e-01 2.656540000000000035e+01 1.023826500000000124e+02 1.987054999999999836e+03
8.400000000000000522e-02 2.154604999999999992e-01 2.766584999999999894e+01 1.051889999999999930e+02 1.988019999999999982e+03
8.500000000000000611e-02 2.156095000000000095e-01 2.870834999999999937e+01 1.079890000000000043e+02 1.988970000000000027e+03
8.600000000000000699e-02 2.157580000000000053e-01 2.970759999999999934e+01 1.108179999999999978e+02 1.989909999999999854e+03
8.700000000000000788e-02 2.159070000000000156e-01 3.067620000000000147e+01 1.137034999999999911e+02 1.990860000000000127e+03
8.800000000000000877e-02 2.160590000000000011e-01 3.162344999999999828e+01 1.166599999999999966e+02 1.991824999999999818e+03
8.899999999999999578e-02 2.162125000000000019e-01 3.255490000000000350e+01 1.196910000000000025e+02 1.992800000000000182e+03
8.999999999999999667e-02 2.163694999999999924e-01 3.347209999999999752e+01 1.227884999999999991e+02 1.993795000000000073e+03
9.099999999999999756e-02 2.165289999999999992e-01 3.437239999999999895e+01 1.259314999999999998e+02 1.994809999999999945e+03
9.199999999999999845e-02 2.166899999999999937e-01 3.524970000000000425e+01 1.290930000000000177e+02 1.995835000000000036e+03
9.299999999999999933e-02 2.168515000000000026e-01 3.609440000000000026e+01 1.322364999999999782e+02 1.996860000000000127e+03
9.400000000000000022e-02 2.170114999999999961e-01 3.689475000000000193e+01 1.353215000000000146e+02 1.997880000000000109e+03
9.500000000000000111e-02 2.171690000000000009e-01 3.763715000000000543e+01 1.383059999999999832e+02 1.998884999999999991e+03
9.600000000000000200e-02 2.173215000000000008e-01 3.830724999999999625e+01 1.411460000000000150e+02 1.999859999999999900e+03
9.700000000000000289e-02 2.174675000000000080e-01 3.889064999999999372e+01 1.438014999999999759e+02 2.000789999999999964e+03
9.800000000000000377e-02 2.176045000000000063e-01 3.937399999999999523e+01 1.462350000000000136e+02 2.001670000000000073e+03
9.900000000000000466e-02 2.177310000000000079e-01 3.974514999999999532e+01 1.484159999999999968e+02 2.002485000000000127e+03
1.000000000000000056e-01 2.178464999999999985e-01 3.999445000000000050e+01 1.503195000000000050e+02 2.003224999999999909e+03
1.010000000000000064e-01 2.179479999999999751e-01 4.011475000000000080e+01 1.519290000000000020e+02 2.003885000000000218e+03
1.020000000000000073e-01 2.180360000000000076e-01 4.010210000000000008e+01 1.532355000000000018e+02 2.004454999999999927e+03
1.030000000000000082e-01 2.181099999999999983e-01 3.995574999999999477e+01 1.542390000000000043e+02 2.004934999999999945e+03
1.040000000000000091e-01 2.181690000000000018e-01 3.967849999999999966e+01 1.549470000000000027e+02 2.005325000000000045e+03
1.050000000000000100e-01 2.182144999999999779e-01 3.927635000000000076e+01 1.553750000000000000e+02 2.005619999999999891e+03
1.059999999999999970e-01 2.182455000000000089e-01 3.875854999999999961e+01 1.555455000000000041e+02 2.005835000000000036e+03
1.069999999999999979e-01 2.182645000000000002e-01 3.813689999999999714e+01 1.554865000000000066e+02 2.005965000000000146e+03
1.079999999999999988e-01 2.182719999999999938e-01 3.742569999999999908e+01 1.552314999999999827e+02 2.006025000000000091e+03
1.089999999999999997e-01 2.182695000000000052e-01 3.664069999999999538e+01 1.548149999999999977e+02 2.006019999999999982e+03
1.100000000000000006e-01 2.182589999999999808e-01 3.579869999999999663e+01 1.542749999999999773e+02 2.005954999999999927e+03
1.110000000000000014e-01 2.182405000000000039e-01 3.491700000000000159e+01 1.536469999999999914e+02 2.005849999999999909e+03
1.120000000000000023e-01 2.182180000000000231e-01 3.401230000000000331e+01 1.529680000000000177e+02 2.005710000000000036e+03
1.130000000000000032e-01 2.181914999999999827e-01 3.310060000000000002e+01 1.522680000000000007e+02 2.005545000000000073e+03
1.140000000000000041e-01 2.181635000000000102e-01 3.219624999999999915e+01 1.515759999999999934e+02 2.005369999999999891e+03
1.150000000000000050e-01 2.181345000000000089e-01 3.131159999999999854e+01 1.509145000000000039e+02 2.005184999999999945e+03
1.160000000000000059e-01 2.181060000000000221e-01 3.045680000000000121e+01 1.503004999999999995e+02 2.005005000000000109e+03
1.170000000000000068e-01 2.180790000000000228e-01 2.963929999999999865e+01 1.497450000000000045e+02 2.004829999999999927e+03
1.180000000000000077e-01 2.180535000000000112e-01 2.886384999999999934e+01 1.492535000000000025e+02 2.004664999999999964e+03
1.190000000000000085e-01 2.180300000000000016e-01 2.813255000000000194e+01 1.488240000000000123e+02 2.004519999999999982e+03
1.200000000000000094e-01 2.180090000000000083e-01 2.744474999999999909e+01 1.484499999999999886e+02 2.004380000000000109e+03
1.209999999999999964e-01 2.179905000000000037e-01 2.679744999999999777e+01 1.481204999999999927e+02 2.004255000000000109e+03
1.219999999999999973e-01 2.179730000000000001e-01 2.618560000000000088e+01 1.478195000000000050e+02 2.004144999999999982e+03
1.229999999999999982e-01 2.179570000000000118e-01 2.560229999999999961e+01 1.475289999999999964e+02 2.004034999999999854e+03
1.239999999999999991e-01 2.179409999999999958e-01 2.503945000000000221e+01 1.472275000000000205e+02 2.003929999999999836e+03
1.250000000000000000e-01 2.179245000000000210e-01 2.448819999999999908e+01 1.468940000000000055e+02 2.003820000000000164e+03
1.260000000000000009e-01 2.179059999999999886e-01 2.393925000000000125e+01 1.465079999999999814e+02 2.003699999999999818e+03
1.270000000000000018e-01 2.178855000000000097e-01 2.338385000000000247e+01 1.460484999999999900e+02 2.003565000000000055e+03
1.280000000000000027e-01 2.178614999999999857e-01 2.281354999999999933e+01 1.454995000000000118e+02 2.003414999999999964e+03
1.290000000000000036e-01 2.178335000000000132e-01 2.222144999999999726e+01 1.448474999999999966e+02 2.003235000000000127e+03
1.300000000000000044e-01 2.178005000000000080e-01 2.160204999999999842e+01 1.440819999999999936e+02 2.003025000000000091e+03
1.310000000000000053e-01 2.177630000000000121e-01 2.095170000000000243e+01 1.431995000000000005e+02 2.002779999999999973e+03
1.320000000000000062e-01 2.177195000000000102e-01 2.026885000000000048e+01 1.422004999999999768e+02 2.002509999999999991e+03
1.330000000000000071e-01 2.176700000000000024e-01 1.955429999999999779e+01 1.410904999999999916e+02 2.002195000000000164e+03
1.340000000000000080e-01 2.176164999999999905e-01 1.881085000000000207e+01 1.398799999999999955e+02 2.001855000000000018e+03
1.350000000000000089e-01 2.175575000000000148e-01 1.804354999999999976e+01 1.385854999999999961e+02 2.001485000000000127e+03
1.360000000000000098e-01 2.174949999999999939e-01 1.725929999999999964e+01 1.372264999999999873e+02 2.001085000000000036e+03
1.370000000000000107e-01 2.174289999999999834e-01 1.646659999999999968e+01 1.358265000000000100e+02 2.000670000000000073e+03
1.380000000000000115e-01 2.173609999999999987e-01 1.567520000000000024e+01 1.344094999999999800e+02 2.000235000000000127e+03
1.390000000000000124e-01 2.172919999999999852e-01 1.489545000000000030e+01 1.330029999999999859e+02 1.999800000000000182e+03
1.400000000000000133e-01 2.172229999999999994e-01 1.413814999999999955e+01 1.316324999999999932e+02 1.999365000000000009e+03
1.410000000000000142e-01 2.171560000000000157e-01 1.341385000000000005e+01 1.303230000000000075e+02 1.998929999999999836e+03
1.420000000000000151e-01 2.170909999999999784e-01 1.273245000000000005e+01 1.290980000000000132e+02 1.998515000000000100e+03
1.430000000000000160e-01 2.170294999999999863e-01 1.210280000000000022e+01 1.279770000000000039e+02 1.998130000000000109e+03
1.440000000000000169e-01 2.169729999999999992e-01 1.153228499999999990e+01 1.269744999999999919e+02 1.997764999999999873e+03
1.450000000000000178e-01 2.169214999999999893e-01 1.102668500000000051e+01 1.261040000000000134e+02 1.997434999999999945e+03
1.459999999999999909e-01 2.168754999999999988e-01 1.058978499999999912e+01 1.253704999999999927e+02 1.997139999999999873e+03
1.469999999999999918e-01 2.168364999999999876e-01 1.022351000000000099e+01 1.247779999999999916e+02 1.996884999999999991e+03
1.479999999999999927e-01 2.168034999999999823e-01 9.927755000000001218e+00 1.243215000000000003e+02 1.996670000000000073e+03
1.489999999999999936e-01 2.167769999999999975e-01 9.700559999999999405e+00 1.239969999999999999e+02 1.996500000000000000e+03
1.499999999999999944e-01 2.167564999999999908e-01 9.538260000000001071e+00 1.237930000000000064e+02 1.996360000000000127e+03
1.509999999999999953e-01 2.167425000000000046e-01 9.435670000000000002e+00 1.236970000000000027e+02 1.996264999999999873e+03
1.519999999999999962e-01 2.167330000000000090e-01 9.386469999999999203e+00 1.236929999999999978e+02 1.996200000000000045e+03
1.529999999999999971e-01 2.167284999999999906e-01 9.383399999999999963e+00 1.237655000000000030e+02 1.996164999999999964e+03
1.539999999999999980e-01 2.167275000000000174e-01 9.418569999999998998e+00 1.238960000000000008e+02 1.996150000000000091e+03
1.549999999999999989e-01 2.167299999999999782e-01 9.483824999999999505e+00 1.240685000000000002e+02 1.996164999999999964e+03
1.559999999999999998e-01 2.167344999999999966e-01 9.570999999999999730e+00 1.242644999999999982e+02 1.996190000000000055e+03
1.570000000000000007e-01 2.167409999999999892e-01 9.672304999999999708e+00 1.244695000000000107e+02 1.996224999999999909e+03
1.580000000000000016e-01 2.167479999999999962e-01 9.780314999999999870e+00 1.246700000000000017e+02 1.996269999999999982e+03
1.590000000000000024e-01 2.167554999999999898e-01 9.888355000000000672e+00 1.248534999999999968e+02 1.996315000000000055e+03
