# t [s], A [cm^2], U [cm/s], P [cPa], c [cm/s]
1.000000000000000021e-03 7.632995000000000196e-01 5.389600000000001334e-03 1.045395000000000039e+02 1.601985000000000127e+03
2.000000000000000042e-03 7.632870000000000488e-01 -2.870380000000000067e-03 1.045169999999999959e+02 1.601980000000000018e+03
3.000000000000000062e-03 7.633199999999999985e-01 4.073410000000000225e-02 1.045639999999999930e+02 1.601994999999999891e+03
4.000000000000000083e-03 7.633834999999999926e-01 1.304224999999999968e-01 1.046809999999999974e+02 1.602025000000000091e+03
5.000000000000000104e-03 7.633969999999999922e-01 1.627688999999999941e-01 1.047195000000000107e+02 1.602039999999999964e+03
6.000000000000000125e-03 7.633449999999999402e-01 1.070925000000000071e-01 1.046110000000000042e+02 1.602009999999999991e+03
7.000000000000000146e-03 7.632885000000000364e-01 4.155150000000001898e-02 1.044364999999999952e+02 1.601970000000000027e+03
8.000000000000000167e-03 7.632399999999999185e-01 -1.678850000000003950e-02 1.042355000000000018e+02 1.601920000000000073e+03
9.000000000000001055e-03 7.631590000000000318e-01 -1.313775000000000359e-01 1.039399999999999977e+02 1.601855000000000018e+03
1.000000000000000194e-02 7.630284999999999984e-01 -3.329000000000000847e-01 1.034985000000000070e+02 1.601755000000000109e+03
1.099999999999999936e-02 7.628395000000000037e-01 -6.309599999999999653e-01 1.028739999999999952e+02 1.601605000000000018e+03
1.200000000000000025e-02 7.625745000000000440e-01 -1.045734999999999859e+00 1.020125500000000045e+02 1.601404999999999973e+03
1.300000000000000114e-02 7.622260000000000701e-01 -1.576840000000000241e+00 1.008793000000000006e+02 1.601130000000000109e+03
1.400000000000000203e-02 7.618219999999999992e-01 -2.167455000000000354e+00 9.951099999999999568e+01 1.600799999999999955e+03
1.499999999999999944e-02 7.614149999999999530e-01 -2.716990000000000016e+00 9.801720000000000255e+01 1.600430000000000064e+03
1.600000000000000033e-02 7.610540000000000083e-01 -3.127358499999999708e+00 9.653020000000000778e+01 1.600039999999999964e+03
1.700000000000000122e-02 7.607599999999999918e-01 -3.341120500000000160e+00 9.514529999999999177e+01 1.599659999999999854e+03
1.800000000000000211e-02 7.605245000000000477e-01 -3.352041000000000270e+00 9.389799999999999613e+01 1.599304999999999836e+03
1.900000000000000300e-02 7.603180000000000494e-01 -3.193335500000000327e+00 9.276445000000001073e+01 1.598965000000000146e+03
2.000000000000000042e-02 7.601070000000000881e-01 -2.916427000000000103e+00 9.168504999999998972e+01 1.598634999999999991e+03
2.100000000000000130e-02 7.598644999999999428e-01 -2.570357999999999699e+00 9.059165000000000134e+01 1.598295000000000073e+03
2.200000000000000219e-02 7.595754999999999590e-01 -2.187534499999999937e+00 8.943210000000000548e+01 1.597940000000000055e+03
2.299999999999999961e-02 7.592430000000000012e-01 -1.777975000000000083e+00 8.818430000000000746e+01 1.597559999999999945e+03
2.400000000000000050e-02 7.588809999999999167e-01 -1.332115000000000160e+00 8.685914999999999964e+01 1.597159999999999854e+03
2.500000000000000139e-02 7.585075000000000012e-01 -8.302850000000001618e-01 8.549160000000000537e+01 1.596750000000000000e+03
2.600000000000000228e-02 7.581409999999999538e-01 -2.549599999999996314e-01 8.412485000000000923e+01 1.596335000000000036e+03
2.700000000000000316e-02 7.577905000000000335e-01 3.985099999999999199e-01 8.279335000000000377e+01 1.595925000000000182e+03
2.800000000000000058e-02 7.574535000000000018e-01 1.115884999999999794e+00 8.151014999999999588e+01 1.595525000000000091e+03
2.900000000000000147e-02 7.571189999999999864e-01 1.863890000000000269e+00 8.026149999999999807e+01 1.595130000000000109e+03
3.000000000000000236e-02 7.567675000000000374e-01 2.595164999999999722e+00 7.900915000000000532e+01 1.594740000000000009e+03
3.099999999999999978e-02 7.563774999999999249e-01 3.256790000000000074e+00 7.769934999999999548e+01 1.594335000000000036e+03
3.200000000000000067e-02 7.559320000000000483e-01 3.800394999999999968e+00 7.627594999999999459e+01 1.593910000000000082e+03
3.300000000000000155e-02 7.554210000000000091e-01 4.191559999999999953e+00 7.469499999999999318e+01 1.593454999999999927e+03
3.400000000000000244e-02 7.548464999999999758e-01 4.416414999999999758e+00 7.293689999999999429e+01 1.592950000000000045e+03
3.500000000000000333e-02 7.542214999999999892e-01 4.483475000000000321e+00 7.101349999999999341e+01 1.592414999999999964e+03
3.600000000000000422e-02 7.535674999999999457e-01 4.420685000000000642e+00 6.896739999999999782e+01 1.591849999999999909e+03
3.700000000000000511e-02 7.529125000000000956e-01 4.268394999999999939e+00 6.686525000000000318e+01 1.591269999999999982e+03
3.799999999999999906e-02 7.522834999999999939e-01 4.070985000000000298e+00 6.478674999999999784e+01 1.590694999999999936e+03
3.899999999999999994e-02 7.517034999999999689e-01 3.869489999999999874e+00 6.281250000000000000e+01 1.590139999999999873e+03
4.000000000000000083e-02 7.511915000000000120e-01 3.696934999999999860e+00 6.101485000000000269e+01 1.589619999999999891e+03
4.100000000000000172e-02 7.507580000000000364e-01 3.576149999999999718e+00 5.945130000000000337e+01 1.589164999999999964e+03
4.200000000000000261e-02 7.504085000000000338e-01 3.520549999999999624e+00 5.816240000000000521e+01 1.588779999999999973e+03
4.300000000000000350e-02 7.501455000000000206e-01 3.536588499999999691e+00 5.717280000000000229e+01 1.588465000000000146e+03
4.400000000000000439e-02 7.499685000000000379e-01 3.626890500000000017e+00 5.649425000000000097e+01 1.588235000000000127e+03
4.499999999999999833e-02 7.498750000000000693e-01 3.793379999999999974e+00 5.613020000000000209e+01 1.588085000000000036e+03
4.599999999999999922e-02 7.498660000000000325e-01 4.039620000000000211e+00 5.607999999999999829e+01 1.588029999999999973e+03
4.700000000000000011e-02 7.499409999999999688e-01 4.371914999999999552e+00 5.634215000000000373e+01 1.588054999999999836e+03
4.800000000000000100e-02 7.501025000000000054e-01 4.799084999999999823e+00 5.691610000000000014e+01 1.588174999999999955e+03
4.900000000000000189e-02 7.503520000000000190e-01 5.331150000000000055e+00 5.780209999999999582e+01 1.588375000000000000e+03
5.000000000000000278e-02 7.506895000000000095e-01 5.977280000000000371e+00 5.899994999999999834e+01 1.588659999999999854e+03
5.100000000000000366e-02 7.511160000000000059e-01 6.743669999999999831e+00 6.050639999999999930e+01 1.589039999999999964e+03
5.200000000000000455e-02 7.516275000000000039e-01 7.631899999999999906e+00 6.231319999999999482e+01 1.589500000000000000e+03
5.300000000000000544e-02 7.522189999999999710e-01 8.637814999999999799e+00 6.440510000000000446e+01 1.590039999999999964e+03
5.399999999999999939e-02 7.528814999999999813e-01 9.751335000000000974e+00 6.675894999999999868e+01 1.590654999999999973e+03
5.500000000000000028e-02 7.536050000000000804e-01 1.095744999999999969e+01 6.934414999999999907e+01 1.591339999999999918e+03
5.600000000000000117e-02 7.543774999999999231e-01 1.223692000000000135e+01 7.212364999999999782e+01 1.592085000000000036e+03
5.700000000000000205e-02 7.551855000000000651e-01 1.356837499999999963e+01 7.505629999999999313e+01 1.592880000000000109e+03
5.800000000000000294e-02 7.560175000000000090e-01 1.492977000000000132e+01 7.809895000000000209e+01 1.593704999999999927e+03
5.900000000000000383e-02 7.568619999999999237e-01 1.629989499999999936e+01 8.120935000000000059e+01 1.594565000000000055e+03
6.000000000000000472e-02 7.577080000000000481e-01 1.765961499999999873e+01 8.434819999999999141e+01 1.595440000000000055e+03
6.099999999999999867e-02 7.585480000000000000e-01 1.899280000000000257e+01 8.748139999999999361e+01 1.596325000000000045e+03
6.199999999999999956e-02 7.593754999999999811e-01 2.028640000000000043e+01 9.057984999999999332e+01 1.597200000000000045e+03
6.300000000000000044e-02 7.601864999999999872e-01 2.153085000000000093e+01 9.362264999999999304e+01 1.598075000000000045e+03
6.400000000000000133e-02 7.609779999999999323e-01 2.271910000000000096e+01 9.659424999999998818e+01 1.598929999999999836e+03
6.500000000000000222e-02 7.617490000000000094e-01 2.384680000000000177e+01 9.948509999999998854e+01 1.599769999999999982e+03
6.600000000000000311e-02 7.624990000000000379e-01 2.491140000000000043e+01 1.022895999999999930e+02 1.600590000000000146e+03
6.700000000000000400e-02 7.632289999999999353e-01 2.591145000000000209e+01 1.050076499999999982e+02 1.601389999999999873e+03
6.800000000000000488e-02 7.639385000000000758e-01 2.684655000000000058e+01 1.076397499999999923e+02 1.602164999999999964e+03
6.900000000000000577e-02 7.646290000000000031e-01 2.771630000000000038e+01 1.101895000000000095e+02 1.602924999999999955e+03
7.000000000000000666e-02 7.653004999999999391e-01 2.852049999999999841e+01 1.126595000000000084e+02 1.603659999999999854e+03
7.100000000000000755e-02 7.659540000000000237e-01 2.925860000000000127e+01 1.150519999999999925e+02 1.604380000000000109e+03
7.200000000000000844e-02 7.665885000000000060e-01 2.992970000000000041e+01 1.173684999999999974e+02 1.605069999999999936e+03
7.300000000000000933e-02 7.672030000000000793e-01 3.053229999999999933e+01 1.196074999999999875e+02 1.605744999999999891e+03
7.399999999999999634e-02 7.677970000000000628e-01 3.106455000000000055e+01 1.217675000000000125e+02 1.606394999999999982e+03
7.499999999999999722e-02 7.683679999999999399e-01 3.152429999999999666e+01 1.238430000000000035e+02 1.607025000000000091e+03
7.599999999999999811e-02 7.689140000000000974e-01 3.190944999999999965e+01 1.258289999999999935e+02 1.607630000000000109e+03
7.699999999999999900e-02 7.694339999999999513e-01 3.221779999999999688e+01 1.277180000000000035e+02 1.608204999999999927e+03
7.799999999999999989e-02 7.699245000000000116e-01 3.244790000000000418e+01 1.295035000000000025e+02 1.608755000000000109e+03
7.900000000000000078e-02 7.703845000000000276e-01 3.259864999999999924e+01 1.311779999999999973e+02 1.609269999999999982e+03
8.000000000000000167e-02 7.708124999999999005e-01 3.267005000000000337e+01 1.327350000000000136e+02 1.609760000000000218e+03
8.100000000000000255e-02 7.712060000000000581e-01 3.266270000000000095e+01 1.341694999999999993e+02 1.610214999999999918e+03
8.200000000000000344e-02 7.715659999999999741e-01 3.257800000000000296e+01 1.354770000000000039e+02 1.610630000000000109e+03
8.300000000000000433e-02 7.718910000000001048e-01 3.241834999999999667e+01 1.366554999999999893e+02 1.611005000000000109e+03
8.400000000000000522e-02 7.721810000000000063e-01 3.218654999999999688e+01 1.377029999999999745e+02 1.611349999999999909e+03
8.500000000000000611e-02 7.724364999999999704e-01 3.188584999999999781e+01 1.386204999999999927e+02 1.611650000000000091e+03
8.600000000000000699e-02 7.726574999999999971e-01 3.152004999999999768e+01 1.394085000000000036e+02 1.611920000000000073e+03
8.700000000000000788e-02 7.728450000000000042e-01 3.109309999999999974e+01 1.400695000000000050e+02 1.612150000000000091e+03
8.800000000000000877e-02 7.729995000000000616e-01 3.060924999999999940e+01 1.406069999999999993e+02 1.612344999999999800e+03
8.899999999999999578e-02 7.731224999999999348e-01 3.007315000000000182e+01 1.410250000000000057e+02 1.612494999999999891e+03
8.999999999999999667e-02 7.732144999999999158e-01 2.948959999999999937e+01 1.413280000000000030e+02 1.612619999999999891e+03
9.099999999999999756e-02 7.732775000000000620e-01 2.886399999999999721e+01 1.415225000000000080e+02 1.612710000000000036e+03
9.199999999999999845e-02 7.733134999999999870e-01 2.820210000000000150e+01 1.416150000000000091e+02 1.612769999999999982e+03
9.299999999999999933e-02 7.733250000000000401e-01 2.751004999999999967e+01 1.416145000000000209e+02 1.612800000000000182e+03
9.400000000000000022e-02 7.733140000000000569e-01 2.679445000000000121e+01 1.415285000000000082e+02 1.612800000000000182e+03
9.500000000000000111e-02 7.732835000000000125e-01 2.606190000000000140e+01 1.413684999999999832e+02 1.612779999999999973e+03
9.600000000000000200e-02 7.732364999999999933e-01 2.531944999999999979e+01 1.411440000000000055e+02 1.612735000000000127e+03
9.700000000000000289e-02 7.731759999999999744e-01 2.457375000000000043e+01 1.408654999999999973e+02 1.612670000000000073e+03
9.800000000000000377e-02 7.731045000000000833e-01 2.383109999999999928e+01 1.405450000000000159e+02 1.612599999999999909e+03
9.900000000000000466e-02 7.730245000000000033e-01 2.309734999999999872e+01 1.401920000000000073e+02 1.612509999999999991e+03
1.000000000000000056e-01 7.729390000000000427e-01 2.237729999999999819e+01 1.398160000000000025e+02 1.612409999999999854e+03
1.010000000000000064e-01 7.728490000000000082e-01 2.167490000000000094e+01 1.394250000000000114e+02 1.612305000000000064e+03
1.020000000000000073e-01 7.727570000000000272e-01 2.099289999999999878e+01 1.390255000000000223e+02 1.612195000000000164e+03
1.030000000000000082e-01 7.726625000000000298e-01 2.033290000000000219e+01 1.386239999999999952e+02 1.612079999999999927e+03
1.040000000000000091e-01 7.725674999999999626e-01 1.969545000000000101e+01 1.382214999999999918e+02 1.611964999999999918e+03
1.050000000000000100e-01 7.724714999999999776e-01 1.907985000000000042e+01 1.378209999999999980e+02 1.611844999999999800e+03
1.059999999999999970e-01 7.723740000000000050e-01 1.848470000000000013e+01 1.374225000000000136e+02 1.611730000000000018e+03
1.069999999999999979e-01 7.722750000000000448e-01 1.790769999999999840e+01 1.370235000000000127e+02 1.611610000000000127e+03
1.079999999999999988e-01 7.721724999999999284e-01 1.734595000000000198e+01 1.366225000000000023e+02 1.611490000000000009e+03
1.089999999999999997e-01 7.720664999999999889e-01 1.679619999999999891e+01 1.362160000000000082e+02 1.611369999999999891e+03
1.100000000000000006e-01 7.719555000000000167e-01 1.625489999999999924e+01 1.357994999999999948e+02 1.611244999999999891e+03
1.110000000000000014e-01 7.718389999999999418e-01 1.571859999999999857e+01 1.353700000000000045e+02 1.611115000000000009e+03
1.120000000000000023e-01 7.717154999999999987e-01 1.518365000000000009e+01 1.349239999999999782e+02 1.610984999999999900e+03
1.130000000000000032e-01 7.715844999999998954e-01 1.464685000000000059e+01 1.344575000000000102e+02 1.610849999999999909e+03
1.140000000000000041e-01 7.714459999999999651e-01 1.410539999999999949e+01 1.339669999999999845e+02 1.610710000000000036e+03
1.150000000000000050e-01 7.712984999999999980e-01 1.355679999999999907e+01 1.334519999999999982e+02 1.610555000000000064e+03
1.160000000000000059e-01 7.711434999999999818e-01 1.299929500000000004e+01 1.329105000000000132e+02 1.610400000000000091e+03
1.170000000000000068e-01 7.709799999999999986e-01 1.243158000000000030e+01 1.323425000000000011e+02 1.610240000000000009e+03
1.180000000000000077e-01 7.708094999999999253e-01 1.185328999999999944e+01 1.317500000000000000e+02 1.610069999999999936e+03
1.190000000000000085e-01 7.706330000000000124e-01 1.126468000000000025e+01 1.311349999999999909e+02 1.609894999999999982e+03
1.200000000000000094e-01 7.704509999999999970e-01 1.066685999999999979e+01 1.305014999999999930e+02 1.609710000000000036e+03
1.209999999999999964e-01 7.702660000000000062e-01 1.006164500000000039e+01 1.298530000000000086e+02 1.609525000000000091e+03
1.219999999999999973e-01 7.700789999999999580e-01 9.451534999999999798e+00 1.291970000000000027e+02 1.609335000000000036e+03
1.229999999999999982e-01 7.698929999999999385e-01 8.839774999999999494e+00 1.285395000000000039e+02 1.609150000000000091e+03
1.239999999999999991e-01 7.697095000000000464e-01 8.230005000000000237e+00 1.278880000000000052e+02 1.608964999999999918e+03
1.250000000000000000e-01 7.695319999999999938e-01 7.626339999999999897e+00 1.272510000000000048e+02 1.608780000000000200e+03
1.260000000000000009e-01 7.693615000000000315e-01 7.033079999999999998e+00 1.266359999999999957e+02 1.608599999999999909e+03
1.270000000000000018e-01 7.692004999999999537e-01 6.454709999999999503e+00 1.260519999999999925e+02 1.608424999999999955e+03
1.280000000000000027e-01 7.690525000000000277e-01 5.895559999999999690e+00 1.255064999999999884e+02 1.608264999999999873e+03
1.290000000000000036e-01 7.689174999999999205e-01 5.359740000000000393e+00 1.250060000000000002e+02 1.608119999999999891e+03
1.300000000000000044e-01 7.687990000000000101e-01 4.850964999999999527e+00 1.245575000000000045e+02 1.607980000000000018e+03
1.310000000000000053e-01 7.686965000000000048e-01 4.372415000000000163e+00 1.241664999999999992e+02 1.607860000000000127e+03
1.320000000000000062e-01 7.686115000000000030e-01 3.926604999999999901e+00 1.238359999999999985e+02 1.607750000000000000e+03
1.330000000000000071e-01 7.685454999999999925e-01 3.515309999999999491e+00 1.235690000000000026e+02 1.607664999999999964e+03
1.340000000000000080e-01 7.684964999999999158e-01 3.139499999999999957e+00 1.233659999999999997e+02 1.607595000000000027e+03
1.350000000000000089e-01 7.684649999999999537e-01 2.799344999999999750e+00 1.232249999999999943e+02 1.607545000000000073e+03
1.360000000000000098e-01 7.684505000000000363e-01 2.494225000000000136e+00 1.231449999999999960e+02 1.607505000000000109e+03
1.370000000000000107e-01 7.684505000000000363e-01 2.222815000000000207e+00 1.231214999999999975e+02 1.607485000000000127e+03
1.380000000000000115e-01 7.684640000000000359e-01 1.983140000000000125e+00 1.231484999999999985e+02 1.607480000000000018e+03
1.390000000000000124e-01 7.684895000000000476e-01 1.772710000000000008e+00 1.232210000000000036e+02 1.607490000000000009e+03
1.400000000000000133e-01 7.685239999999999849e-01 1.588645000000000085e+00 1.233315000000000055e+02 1.607509999999999991e+03
1.410000000000000142e-01 7.685665000000000413e-01 1.427789999999999893e+00 1.234724999999999966e+02 1.607539999999999964e+03
1.420000000000000151e-01 7.686140000000000194e-01 1.286860000000000115e+00 1.236370000000000005e+02 1.607575000000000045e+03
1.430000000000000160e-01 7.686650000000000427e-01 1.162541000000000047e+00 1.238170000000000073e+02 1.607619999999999891e+03
1.440000000000000169e-01 7.687174999999999425e-01 1.051590000000000025e+00 1.240060000000000002e+02 1.607670000000000073e+03
1.450000000000000178e-01 7.687699999999999534e-01 9.509379999999999500e-01 1.241959999999999980e+02 1.607715000000000146e+03
1.459999999999999909e-01 7.688209999999999766e-01 8.577230000000000132e-01 1.243820000000000050e+02 1.607769999999999982e+03
1.469999999999999918e-01 7.688684999999999548e-01 7.693605000000000027e-01 1.245589999999999975e+02 1.607815000000000055e+03
1.479999999999999927e-01 7.689120000000000399e-01 6.835765000000000313e-01 1.247210000000000036e+02 1.607860000000000127e+03
1.489999999999999936e-01 7.689505000000000923e-01 5.984190000000000342e-01 1.248659999999999997e+02 1.607900000000000091e+03
1.499999999999999944e-01 7.689829999999999721e-01 5.122605000000000075e-01 1.249904999999999973e+02 1.607940000000000055e+03
1.509999999999999953e-01 7.690099999999999714e-01 4.238195000000000157e-01 1.250919999999999987e+02 1.607965000000000146e+03
1.519999999999999962e-01 7.690299999999999914e-01 3.321370000000000156e-01 1.251700000000000017e+02 1.607990000000000009e+03
1.529999999999999971e-01 7.690440000000000609e-01 2.365708499999999992e-01 1.252229999999999990e+02 1.608009999999999991e+03
1.539999999999999980e-01 7.690510000000000401e-01 1.367755999999999972e-01 1.252514999999999930e+02 1.608019999999999982e+03
1.549999999999999989e-01 7.690525000000000277e-01 3.267604999999999815e-02 1.252554999999999978e+02 1.608025000000000091e+03
1.559999999999999998e-01 7.690470000000000361e-01 -7.556424999999999947e-02 1.252369999999999948e+02 1.608025000000000091e+03
1.570000000000000007e-01 7.690365000000000117e-01 -1.875793000000000044e-01 1.251954999999999956e+02 1.608019999999999982e+03
1.580000000000000016e-01 7.690204999999999957e-01 -3.028390000000000248e-01 1.251345000000000027e+02 1.608005000000000109e+03
1.590000000000000024e-01 7.689995000000000580e-01 -4.206945000000000268e-01 1.250534999999999997e+02 1.607985000000000127e+03
