# t [s], A [cm^2], U [cm/s], P [cPa], c [cm/s]
1.000000000000000021e-03 1.526124999999999843e-01 2.170874999999999888e-01 1.032445000000000022e+02 1.826210000000000036e+03
2.000000000000000042e-03 1.525910000000000044e-01 1.676853499999999997e+00 1.004432000000000045e+02 1.826000000000000000e+03
3.000000000000000062e-03 1.524969999999999937e-01 3.512433999999999834e+00 9.675614999999999100e+01 1.825159999999999854e+03
4.000000000000000083e-03 1.523510000000000142e-01 5.562008500000000133e+00 9.248564999999999259e+01 1.823880000000000109e+03
5.000000000000000104e-03 1.521770000000000067e-01 7.773529999999999163e+00 8.827819999999999823e+01 1.822364999999999782e+03
6.000000000000000125e-03 1.519949999999999912e-01 1.006239500000000042e+01 8.455095000000000027e+01 1.820800000000000182e+03
7.000000000000000146e-03 1.518169999999999797e-01 1.229223999999999961e+01 8.137690000000000623e+01 1.819279999999999973e+03
8.000000000000000167e-03 1.516470000000000040e-01 1.433234999999999992e+01 7.860710000000000264e+01 1.817849999999999909e+03
9.000000000000001055e-03 1.514874999999999972e-01 1.612714000000000070e+01 7.611299999999999955e+01 1.816525000000000091e+03
1.000000000000000194e-02 1.513424999999999909e-01 1.768795000000000073e+01 7.389400000000000546e+01 1.815340000000000146e+03
1.099999999999999936e-02 1.512140000000000151e-01 1.903790000000000049e+01 7.199004999999999654e+01 1.814300000000000182e+03
1.200000000000000025e-02 1.511025000000000007e-01 2.019050000000000011e+01 7.040354999999999563e+01 1.813409999999999854e+03
1.300000000000000114e-02 1.510084999999999900e-01 2.115500000000000114e+01 6.910405000000000086e+01 1.812659999999999854e+03
1.400000000000000203e-02 1.509294999999999942e-01 2.193840000000000146e+01 6.804404999999999859e+01 1.812034999999999854e+03
1.499999999999999944e-02 1.508634999999999837e-01 2.254525000000000290e+01 6.716094999999999970e+01 1.811529999999999973e+03
1.600000000000000033e-02 1.508079999999999976e-01 2.298859999999999815e+01 6.639809999999999945e+01 1.811105000000000018e+03
1.700000000000000122e-02 1.507614999999999927e-01 2.330685000000000073e+01 6.575164999999999793e+01 1.810759999999999991e+03
1.800000000000000211e-02 1.507249999999999979e-01 2.356794999999999973e+01 6.530214999999999748e+01 1.810490000000000009e+03
1.900000000000000300e-02 1.507020000000000026e-01 2.385305000000000319e+01 6.519544999999999391e+01 1.810324999999999818e+03
2.000000000000000042e-02 1.506969999999999976e-01 2.422809999999999775e+01 6.557665000000000077e+01 1.810300000000000182e+03
2.100000000000000130e-02 1.507120000000000126e-01 2.471989999999999910e+01 6.651490000000001146e+01 1.810430000000000064e+03
2.200000000000000219e-02 1.507474999999999787e-01 2.530709999999999837e+01 6.795884999999999820e+01 1.810720000000000027e+03
2.299999999999999961e-02 1.507995000000000030e-01 2.592880000000000251e+01 6.973905000000000598e+01 1.811144999999999982e+03
2.400000000000000050e-02 1.508615000000000095e-01 2.650525000000000020e+01 7.161249999999999716e+01 1.811650000000000091e+03
2.500000000000000139e-02 1.509260000000000046e-01 2.696130000000000138e+01 7.332675000000000409e+01 1.812184999999999945e+03
2.600000000000000228e-02 1.509864999999999957e-01 2.724520000000000053e+01 7.468149999999999977e+01 1.812690000000000055e+03
2.700000000000000316e-02 1.510365000000000180e-01 2.733885000000000076e+01 7.556925000000001091e+01 1.813115000000000009e+03
2.800000000000000058e-02 1.510730000000000128e-01 2.725685000000000002e+01 7.598669999999999902e+01 1.813429999999999836e+03
2.900000000000000147e-02 1.510960000000000081e-01 2.703744999999999976e+01 7.601734999999999332e+01 1.813634999999999991e+03
3.000000000000000236e-02 1.511080000000000201e-01 2.672865000000000180e+01 7.579479999999999507e+01 1.813744999999999891e+03
3.099999999999999978e-02 1.511115000000000097e-01 2.637375000000000114e+01 7.545824999999999250e+01 1.813789999999999964e+03
3.200000000000000067e-02 1.511109999999999953e-01 2.600159999999999982e+01 7.511590000000001055e+01 1.813795000000000073e+03
3.300000000000000155e-02 1.511079999999999923e-01 2.562185000000000201e+01 7.482229999999999848e+01 1.813775000000000091e+03
3.400000000000000244e-02 1.511039999999999883e-01 2.522745000000000104e+01 7.457595000000000596e+01 1.813744999999999891e+03
3.500000000000000333e-02 1.510989999999999833e-01 2.480105000000000004e+01 7.433250000000001023e+01 1.813710000000000036e+03
3.600000000000000422e-02 1.510914999999999897e-01 2.432399999999999807e+01 7.402870000000000061e+01 1.813650000000000091e+03
3.700000000000000511e-02 1.510805000000000065e-01 2.378480000000000061e+01 7.360925000000000296e+01 1.813565000000000055e+03
3.799999999999999906e-02 1.510640000000000038e-01 2.318585000000000207e+01 7.304914999999999736e+01 1.813440000000000055e+03
3.899999999999999994e-02 1.510429999999999828e-01 2.254529999999999745e+01 7.236709999999999354e+01 1.813275000000000091e+03
4.000000000000000083e-02 1.510190000000000143e-01 2.189625000000000199e+01 7.162640000000000384e+01 1.813085000000000036e+03
4.100000000000000172e-02 1.509929999999999883e-01 2.128065000000000140e+01 7.092419999999999902e+01 1.812875000000000000e+03
4.200000000000000261e-02 1.509695000000000065e-01 2.074195000000000277e+01 7.037179999999999325e+01 1.812690000000000055e+03
4.300000000000000350e-02 1.509520000000000028e-01 2.031680000000000064e+01 7.007159999999998945e+01 1.812545000000000073e+03
4.400000000000000439e-02 1.509429999999999938e-01 2.002839999999999776e+01 7.009515000000000384e+01 1.812464999999999918e+03
4.499999999999999833e-02 1.509449999999999958e-01 1.988214999999999932e+01 7.046864999999999668e+01 1.812474999999999909e+03
4.599999999999999922e-02 1.509584999999999955e-01 1.986514999999999986e+01 7.116745000000000232e+01 1.812570000000000164e+03
4.700000000000000011e-02 1.509824999999999917e-01 1.994859999999999900e+01 7.211979999999999791e+01 1.812755000000000109e+03
4.800000000000000100e-02 1.510150000000000103e-01 2.009260000000000090e+01 7.321930000000000405e+01 1.813009999999999991e+03
4.900000000000000189e-02 1.510525000000000062e-01 2.025200000000000244e+01 7.434139999999999304e+01 1.813304999999999836e+03
5.000000000000000278e-02 1.510900000000000021e-01 2.038230000000000075e+01 7.536095000000000255e+01 1.813610000000000127e+03
5.100000000000000366e-02 1.511254999999999959e-01 2.044460000000000122e+01 7.616835000000000377e+01 1.813894999999999982e+03
5.200000000000000455e-02 1.511540000000000106e-01 2.040885000000000105e+01 7.668039999999999168e+01 1.814130000000000109e+03
5.300000000000000544e-02 1.511730000000000018e-01 2.025565000000000282e+01 7.684655000000000769e+01 1.814284999999999854e+03
5.399999999999999939e-02 1.511804999999999954e-01 1.997610000000000241e+01 7.664950000000000330e+01 1.814349999999999909e+03
5.500000000000000028e-02 1.511755000000000182e-01 1.957065000000000055e+01 7.610079999999999245e+01 1.814320000000000164e+03
5.600000000000000117e-02 1.511585000000000012e-01 1.904664999999999964e+01 7.523425000000000296e+01 1.814184999999999945e+03
5.700000000000000205e-02 1.511290000000000133e-01 1.841680000000000206e+01 7.409805000000000064e+01 1.813960000000000036e+03
5.800000000000000294e-02 1.510900000000000021e-01 1.769635000000000247e+01 7.274684999999999491e+01 1.813644999999999982e+03
5.900000000000000383e-02 1.510420000000000096e-01 1.690214999999999890e+01 7.123625000000001251e+01 1.813259999999999991e+03
6.000000000000000472e-02 1.509869999999999823e-01 1.605160000000000053e+01 6.961875000000000568e+01 1.812815000000000055e+03
6.099999999999999867e-02 1.509265000000000190e-01 1.516234999999999999e+01 6.794254999999999711e+01 1.812335000000000036e+03
6.199999999999999956e-02 1.508629999999999971e-01 1.425254999999999939e+01 6.625175000000000125e+01 1.811815000000000055e+03
6.300000000000000044e-02 1.507970000000000144e-01 1.334120000000000061e+01 6.458789999999999054e+01 1.811289999999999964e+03
6.400000000000000133e-02 1.507310000000000039e-01 1.244862000000000002e+01 6.299219999999999686e+01 1.810755000000000109e+03
6.500000000000000222e-02 1.506675000000000098e-01 1.159645500000000062e+01 6.150699999999999790e+01 1.810240000000000009e+03
6.600000000000000311e-02 1.506069999999999909e-01 1.080772999999999939e+01 6.017685000000000173e+01 1.809740000000000009e+03
6.700000000000000400e-02 1.505520000000000191e-01 1.010652499999999954e+01 5.904850000000000421e+01 1.809295000000000073e+03
6.800000000000000488e-02 1.505039999999999989e-01 9.517020000000000479e+00 5.816980000000000217e+01 1.808904999999999973e+03
6.900000000000000577e-02 1.504655000000000020e-01 9.062590000000000146e+00 5.758769999999999811e+01 1.808579999999999927e+03
7.000000000000000666e-02 1.504380000000000162e-01 8.764775000000000205e+00 5.734605000000000530e+01 1.808349999999999909e+03
7.100000000000000755e-02 1.504234999999999878e-01 8.642065000000000552e+00 5.748245000000000005e+01 1.808224999999999909e+03
7.200000000000000844e-02 1.504234999999999878e-01 8.708895000000000053e+00 5.802590000000000003e+01 1.808215000000000146e+03
7.300000000000000933e-02 1.504389999999999894e-01 8.974899999999999878e+00 5.899474999999999625e+01 1.808324999999999818e+03
7.399999999999999634e-02 1.504709999999999936e-01 9.444400000000001683e+00 6.039549999999999841e+01 1.808569999999999936e+03
7.499999999999999722e-02 1.505194999999999728e-01 1.011622000000000021e+01 6.222200000000000131e+01 1.808949999999999818e+03
7.599999999999999811e-02 1.505849999999999966e-01 1.098385000000000034e+01 6.445605000000000473e+01 1.809464999999999918e+03
7.699999999999999900e-02 1.506669999999999954e-01 1.203582499999999911e+01 6.706839999999999691e+01 1.810115000000000009e+03
7.799999999999999989e-02 1.507644999999999957e-01 1.325635000000000119e+01 7.002070000000000505e+01 1.810889999999999873e+03
7.900000000000000078e-02 1.508754999999999957e-01 1.462630000000000052e+01 7.326744999999999663e+01 1.811779999999999973e+03
8.000000000000000167e-02 1.509999999999999953e-01 1.612405000000000044e+01 7.675884999999999536e+01 1.812779999999999973e+03
8.100000000000000255e-02 1.511350000000000193e-01 1.772635000000000005e+01 8.044294999999999618e+01 1.813865000000000009e+03
8.200000000000000344e-02 1.512784999999999824e-01 1.940964999999999918e+01 8.426849999999998886e+01 1.815029999999999973e+03
8.300000000000000433e-02 1.514294999999999947e-01 2.115060000000000073e+01 8.818690000000000850e+01 1.816255000000000109e+03
8.400000000000000522e-02 1.515854999999999841e-01 2.292734999999999701e+01 9.215430000000000632e+01 1.817525000000000091e+03
8.500000000000000611e-02 1.517455000000000054e-01 2.471979999999999933e+01 9.613304999999999723e+01 1.818829999999999927e+03
8.600000000000000699e-02 1.519070000000000142e-01 2.651055000000000206e+01 1.000928000000000111e+02 1.820150000000000091e+03
8.700000000000000788e-02 1.520695000000000241e-01 2.828470000000000084e+01 1.040099500000000035e+02 1.821485000000000127e+03
8.800000000000000877e-02 1.522314999999999918e-01 3.003040000000000020e+01 1.078700000000000045e+02 1.822820000000000164e+03
8.899999999999999578e-02 1.523930000000000007e-01 3.173870000000000147e+01 1.116630000000000109e+02 1.824150000000000091e+03
8.999999999999999667e-02 1.525529999999999942e-01 3.340299999999999869e+01 1.153875000000000028e+02 1.825470000000000027e+03
9.099999999999999756e-02 1.527104999999999990e-01 3.501924999999999955e+01 1.190444999999999993e+02 1.826780000000000200e+03
9.199999999999999845e-02 1.528665000000000163e-01 3.658480000000000132e+01 1.226384999999999934e+02 1.828075000000000045e+03
9.299999999999999933e-02 1.530205000000000037e-01 3.809850000000000136e+01 1.261765000000000043e+02 1.829355000000000018e+03
9.400000000000000022e-02 1.531730000000000036e-01 3.955989999999999895e+01 1.296645000000000039e+02 1.830625000000000000e+03
9.500000000000000111e-02 1.533235000000000015e-01 4.096885000000000332e+01 1.331075000000000159e+02 1.831880000000000109e+03
9.600000000000000200e-02 1.534725000000000117e-01 4.232505000000000450e+01 1.365090000000000146e+02 1.833119999999999891e+03
9.700000000000000289e-02 1.536199999999999788e-01 4.362800000000000011e+01 1.398694999999999879e+02 1.834355000000000018e+03
9.800000000000000377e-02 1.537654999999999994e-01 4.487635000000000218e+01 1.431854999999999905e+02 1.835570000000000164e+03
9.900000000000000466e-02 1.539095000000000046e-01 4.606824999999999903e+01 1.464524999999999864e+02 1.836779999999999973e+03
1.000000000000000056e-01 1.540515000000000079e-01 4.720104999999999507e+01 1.496614999999999895e+02 1.837974999999999909e+03
1.010000000000000064e-01 1.541905000000000081e-01 4.827145000000000152e+01 1.528000000000000114e+02 1.839144999999999982e+03
1.020000000000000073e-01 1.543275000000000063e-01 4.927544999999999931e+01 1.558559999999999945e+02 1.840299999999999955e+03
1.030000000000000082e-01 1.544610000000000150e-01 5.020870000000000033e+01 1.588140000000000214e+02 1.841424999999999955e+03
1.040000000000000091e-01 1.545905000000000196e-01 5.106640000000000157e+01 1.616595000000000084e+02 1.842519999999999982e+03
1.050000000000000100e-01 1.547159999999999924e-01 5.184375000000000000e+01 1.643760000000000048e+02 1.843570000000000164e+03
1.059999999999999970e-01 1.548355000000000148e-01 5.253600000000000136e+01 1.669484999999999957e+02 1.844590000000000146e+03
1.069999999999999979e-01 1.549500000000000044e-01 5.313835000000000264e+01 1.693619999999999948e+02 1.845559999999999945e+03
1.079999999999999988e-01 1.550580000000000014e-01 5.364659999999999940e+01 1.716034999999999968e+02 1.846474999999999909e+03
1.089999999999999997e-01 1.551589999999999914e-01 5.405715000000000003e+01 1.736599999999999966e+02 1.847340000000000146e+03
1.100000000000000006e-01 1.552530000000000021e-01 5.436674999999999613e+01 1.755225000000000080e+02 1.848139999999999873e+03
1.110000000000000014e-01 1.553390000000000049e-01 5.457339999999999947e+01 1.771825000000000045e+02 1.848875000000000000e+03
1.120000000000000023e-01 1.554169999999999996e-01 5.467579999999999529e+01 1.786355000000000075e+02 1.849539999999999964e+03
1.130000000000000032e-01 1.554860000000000131e-01 5.467385000000000161e+01 1.798770000000000095e+02 1.850134999999999991e+03
1.140000000000000041e-01 1.555465000000000042e-01 5.456860000000000355e+01 1.809074999999999989e+02 1.850660000000000082e+03
1.150000000000000050e-01 1.555989999999999873e-01 5.436249999999999716e+01 1.817300000000000182e+02 1.851115000000000009e+03
1.160000000000000059e-01 1.556425000000000169e-01 5.405915000000000248e+01 1.823499999999999943e+02 1.851494999999999891e+03
1.170000000000000068e-01 1.556784999999999974e-01 5.366355000000000075e+01 1.827764999999999986e+02 1.851800000000000182e+03
1.180000000000000077e-01 1.557049999999999823e-01 5.318184999999999718e+01 1.830210000000000150e+02 1.852039999999999964e+03
1.190000000000000085e-01 1.557250000000000023e-01 5.262134999999999962e+01 1.830960000000000036e+02 1.852214999999999918e+03
1.200000000000000094e-01 1.557370000000000143e-01 5.199030000000000484e+01 1.830190000000000055e+02 1.852324999999999818e+03
1.209999999999999964e-01 1.557425000000000059e-01 5.129760000000000275e+01 1.828070000000000164e+02 1.852384999999999991e+03
1.219999999999999973e-01 1.557419999999999916e-01 5.055275000000000318e+01 1.824780000000000086e+02 1.852384999999999991e+03
1.229999999999999982e-01 1.557359999999999856e-01 4.976525000000000176e+01 1.820504999999999995e+02 1.852345000000000027e+03
1.239999999999999991e-01 1.557255000000000167e-01 4.894480000000000075e+01 1.815434999999999945e+02 1.852259999999999991e+03
1.250000000000000000e-01 1.557109999999999883e-01 4.810065000000000168e+01 1.809739999999999895e+02 1.852144999999999982e+03
1.260000000000000009e-01 1.556934999999999847e-01 4.724139999999999873e+01 1.803580000000000041e+02 1.852000000000000000e+03
1.270000000000000018e-01 1.556734999999999924e-01 4.637505000000000166e+01 1.797110000000000127e+02 1.851835000000000036e+03
1.280000000000000027e-01 1.556509999999999838e-01 4.550860000000000127e+01 1.790444999999999993e+02 1.851644999999999982e+03
1.290000000000000036e-01 1.556269999999999876e-01 4.464789999999999992e+01 1.783684999999999832e+02 1.851444999999999936e+03
1.300000000000000044e-01 1.556019999999999903e-01 4.379775000000000063e+01 1.776899999999999977e+02 1.851234999999999900e+03
1.310000000000000053e-01 1.555769999999999931e-01 4.296164999999999878e+01 1.770144999999999982e+02 1.851025000000000091e+03
1.320000000000000062e-01 1.555504999999999804e-01 4.214189999999999969e+01 1.763439999999999941e+02 1.850805000000000064e+03
1.330000000000000071e-01 1.555245000000000100e-01 4.133974999999999511e+01 1.756784999999999854e+02 1.850579999999999927e+03
1.340000000000000080e-01 1.554975000000000107e-01 4.055519999999999925e+01 1.750165000000000077e+02 1.850349999999999909e+03
1.350000000000000089e-01 1.554705000000000115e-01 3.978739999999999810e+01 1.743530000000000086e+02 1.850119999999999891e+03
1.360000000000000098e-01 1.554429999999999978e-01 3.903459999999999752e+01 1.736845000000000141e+02 1.849889999999999873e+03
1.370000000000000107e-01 1.554154999999999842e-01 3.829435000000000144e+01 1.730029999999999859e+02 1.849655000000000200e+03
1.380000000000000115e-01 1.553869999999999973e-01 3.756359999999999388e+01 1.723025000000000091e+02 1.849410000000000082e+03
1.390000000000000124e-01 1.553574999999999817e-01 3.683910000000000196e+01 1.715755000000000052e+02 1.849159999999999854e+03
1.400000000000000133e-01 1.553269999999999929e-01 3.611724999999999852e+01 1.708140000000000214e+02 1.848904999999999973e+03
1.410000000000000142e-01 1.552950000000000164e-01 3.539450000000000074e+01 1.700109999999999957e+02 1.848630000000000109e+03
1.420000000000000151e-01 1.552614999999999967e-01 3.466745000000000232e+01 1.691599999999999966e+02 1.848345000000000027e+03
1.430000000000000160e-01 1.552255000000000162e-01 3.393294999999999817e+01 1.682554999999999836e+02 1.848045000000000073e+03
1.440000000000000169e-01 1.551885000000000070e-01 3.318834999999999980e+01 1.672934999999999945e+02 1.847724999999999909e+03
1.450000000000000178e-01 1.551484999999999947e-01 3.243149999999999977e+01 1.662700000000000102e+02 1.847389999999999873e+03
1.459999999999999909e-01 1.551060000000000216e-01 3.166105000000000302e+01 1.651850000000000023e+02 1.847034999999999854e+03
1.469999999999999918e-01 1.550610000000000044e-01 3.087634999999999863e+01 1.640384999999999991e+02 1.846654999999999973e+03
1.479999999999999927e-01 1.550139999999999851e-01 3.007744999999999891e+01 1.628319999999999936e+02 1.846255000000000109e+03
1.489999999999999936e-01 1.549645000000000050e-01 2.926539999999999964e+01 1.615699999999999932e+02 1.845840000000000146e+03
1.499999999999999944e-01 1.549119999999999941e-01 2.844205000000000183e+01 1.602579999999999814e+02 1.845404999999999973e+03
1.509999999999999953e-01 1.548579999999999957e-01 2.761005000000000109e+01 1.589050000000000011e+02 1.844949999999999818e+03
1.519999999999999962e-01 1.548019999999999952e-01 2.677295000000000158e+01 1.575174999999999841e+02 1.844480000000000018e+03
1.529999999999999971e-01 1.547450000000000214e-01 2.593469999999999942e+01 1.561080000000000041e+02 1.844005000000000109e+03
1.539999999999999980e-01 1.546865000000000046e-01 2.510004999999999953e+01 1.546870000000000118e+02 1.843509999999999991e+03
1.549999999999999989e-01 1.546275000000000011e-01 2.427409999999999712e+01 1.532669999999999959e+02 1.843014999999999873e+03
1.559999999999999998e-01 1.545684999999999976e-01 2.346219999999999928e+01 1.518600000000000136e+02 1.842519999999999982e+03
1.570000000000000007e-01 1.545100000000000084e-01 2.266965000000000074e+01 1.504784999999999968e+02 1.842025000000000091e+03
1.580000000000000016e-01 1.544515000000000193e-01 2.190200000000000102e+01 1.491345000000000027e+02 1.841534999999999854e+03
1.590000000000000024e-01 1.543950000000000045e-01 2.116420000000000101e+01 1.478394999999999868e+02 1.841059999999999945e+03
