# t [s], A [cm^2], U [cm/s], P [cPa], c [cm/s]
1.000000000000000021e-03 2.125365000000000171e-01 5.008635500000000462e-01 9.688384999999999536e+01 2.213389999999999873e+03
2.000000000000000042e-03 2.124469999999999970e-01 2.304685499999999720e+00 9.249834999999998786e+01 2.212784999999999854e+03
3.000000000000000062e-03 2.122509999999999952e-01 4.483132999999999591e+00 8.660935000000000628e+01 2.211500000000000000e+03
4.000000000000000083e-03 2.120119999999999783e-01 6.942210000000000214e+00 8.089535000000000764e+01 2.209944999999999709e+03
5.000000000000000104e-03 2.117795000000000094e-01 9.498339999999998895e+00 7.638639999999999475e+01 2.208454999999999927e+03
6.000000000000000125e-03 2.115670000000000051e-01 1.178405499999999861e+01 7.279229999999999734e+01 2.207114999999999782e+03
7.000000000000000146e-03 2.113740000000000063e-01 1.361314000000000135e+01 6.955589999999999407e+01 2.205929999999999836e+03
8.000000000000000167e-03 2.112089999999999801e-01 1.506875000000000142e+01 6.678709999999999525e+01 2.204930000000000291e+03
9.000000000000001055e-03 2.110750000000000126e-01 1.621180000000000021e+01 6.463214999999999577e+01 2.204125000000000000e+03
1.000000000000000194e-02 2.109699999999999909e-01 1.706834999999999880e+01 6.301775000000000659e+01 2.203514999999999873e+03
1.099999999999999936e-02 2.108929999999999971e-01 1.767784999999999940e+01 6.186899999999999977e+01 2.203059999999999945e+03
1.200000000000000025e-02 2.108355000000000090e-01 1.804834999999999923e+01 6.102604999999999791e+01 2.202734999999999673e+03
1.300000000000000114e-02 2.107899999999999774e-01 1.821394999999999698e+01 6.032110000000000127e+01 2.202485000000000127e+03
1.400000000000000203e-02 2.107605000000000173e-01 1.834980000000000189e+01 5.996885000000000332e+01 2.202335000000000036e+03
1.499999999999999944e-02 2.107630000000000059e-01 1.873264999999999958e+01 6.063859999999999673e+01 2.202364999999999782e+03
1.600000000000000033e-02 2.108180000000000054e-01 1.954619999999999891e+01 6.294150000000000489e+01 2.202690000000000055e+03
1.700000000000000122e-02 2.109294999999999920e-01 2.072124999999999773e+01 6.681389999999998963e+01 2.203359999999999673e+03
1.800000000000000211e-02 2.110775000000000012e-01 2.194379999999999953e+01 7.134880000000001132e+01 2.204250000000000000e+03
1.900000000000000300e-02 2.112244999999999817e-01 2.280940000000000012e+01 7.517420000000001323e+01 2.205154999999999745e+03
2.000000000000000042e-02 2.113300000000000178e-01 2.301624999999999943e+01 7.709569999999999368e+01 2.205824999999999818e+03
2.100000000000000130e-02 2.113674999999999859e-01 2.249519999999999698e+01 7.663165000000000759e+01 2.206095000000000255e+03
2.200000000000000219e-02 2.113360000000000238e-01 2.141939999999999955e+01 7.417799999999999727e+01 2.205940000000000055e+03
2.299999999999999961e-02 2.112545000000000117e-01 2.010054999999999836e+01 7.074949999999999761e+01 2.205465000000000146e+03
2.400000000000000050e-02 2.111554999999999960e-01 1.883794999999999931e+01 6.746875000000000000e+01 2.204875000000000000e+03
2.500000000000000139e-02 2.110664999999999902e-01 1.779994999999999905e+01 6.508735000000000070e+01 2.204319999999999709e+03
2.600000000000000228e-02 2.110005000000000075e-01 1.698730000000000118e+01 6.375639999999999930e+01 2.203909999999999854e+03
2.700000000000000316e-02 2.109575000000000200e-01 1.627580000000000027e+01 6.309980000000000189e+01 2.203639999999999873e+03
2.800000000000000058e-02 2.109225000000000128e-01 1.550394999999999968e+01 6.249479999999999791e+01 2.203420000000000073e+03
2.900000000000000147e-02 2.108804999999999985e-01 1.456344999999999956e+01 6.140950000000000131e+01 2.203170000000000073e+03
3.000000000000000236e-02 2.108220000000000094e-01 1.345850000000000080e+01 5.966079999999999472e+01 2.202819999999999709e+03
3.099999999999999978e-02 2.107479999999999909e-01 1.231475000000000009e+01 5.750605000000000189e+01 2.202380000000000109e+03
3.200000000000000067e-02 2.106729999999999992e-01 1.133625499999999953e+01 5.554420000000000357e+01 2.201920000000000073e+03
3.300000000000000155e-02 2.106164999999999843e-01 1.072963000000000022e+01 5.447395000000000209e+01 2.201569999999999709e+03
3.400000000000000244e-02 2.105990000000000084e-01 1.062534999999999918e+01 5.481350000000000477e+01 2.201434999999999945e+03
3.500000000000000333e-02 2.106304999999999983e-01 1.102919999999999945e+01 5.669414999999999338e+01 2.201604999999999563e+03
3.600000000000000422e-02 2.107089999999999796e-01 1.181609999999999872e+01 5.979995000000000260e+01 2.202055000000000291e+03
3.700000000000000511e-02 2.108194999999999930e-01 1.276419999999999888e+01 6.345524999999999949e+01 2.202715000000000146e+03
3.799999999999999906e-02 2.109380000000000144e-01 1.361079999999999934e+01 6.681045000000000300e+01 2.203430000000000291e+03
3.899999999999999994e-02 2.110380000000000034e-01 1.411120000000000019e+01 6.905400000000000205e+01 2.204039999999999964e+03
4.000000000000000083e-02 2.110934999999999895e-01 1.408389999999999986e+01 6.958570000000000277e+01 2.204390000000000327e+03
4.100000000000000172e-02 2.110879999999999979e-01 1.343459999999999965e+01 6.811400000000000432e+01 2.204380000000000109e+03
4.200000000000000261e-02 2.110144999999999937e-01 1.215806500000000057e+01 6.466665000000000418e+01 2.203954999999999927e+03
4.300000000000000350e-02 2.108754999999999935e-01 1.032225999999999999e+01 5.953144999999999953e+01 2.203130000000000109e+03
4.400000000000000439e-02 2.106800000000000062e-01 8.043760000000000687e+00 5.315664999999999907e+01 2.201960000000000036e+03
4.499999999999999833e-02 2.104425000000000046e-01 5.462032349999999425e+00 4.604635000000000389e+01 2.200529999999999745e+03
4.599999999999999922e-02 2.101800000000000057e-01 2.719814999999999650e+00 3.867839999999999634e+01 2.198940000000000055e+03
4.700000000000000011e-02 2.099075000000000246e-01 -4.842000000000012960e-02 3.145929999999999893e+01 2.197284999999999854e+03
4.800000000000000100e-02 2.096385000000000054e-01 -2.719854999999999912e+00 2.471389999999999887e+01 2.195644999999999982e+03
4.900000000000000189e-02 2.093860000000000166e-01 -5.182210500000000053e+00 1.870012499999999989e+01 2.194099999999999909e+03
5.000000000000000278e-02 2.091594999999999982e-01 -7.331220000000000070e+00 1.363218499999999977e+01 2.192710000000000036e+03
5.100000000000000366e-02 2.089670000000000138e-01 -9.069929999999999382e+00 9.699255000000000848e+00 2.191525000000000091e+03
5.200000000000000455e-02 2.088185000000000180e-01 -1.031097000000000108e+01 7.072095000000000020e+00 2.190599999999999909e+03
5.300000000000000544e-02 2.087195000000000022e-01 -1.098203999999999958e+01 5.894934999999999370e+00 2.189965000000000146e+03
5.399999999999999939e-02 2.086755000000000138e-01 -1.103324999999999889e+01 6.267655000000000420e+00 2.189670000000000073e+03
5.500000000000000028e-02 2.086899999999999866e-01 -1.044383499999999998e+01 8.224199999999999733e+00 2.189724999999999909e+03
5.600000000000000117e-02 2.087645000000000195e-01 -9.226549999999999585e+00 1.171620499999999865e+01 2.190144999999999982e+03
5.700000000000000205e-02 2.088960000000000261e-01 -7.428315000000000445e+00 1.660745000000000005e+01 2.190904999999999745e+03
5.800000000000000294e-02 2.090790000000000148e-01 -5.126501500000000711e+00 2.268165000000000120e+01 2.191984999999999673e+03
5.900000000000000383e-02 2.093065000000000064e-01 -2.421745000000000037e+00 2.966244999999999976e+01 2.193345000000000255e+03
6.000000000000000472e-02 2.095664999999999889e-01 5.707749999999998103e-01 3.724009999999999820e+01 2.194909999999999854e+03
6.099999999999999867e-02 2.098499999999999810e-01 3.730400000000000382e+00 4.509920000000000329e+01 2.196625000000000000e+03
6.199999999999999956e-02 2.101454999999999851e-01 6.938834999999999198e+00 5.294270000000000209e+01 2.198409999999999854e+03
6.300000000000000044e-02 2.104409999999999892e-01 1.008622499999999889e+01 6.050905000000000200e+01 2.200220000000000255e+03
6.400000000000000133e-02 2.107279999999999986e-01 1.307585500000000067e+01 6.758259999999999934e+01 2.201984999999999673e+03
6.500000000000000222e-02 2.109985000000000055e-01 1.582750000000000057e+01 7.399935000000000684e+01 2.203649999999999636e+03
6.600000000000000311e-02 2.112465000000000037e-01 1.828034999999999854e+01 7.965024999999999977e+01 2.205185000000000400e+03
6.700000000000000400e-02 2.114679999999999893e-01 2.039549999999999841e+01 8.448319999999999652e+01 2.206559999999999945e+03
6.800000000000000488e-02 2.116609999999999880e-01 2.215745000000000076e+01 8.850400000000000489e+01 2.207765000000000327e+03
6.900000000000000577e-02 2.118244999999999989e-01 2.357430000000000092e+01 9.177479999999999905e+01 2.208800000000000182e+03
7.000000000000000666e-02 2.119619999999999838e-01 2.467674999999999841e+01 9.440970000000000084e+01 2.209675000000000182e+03
7.100000000000000755e-02 2.120775000000000021e-01 2.551480000000000103e+01 9.656479999999999109e+01 2.210404999999999745e+03
7.200000000000000844e-02 2.121764999999999901e-01 2.615254999999999797e+01 9.842484999999999218e+01 2.211039999999999964e+03
7.300000000000000933e-02 2.122654999999999959e-01 2.666264999999999930e+01 1.001868499999999926e+02 2.211605000000000018e+03
7.399999999999999634e-02 2.123514999999999986e-01 2.711915000000000120e+01 1.020417500000000075e+02 2.212149999999999636e+03
7.499999999999999722e-02 2.124405000000000043e-01 2.759100000000000108e+01 1.041560000000000059e+02 2.212715000000000146e+03
7.599999999999999811e-02 2.125390000000000057e-01 2.813640000000000185e+01 1.066599999999999966e+02 2.213324999999999818e+03
7.699999999999999900e-02 2.126514999999999933e-01 2.879809999999999803e+01 1.096350000000000051e+02 2.214024999999999636e+03
7.799999999999999989e-02 2.127804999999999835e-01 2.960074999999999790e+01 1.131115000000000066e+02 2.214819999999999709e+03
7.900000000000000078e-02 2.129264999999999908e-01 3.054959999999999809e+01 1.170630000000000024e+02 2.215720000000000255e+03
8.000000000000000167e-02 2.130879999999999996e-01 3.163139999999999930e+01 1.214180000000000064e+02 2.216720000000000255e+03
8.100000000000000255e-02 2.132634999999999947e-01 3.281619999999999493e+01 1.260635000000000048e+02 2.217800000000000182e+03
8.200000000000000344e-02 2.134479999999999988e-01 3.406099999999999994e+01 1.308550000000000182e+02 2.218939999999999600e+03
8.300000000000000433e-02 2.136365000000000069e-01 3.531350000000000477e+01 1.356334999999999980e+02 2.220110000000000127e+03
8.400000000000000522e-02 2.138229999999999853e-01 3.651654999999999518e+01 1.402340000000000089e+02 2.221269999999999982e+03
8.500000000000000611e-02 2.140024999999999844e-01 3.761275000000000546e+01 1.445000000000000000e+02 2.222385000000000218e+03
8.600000000000000699e-02 2.141684999999999839e-01 3.854854999999999876e+01 1.482930000000000064e+02 2.223420000000000073e+03
8.700000000000000788e-02 2.143170000000000075e-01 3.927774999999999750e+01 1.515004999999999882e+02 2.224355000000000018e+03
8.800000000000000877e-02 2.144425000000000081e-01 3.976460000000000150e+01 1.540409999999999968e+02 2.225144999999999982e+03
8.899999999999999578e-02 2.145434999999999981e-01 3.998534999999999684e+01 1.558720000000000141e+02 2.225789999999999964e+03
8.999999999999999667e-02 2.146180000000000032e-01 3.992980000000000018e+01 1.569825000000000159e+02 2.226269999999999982e+03
9.099999999999999756e-02 2.146655000000000091e-01 3.960105000000000075e+01 1.573994999999999891e+02 2.226579999999999927e+03
9.199999999999999845e-02 2.146874999999999756e-01 3.901465000000000316e+01 1.571779999999999973e+02 2.226734999999999673e+03
9.299999999999999933e-02 2.146850000000000147e-01 3.819729999999999848e+01 1.563994999999999891e+02 2.226734999999999673e+03
9.400000000000000022e-02 2.146620000000000195e-01 3.718475000000000108e+01 1.551639999999999873e+02 2.226609999999999673e+03
9.500000000000000111e-02 2.146214999999999928e-01 3.601930000000000121e+01 1.535829999999999984e+02 2.226369999999999891e+03
9.600000000000000200e-02 2.145684999999999953e-01 3.474725000000000108e+01 1.517729999999999961e+02 2.226050000000000182e+03
9.700000000000000289e-02 2.145054999999999878e-01 3.341655000000000086e+01 1.498505000000000109e+02 2.225664999999999964e+03
9.800000000000000377e-02 2.144375000000000031e-01 3.207390000000000185e+01 1.479259999999999877e+02 2.225250000000000000e+03
9.900000000000000466e-02 2.143694999999999906e-01 3.076299999999999812e+01 1.460969999999999800e+02 2.224829999999999927e+03
1.000000000000000056e-01 2.143039999999999945e-01 2.952230000000000132e+01 1.444474999999999909e+02 2.224425000000000182e+03
1.010000000000000064e-01 2.142445000000000044e-01 2.838319999999999865e+01 1.430434999999999945e+02 2.224050000000000182e+03
1.020000000000000073e-01 2.141929999999999945e-01 2.736894999999999811e+01 1.419290000000000020e+02 2.223730000000000018e+03
1.030000000000000082e-01 2.141514999999999946e-01 2.649370000000000047e+01 1.411250000000000000e+02 2.223460000000000036e+03
1.040000000000000091e-01 2.141215000000000201e-01 2.576200000000000045e+01 1.406304999999999836e+02 2.223264999999999873e+03
1.050000000000000100e-01 2.141015000000000001e-01 2.516915000000000191e+01 1.404225000000000136e+02 2.223135000000000218e+03
1.059999999999999970e-01 2.140920000000000045e-01 2.470165000000000077e+01 1.404574999999999818e+02 2.223065000000000055e+03
1.069999999999999979e-01 2.140905000000000169e-01 2.433854999999999791e+01 1.406754999999999995e+02 2.223050000000000182e+03
1.079999999999999988e-01 2.140954999999999941e-01 2.405274999999999963e+01 1.410020000000000095e+02 2.223070000000000164e+03
1.089999999999999997e-01 2.141039999999999888e-01 2.381334999999999980e+01 1.413569999999999993e+02 2.223114999999999782e+03
1.100000000000000006e-01 2.141129999999999978e-01 2.358735000000000070e+01 1.416564999999999941e+02 2.223164999999999964e+03
1.110000000000000014e-01 2.141190000000000038e-01 2.334194999999999709e+01 1.418209999999999980e+02 2.223204999999999927e+03
1.120000000000000023e-01 2.141210000000000058e-01 2.304684999999999917e+01 1.417785000000000082e+02 2.223210000000000036e+03
1.130000000000000032e-01 2.141144999999999854e-01 2.267600000000000193e+01 1.414699999999999989e+02 2.223175000000000182e+03
1.140000000000000041e-01 2.140984999999999971e-01 2.220915000000000106e+01 1.408539999999999850e+02 2.223074999999999818e+03
1.150000000000000050e-01 2.140710000000000113e-01 2.163360000000000127e+01 1.399089999999999918e+02 2.222904999999999745e+03
1.160000000000000059e-01 2.140314999999999857e-01 2.094429999999999836e+01 1.386340000000000146e+02 2.222670000000000073e+03
1.170000000000000068e-01 2.139800000000000035e-01 2.014480000000000004e+01 1.370484999999999900e+02 2.222355000000000018e+03
1.180000000000000077e-01 2.139170000000000238e-01 1.924634999999999962e+01 1.351924999999999955e+02 2.221970000000000255e+03
1.190000000000000085e-01 2.138450000000000073e-01 1.826735000000000042e+01 1.331229999999999905e+02 2.221525000000000091e+03
1.200000000000000094e-01 2.137649999999999828e-01 1.723209999999999908e+01 1.309099999999999966e+02 2.221030000000000200e+03
1.209999999999999964e-01 2.136799999999999811e-01 1.616924999999999812e+01 1.286310000000000002e+02 2.220505000000000109e+03
1.219999999999999973e-01 2.135925000000000185e-01 1.510975000000000001e+01 1.263689999999999998e+02 2.219965000000000146e+03
1.229999999999999982e-01 2.135060000000000013e-01 1.408510000000000062e+01 1.242049999999999983e+02 2.219425000000000182e+03
1.239999999999999991e-01 2.134230000000000016e-01 1.312560000000000038e+01 1.222135000000000105e+02 2.218914999999999964e+03
1.250000000000000000e-01 2.133464999999999945e-01 1.225835000000000008e+01 1.204600000000000080e+02 2.218440000000000055e+03
1.260000000000000009e-01 2.132789999999999964e-01 1.150612500000000082e+01 1.189969999999999999e+02 2.218014999999999873e+03
1.270000000000000018e-01 2.132219999999999949e-01 1.088611500000000021e+01 1.178605000000000018e+02 2.217654999999999745e+03
1.280000000000000027e-01 2.131774999999999920e-01 1.040926999999999936e+01 1.170709999999999980e+02 2.217369999999999891e+03
1.290000000000000036e-01 2.131460000000000021e-01 1.007976500000000009e+01 1.166314999999999884e+02 2.217164999999999964e+03
1.300000000000000044e-01 2.131270000000000109e-01 9.895400000000000418e+00 1.165285000000000082e+02 2.217039999999999964e+03
1.310000000000000053e-01 2.131204999999999905e-01 9.847730000000000317e+00 1.167355000000000018e+02 2.216989999999999782e+03
1.320000000000000062e-01 2.131260000000000099e-01 9.922765000000000057e+00 1.172119999999999891e+02 2.217015000000000327e+03
1.330000000000000071e-01 2.131405000000000105e-01 1.010212999999999894e+01 1.179080000000000013e+02 2.217100000000000364e+03
1.340000000000000080e-01 2.131640000000000201e-01 1.036410000000000053e+01 1.187680000000000007e+02 2.217239999999999782e+03
1.350000000000000089e-01 2.131939999999999946e-01 1.068475000000000108e+01 1.197315000000000111e+02 2.217414999999999964e+03
1.360000000000000098e-01 2.132280000000000009e-01 1.103930000000000078e+01 1.207379999999999995e+02 2.217619999999999891e+03
1.370000000000000107e-01 2.132634999999999947e-01 1.140329999999999977e+01 1.217319999999999993e+02 2.217840000000000146e+03
1.380000000000000115e-01 2.132989999999999886e-01 1.175380000000000003e+01 1.226595000000000084e+02 2.218050000000000182e+03
1.390000000000000124e-01 2.133319999999999939e-01 1.207010000000000005e+01 1.234765000000000015e+02 2.218260000000000218e+03
1.400000000000000133e-01 2.133619999999999961e-01 1.233520000000000039e+01 1.241460000000000008e+02 2.218444999999999709e+03
1.410000000000000142e-01 2.133859999999999923e-01 1.253549999999999898e+01 1.246430000000000007e+02 2.218600000000000364e+03
1.420000000000000151e-01 2.134044999999999970e-01 1.266215000000000046e+01 1.249530000000000030e+02 2.218710000000000036e+03
1.430000000000000160e-01 2.134155000000000080e-01 1.271059999999999945e+01 1.250705000000000098e+02 2.218789999999999964e+03
1.440000000000000169e-01 2.134205000000000130e-01 1.268080000000000140e+01 1.250035000000000025e+02 2.218824999999999818e+03
1.450000000000000178e-01 2.134179999999999966e-01 1.257695000000000007e+01 1.247669999999999959e+02 2.218815000000000055e+03
1.459999999999999909e-01 2.134105000000000030e-01 1.240700000000000003e+01 1.243855000000000075e+02 2.218765000000000327e+03
1.469999999999999918e-01 2.133964999999999890e-01 1.218180000000000085e+01 1.238894999999999982e+02 2.218690000000000055e+03
1.479999999999999927e-01 2.133789999999999853e-01 1.191464999999999996e+01 1.233139999999999930e+02 2.218585000000000036e+03
1.489999999999999936e-01 2.133585000000000065e-01 1.161979999999999968e+01 1.226940000000000026e+02 2.218460000000000036e+03
1.499999999999999944e-01 2.133359999999999979e-01 1.131224999999999881e+01 1.220674999999999955e+02 2.218320000000000164e+03
1.509999999999999953e-01 2.133140000000000036e-01 1.100629999999999953e+01 1.214654999999999916e+02 2.218184999999999945e+03
1.519999999999999962e-01 2.132920000000000094e-01 1.071499999999999986e+01 1.209189999999999969e+02 2.218050000000000182e+03
1.529999999999999971e-01 2.132719999999999894e-01 1.044932000000000016e+01 1.204500000000000028e+02 2.217925000000000182e+03
1.539999999999999980e-01 2.132550000000000001e-01 1.021792999999999907e+01 1.200750000000000028e+02 2.217815000000000055e+03
1.549999999999999989e-01 2.132410000000000139e-01 1.002651499999999984e+01 1.198029999999999973e+02 2.217734999999999673e+03
1.559999999999999998e-01 2.132310000000000039e-01 9.878090000000000259e+00 1.196359999999999957e+02 2.217670000000000073e+03
1.570000000000000007e-01 2.132244999999999835e-01 9.772645000000000692e+00 1.195679999999999978e+02 2.217619999999999891e+03
1.580000000000000016e-01 2.132215000000000082e-01 9.707654999999999035e+00 1.195889999999999986e+02 2.217599999999999909e+03
1.590000000000000024e-01 2.132209999999999939e-01 9.678339999999998611e+00 1.196825000000000045e+02 2.217605000000000018e+03
