# t [s], A [cm^2], U [cm/s], P [cPa], c [cm/s]
1.000000000000000021e-03 1.935470000000000246e-01 3.608390000000000208e-01 1.022062999999999988e+02 2.202880000000000109e+03
2.000000000000000042e-03 1.934845000000000037e-01 2.014876499999999737e+00 9.839140000000000441e+01 2.202329999999999927e+03
3.000000000000000062e-03 1.933285000000000142e-01 4.059812499999999602e+00 9.306544999999999845e+01 2.201029999999999745e+03
4.000000000000000083e-03 1.931244999999999767e-01 6.372048500000000004e+00 8.744810000000001082e+01 2.199350000000000364e+03
5.000000000000000104e-03 1.929139999999999744e-01 8.840004999999999669e+00 8.261939999999999884e+01 2.197630000000000109e+03
6.000000000000000125e-03 1.927174999999999860e-01 1.119989499999999971e+01 7.873910000000000764e+01 2.196039999999999964e+03
7.000000000000000146e-03 1.925350000000000117e-01 1.320354000000000028e+01 7.536884999999999479e+01 2.194609999999999673e+03
8.000000000000000167e-03 1.923725000000000018e-01 1.482904999999999873e+01 7.236650000000000205e+01 2.193355000000000018e+03
9.000000000000001055e-03 1.922360000000000180e-01 1.614334999999999809e+01 6.988785000000000025e+01 2.192304999999999836e+03
1.000000000000000194e-02 1.921249999999999902e-01 1.717770000000000152e+01 6.796640000000000725e+01 2.191474999999999909e+03
1.099999999999999936e-02 1.920390000000000152e-01 1.795755000000000123e+01 6.654084999999999184e+01 2.190840000000000146e+03
1.200000000000000025e-02 1.919744999999999924e-01 1.849755000000000038e+01 6.550339999999999918e+01 2.190364999999999782e+03
1.300000000000000114e-02 1.919239999999999835e-01 1.879834999999999923e+01 6.467234999999999445e+01 2.190010000000000218e+03
1.400000000000000203e-02 1.918834999999999846e-01 1.891884999999999906e+01 6.396805000000000518e+01 2.189730000000000018e+03
1.499999999999999944e-02 1.918579999999999730e-01 1.902754999999999797e+01 6.364704999999999302e+01 2.189564999999999600e+03
1.600000000000000033e-02 1.918604999999999894e-01 1.933875000000000099e+01 6.423404999999999632e+01 2.189595000000000255e+03
1.700000000000000122e-02 1.919029999999999903e-01 1.997845000000000226e+01 6.614330000000001064e+01 2.189920000000000073e+03
1.800000000000000211e-02 1.919865000000000044e-01 2.089564999999999984e+01 6.931194999999999595e+01 2.190555000000000291e+03
1.900000000000000300e-02 1.920995000000000064e-01 2.187870000000000203e+01 7.312470000000000425e+01 2.191420000000000073e+03
2.000000000000000042e-02 1.922185000000000143e-01 2.265419999999999945e+01 7.665375000000000227e+01 2.192340000000000146e+03
2.100000000000000130e-02 1.923165000000000013e-01 2.300675000000000026e+01 7.904795000000000016e+01 2.193119999999999891e+03
2.200000000000000219e-02 1.923770000000000202e-01 2.285925000000000296e+01 7.986310000000000286e+01 2.193619999999999891e+03
2.299999999999999961e-02 1.923929999999999807e-01 2.228645000000000209e+01 7.919010000000000105e+01 2.193784999999999854e+03
2.400000000000000050e-02 1.923734999999999751e-01 2.146320000000000050e+01 7.754939999999999145e+01 2.193654999999999745e+03
2.500000000000000139e-02 1.923330000000000040e-01 2.058109999999999928e+01 7.562614999999999554e+01 2.193364999999999782e+03
2.600000000000000228e-02 1.922885000000000011e-01 1.977289999999999992e+01 7.398279999999999745e+01 2.193019999999999982e+03
2.700000000000000316e-02 1.922504999999999908e-01 1.907515000000000072e+01 7.287205000000000155e+01 2.192730000000000018e+03
2.800000000000000058e-02 1.922225000000000183e-01 1.843609999999999971e+01 7.220564999999999145e+01 2.192505000000000109e+03
2.900000000000000147e-02 1.921984999999999943e-01 1.775769999999999982e+01 7.166280000000000427e+01 2.192319999999999709e+03
3.000000000000000236e-02 1.921710000000000085e-01 1.694999999999999929e+01 7.087255000000000393e+01 2.192110000000000127e+03
3.099999999999999978e-02 1.921324999999999839e-01 1.597869999999999990e+01 6.959614999999999441e+01 2.191815000000000055e+03
3.200000000000000067e-02 1.920795000000000141e-01 1.488889999999999958e+01 6.784544999999999959e+01 2.191420000000000073e+03
3.300000000000000155e-02 1.920175000000000076e-01 1.379845000000000077e+01 6.589959999999999241e+01 2.190944999999999709e+03
3.400000000000000244e-02 1.919569999999999887e-01 1.286330000000000062e+01 6.421774999999999523e+01 2.190484999999999673e+03
3.500000000000000333e-02 1.919130000000000003e-01 1.222820000000000107e+01 6.328294999999999959e+01 2.190135000000000218e+03
3.600000000000000422e-02 1.918969999999999843e-01 1.198104999999999976e+01 6.343779999999999575e+01 2.189989999999999782e+03
3.700000000000000511e-02 1.919155000000000166e-01 1.212679999999999936e+01 6.477015000000000100e+01 2.190105000000000018e+03
3.799999999999999906e-02 1.919675000000000131e-01 1.258595000000000041e+01 6.708275000000000432e+01 2.190484999999999673e+03
3.899999999999999994e-02 1.920450000000000212e-01 1.321580000000000155e+01 6.994530000000000314e+01 2.191054999999999836e+03
4.000000000000000083e-02 1.921329999999999982e-01 1.384420000000000073e+01 7.280259999999999820e+01 2.191725000000000364e+03
4.100000000000000172e-02 1.922154999999999836e-01 1.430519999999999925e+01 7.510150000000000148e+01 2.192364999999999782e+03
4.200000000000000261e-02 1.922770000000000035e-01 1.446785000000000032e+01 7.639985000000000070e+01 2.192845000000000255e+03
4.300000000000000350e-02 1.923054999999999903e-01 1.425294999999999845e+01 7.643585000000000207e+01 2.193079999999999927e+03
4.400000000000000439e-02 1.922944999999999793e-01 1.363654999999999973e+01 7.514769999999998618e+01 2.193014999999999873e+03
4.499999999999999833e-02 1.922425000000000106e-01 1.264220000000000077e+01 7.264894999999999925e+01 2.192639999999999873e+03
4.599999999999999922e-02 1.921539999999999915e-01 1.132677999999999940e+01 6.917445000000000732e+01 2.191970000000000255e+03
4.700000000000000011e-02 1.920350000000000112e-01 9.764789999999999637e+00 6.501649999999999352e+01 2.191070000000000164e+03
4.800000000000000100e-02 1.918944999999999956e-01 8.034869999999999735e+00 6.046845000000000425e+01 2.189994999999999891e+03
4.900000000000000189e-02 1.917399999999999938e-01 6.211930000000000618e+00 5.578785000000000593e+01 2.188809999999999945e+03
5.000000000000000278e-02 1.915804999999999869e-01 4.364168499999999895e+00 5.118234999999999957e+01 2.187585000000000036e+03
5.100000000000000366e-02 1.914219999999999811e-01 2.553754999999999775e+00 4.681329999999999814e+01 2.186359999999999673e+03
5.200000000000000455e-02 1.912699999999999956e-01 8.398600000000000509e-01 4.281090000000000373e+01 2.185189999999999600e+03
5.300000000000000544e-02 1.911300000000000221e-01 -7.189450000000001673e-01 3.929075000000000273e+01 2.184100000000000364e+03
5.399999999999999939e-02 1.910060000000000091e-01 -2.063725999999999949e+00 3.636639999999999873e+01 2.183140000000000327e+03
5.500000000000000028e-02 1.909035000000000037e-01 -3.136468999999999951e+00 3.415305000000000035e+01 2.182329999999999927e+03
5.600000000000000117e-02 1.908259999999999956e-01 -3.883375000000000021e+00 3.276279999999999859e+01 2.181720000000000255e+03
5.700000000000000205e-02 1.907780000000000031e-01 -4.259375000000000355e+00 3.229390000000000072e+01 2.181324999999999818e+03
5.800000000000000294e-02 1.907625000000000015e-01 -4.232804999999999929e+00 3.281665000000000276e+01 2.181175000000000182e+03
5.900000000000000383e-02 1.907810000000000061e-01 -3.789044999999999774e+00 3.436084999999999923e+01 2.181295000000000073e+03
6.000000000000000472e-02 1.908354999999999912e-01 -2.932549999999999990e+00 3.690805000000000291e+01 2.181680000000000291e+03
6.099999999999999867e-02 1.909250000000000114e-01 -1.686827999999999772e+00 4.039000000000000057e+01 2.182335000000000036e+03
6.199999999999999956e-02 1.910459999999999936e-01 -9.255000000000013216e-02 4.469304999999999950e+01 2.183244999999999891e+03
6.300000000000000044e-02 1.911950000000000038e-01 1.795645000000000158e+00 4.966769999999999641e+01 2.184369999999999891e+03
6.400000000000000133e-02 1.913674999999999959e-01 3.913204499999999975e+00 5.514100000000000534e+01 2.185680000000000291e+03
6.500000000000000222e-02 1.915569999999999773e-01 6.189935000000000187e+00 6.092945000000000277e+01 2.187130000000000109e+03
6.600000000000000311e-02 1.917584999999999984e-01 8.554140000000000299e+00 6.685175000000000978e+01 2.188675000000000182e+03
6.700000000000000400e-02 1.919649999999999967e-01 1.093662999999999919e+01 7.273939999999998918e+01 2.190269999999999982e+03
6.800000000000000488e-02 1.921720000000000095e-01 1.327422499999999950e+01 7.844620000000000459e+01 2.191869999999999891e+03
6.900000000000000577e-02 1.923729999999999885e-01 1.551285000000000025e+01 8.385550000000000637e+01 2.193440000000000055e+03
7.000000000000000666e-02 1.925660000000000149e-01 1.761005000000000109e+01 8.888540000000000418e+01 2.194945000000000164e+03
7.100000000000000755e-02 1.927470000000000017e-01 1.953650000000000020e+01 9.349139999999999873e+01 2.196364999999999782e+03
7.200000000000000844e-02 1.929144999999999888e-01 2.127680000000000149e+01 9.766745000000000232e+01 2.197690000000000055e+03
7.300000000000000933e-02 1.930695000000000050e-01 2.282905000000000229e+01 1.014407500000000084e+02 2.198909999999999854e+03
7.399999999999999634e-02 1.932110000000000216e-01 2.420300000000000296e+01 1.048670999999999935e+02 2.200034999999999854e+03
7.499999999999999722e-02 1.933420000000000138e-01 2.541765000000000185e+01 1.080234999999999985e+02 2.201079999999999927e+03
7.599999999999999811e-02 1.934644999999999837e-01 2.649855000000000160e+01 1.109959999999999951e+02 2.202055000000000291e+03
7.699999999999999900e-02 1.935815000000000174e-01 2.747379999999999711e+01 1.138710000000000093e+02 2.202980000000000018e+03
7.799999999999999989e-02 1.936950000000000061e-01 2.837134999999999962e+01 1.167275000000000063e+02 2.203890000000000327e+03
7.900000000000000078e-02 1.938080000000000080e-01 2.921594999999999942e+01 1.196260000000000048e+02 2.204784999999999854e+03
8.000000000000000167e-02 1.939224999999999977e-01 3.002720000000000056e+01 1.226075000000000017e+02 2.205694999999999709e+03
8.100000000000000255e-02 1.940385000000000026e-01 3.081784999999999997e+01 1.256889999999999930e+02 2.206614999999999782e+03
8.200000000000000344e-02 1.941574999999999829e-01 3.159355000000000047e+01 1.288640000000000043e+02 2.207550000000000182e+03
8.300000000000000433e-02 1.942780000000000062e-01 3.235255000000000081e+01 1.321039999999999850e+02 2.208510000000000218e+03
8.400000000000000522e-02 1.944004999999999761e-01 3.308660000000000423e+01 1.353629999999999995e+02 2.209480000000000018e+03
8.500000000000000611e-02 1.945220000000000005e-01 3.378215000000000146e+01 1.385824999999999818e+02 2.210444999999999709e+03
8.600000000000000699e-02 1.946419999999999817e-01 3.442149999999999466e+01 1.416954999999999814e+02 2.211394999999999982e+03
8.700000000000000788e-02 1.947575000000000001e-01 3.498444999999999538e+01 1.446335000000000264e+02 2.212309999999999945e+03
8.800000000000000877e-02 1.948659999999999837e-01 3.545015000000000072e+01 1.473269999999999982e+02 2.213179999999999836e+03
8.899999999999999578e-02 1.949655000000000138e-01 3.579834999999999923e+01 1.497155000000000200e+02 2.213970000000000255e+03
8.999999999999999667e-02 1.950540000000000052e-01 3.601069999999999993e+01 1.517450000000000045e+02 2.214679999999999836e+03
9.099999999999999756e-02 1.951295000000000113e-01 3.607254999999999967e+01 1.533754999999999882e+02 2.215289999999999964e+03
9.199999999999999845e-02 1.951910000000000034e-01 3.597339999999999804e+01 1.545804999999999723e+02 2.215784999999999854e+03
9.299999999999999933e-02 1.952375000000000083e-01 3.570765000000000100e+01 1.553485000000000014e+02 2.216164999999999964e+03
9.400000000000000022e-02 1.952689999999999981e-01 3.527559999999999718e+01 1.556814999999999998e+02 2.216425000000000182e+03
9.500000000000000111e-02 1.952840000000000131e-01 3.468280000000000030e+01 1.555985000000000014e+02 2.216565000000000055e+03
9.600000000000000200e-02 1.952855000000000008e-01 3.394050000000000011e+01 1.551324999999999932e+02 2.216590000000000146e+03
9.700000000000000289e-02 1.952734999999999888e-01 3.306470000000000198e+01 1.543260000000000218e+02 2.216505000000000109e+03
9.800000000000000377e-02 1.952490000000000059e-01 3.207545000000000357e+01 1.532324999999999875e+02 2.216324999999999818e+03
9.900000000000000466e-02 1.952145000000000130e-01 3.099579999999999913e+01 1.519110000000000014e+02 2.216059999999999945e+03
1.000000000000000056e-01 1.951714999999999978e-01 2.985089999999999932e+01 1.504245000000000232e+02 2.215730000000000018e+03
1.010000000000000064e-01 1.951225000000000043e-01 2.866629999999999967e+01 1.488344999999999914e+02 2.215350000000000364e+03
1.020000000000000073e-01 1.950699999999999934e-01 2.746730000000000160e+01 1.472015000000000100e+02 2.214935000000000400e+03
1.030000000000000082e-01 1.950149999999999939e-01 2.627765000000000128e+01 1.455794999999999959e+02 2.214505000000000109e+03
1.040000000000000091e-01 1.949599999999999944e-01 2.511844999999999928e+01 1.440140000000000100e+02 2.214069999999999709e+03
1.050000000000000100e-01 1.949060000000000237e-01 2.400760000000000005e+01 1.425434999999999945e+02 2.213640000000000327e+03
1.059999999999999970e-01 1.948550000000000004e-01 2.295905000000000129e+01 1.411945000000000050e+02 2.213235000000000127e+03
1.069999999999999979e-01 1.948074999999999946e-01 2.198230000000000217e+01 1.399840000000000089e+02 2.212855000000000018e+03
1.079999999999999988e-01 1.947639999999999927e-01 2.108225000000000193e+01 1.389150000000000205e+02 2.212510000000000218e+03
1.089999999999999997e-01 1.947254999999999958e-01 2.025914999999999822e+01 1.379819999999999993e+02 2.212199999999999818e+03
1.100000000000000006e-01 1.946910000000000029e-01 1.950880000000000081e+01 1.371680000000000064e+02 2.211920000000000073e+03
1.110000000000000014e-01 1.946594999999999853e-01 1.882294999999999874e+01 1.364470000000000027e+02 2.211664999999999964e+03
1.120000000000000023e-01 1.946309999999999985e-01 1.818999999999999773e+01 1.357860000000000014e+02 2.211434999999999945e+03
1.130000000000000032e-01 1.946045000000000136e-01 1.759590000000000032e+01 1.351460000000000150e+02 2.211220000000000255e+03
1.140000000000000041e-01 1.945780000000000010e-01 1.702495000000000047e+01 1.344875000000000114e+02 2.211005000000000109e+03
1.150000000000000050e-01 1.945510000000000017e-01 1.646079999999999899e+01 1.337685000000000173e+02 2.210789999999999964e+03
1.160000000000000059e-01 1.945220000000000005e-01 1.588785000000000025e+01 1.329519999999999982e+02 2.210555000000000291e+03
1.170000000000000068e-01 1.944890000000000230e-01 1.529170000000000051e+01 1.320045000000000073e+02 2.210295000000000073e+03
1.180000000000000077e-01 1.944520000000000137e-01 1.466080000000000183e+01 1.309014999999999986e+02 2.210000000000000000e+03
1.190000000000000085e-01 1.944095000000000129e-01 1.398644999999999960e+01 1.296265000000000214e+02 2.209659999999999854e+03
1.200000000000000094e-01 1.943604999999999916e-01 1.326405000000000101e+01 1.281750000000000114e+02 2.209279999999999745e+03
1.209999999999999964e-01 1.943060000000000065e-01 1.249290000000000056e+01 1.265519999999999925e+02 2.208855000000000018e+03
1.219999999999999973e-01 1.942459999999999742e-01 1.167665000000000042e+01 1.247740000000000009e+02 2.208385000000000218e+03
1.229999999999999982e-01 1.941809999999999925e-01 1.082281000000000049e+01 1.228675000000000068e+02 2.207869999999999891e+03
1.239999999999999991e-01 1.941114999999999924e-01 9.942444999999999311e+00 1.208675000000000068e+02 2.207324999999999818e+03
1.250000000000000000e-01 1.940385000000000026e-01 9.049464999999999648e+00 1.188145000000000095e+02 2.206760000000000218e+03
1.260000000000000009e-01 1.939644999999999841e-01 8.159874999999999545e+00 1.167545000000000073e+02 2.206175000000000182e+03
1.270000000000000018e-01 1.938900000000000068e-01 7.290580000000000283e+00 1.147325000000000017e+02 2.205594999999999800e+03
1.280000000000000027e-01 1.938169999999999893e-01 6.458679999999999310e+00 1.127955000000000041e+02 2.205019999999999982e+03
1.290000000000000036e-01 1.937470000000000026e-01 5.680365000000000109e+00 1.109834999999999923e+02 2.204465000000000146e+03
1.300000000000000044e-01 1.936815000000000064e-01 4.970089999999999897e+00 1.093325000000000102e+02 2.203944999999999709e+03
1.310000000000000053e-01 1.936215000000000019e-01 4.339914999999999523e+00 1.078704999999999927e+02 2.203469999999999800e+03
1.320000000000000062e-01 1.935680000000000178e-01 3.798915000000000042e+00 1.066175000000000068e+02 2.203045000000000073e+03
1.330000000000000071e-01 1.935215000000000130e-01 3.352910000000000057e+00 1.055840000000000032e+02 2.202675000000000182e+03
1.340000000000000080e-01 1.934825000000000017e-01 3.004305000000000003e+00 1.047725000000000080e+02 2.202359999999999673e+03
1.350000000000000089e-01 1.934514999999999985e-01 2.752180000000000071e+00 1.041754999999999995e+02 2.202104999999999563e+03
1.360000000000000098e-01 1.934270000000000156e-01 2.592505000000000059e+00 1.037800000000000011e+02 2.201909999999999854e+03
1.370000000000000107e-01 1.934104999999999852e-01 2.518510000000000026e+00 1.035660000000000025e+02 2.201769999999999982e+03
1.380000000000000115e-01 1.933995000000000020e-01 2.521150000000000002e+00 1.035090000000000003e+02 2.201679999999999836e+03
1.390000000000000124e-01 1.933949999999999836e-01 2.589605000000000157e+00 1.035805000000000007e+02 2.201630000000000109e+03
1.400000000000000133e-01 1.933944999999999970e-01 2.711834999999999773e+00 1.037514999999999930e+02 2.201625000000000000e+03
1.410000000000000142e-01 1.933975000000000000e-01 2.875140000000000029e+00 1.039909999999999997e+02 2.201639999999999873e+03
1.420000000000000151e-01 1.934029999999999916e-01 3.066645000000000287e+00 1.042699999999999960e+02 2.201679999999999836e+03
1.430000000000000160e-01 1.934104999999999852e-01 3.273794999999999789e+00 1.045614999999999952e+02 2.201730000000000018e+03
1.440000000000000169e-01 1.934184999999999932e-01 3.484795000000000087e+00 1.048389999999999986e+02 2.201795000000000073e+03
1.450000000000000178e-01 1.934259999999999868e-01 3.688985000000000181e+00 1.050810000000000031e+02 2.201855000000000018e+03
1.459999999999999909e-01 1.934330000000000216e-01 3.877145000000000064e+00 1.052704999999999984e+02 2.201904999999999745e+03
1.469999999999999918e-01 1.934379999999999988e-01 4.041739999999999888e+00 1.053930000000000007e+02 2.201944999999999709e+03
1.479999999999999927e-01 1.934414999999999885e-01 4.177084999999999937e+00 1.054405000000000001e+02 2.201970000000000255e+03
1.489999999999999936e-01 1.934420000000000028e-01 4.279450000000000642e+00 1.054074999999999989e+02 2.201980000000000018e+03
1.499999999999999944e-01 1.934400000000000008e-01 4.347049999999999415e+00 1.052930000000000064e+02 2.201965000000000146e+03
1.509999999999999953e-01 1.934359999999999968e-01 4.379984999999999573e+00 1.051034999999999968e+02 2.201929999999999836e+03
1.519999999999999962e-01 1.934285000000000032e-01 4.380049999999999777e+00 1.048439999999999941e+02 2.201880000000000109e+03
1.529999999999999971e-01 1.934194999999999942e-01 4.350509999999999877e+00 1.045270000000000010e+02 2.201810000000000400e+03
1.539999999999999980e-01 1.934080000000000243e-01 4.295790000000000219e+00 1.041639999999999873e+02 2.201730000000000018e+03
1.549999999999999989e-01 1.933954999999999980e-01 4.221109999999999474e+00 1.037694999999999936e+02 2.201630000000000109e+03
1.559999999999999998e-01 1.933819999999999983e-01 4.132125000000000270e+00 1.033575000000000017e+02 2.201524999999999636e+03
1.570000000000000007e-01 1.933680000000000121e-01 4.034510000000000041e+00 1.029414999999999907e+02 2.201414999999999964e+03
1.580000000000000016e-01 1.933529999999999971e-01 3.933644999999999836e+00 1.025340000000000060e+02 2.201300000000000182e+03
1.590000000000000024e-01 1.933389999999999831e-01 3.834305000000000074e+00 1.021444999999999936e+02 2.201190000000000055e+03
