# t [s], A [cm^2], U [cm/s], P [cPa], c [cm/s]
1.000000000000000021e-03 7.286734999999999740e-01 6.715000000000005687e-03 1.069329999999999927e+02 1.749799999999999955e+03
2.000000000000000042e-03 7.286639999999999784e-01 3.276949999999999828e-03 1.069009999999999962e+02 1.749795000000000073e+03
3.000000000000000062e-03 7.287429999999999186e-01 1.376821500000000031e-01 1.070610000000000070e+02 1.749829999999999927e+03
4.000000000000000083e-03 7.287794999999999135e-01 2.224913500000000044e-01 1.071645000000000039e+02 1.749855000000000018e+03
5.000000000000000104e-03 7.287099999999999689e-01 1.378990000000000216e-01 1.069784999999999968e+02 1.749820000000000164e+03
6.000000000000000125e-03 7.286245000000000083e-01 1.764199999999999102e-02 1.066389999999999958e+02 1.749744999999999891e+03
7.000000000000000146e-03 7.285325000000000273e-01 -1.277549999999999519e-01 1.061949999999999932e+02 1.749644999999999982e+03
8.000000000000000167e-03 7.283625000000000238e-01 -4.253649999999999931e-01 1.054754999999999967e+02 1.749490000000000009e+03
9.000000000000001055e-03 7.281079999999999774e-01 -8.867099999999999982e-01 1.044099999999999966e+02 1.749260000000000218e+03
1.000000000000000194e-02 7.277530000000000943e-01 -1.525954999999999728e+00 1.029242000000000132e+02 1.748934999999999945e+03
1.099999999999999936e-02 7.272684999999999844e-01 -2.370734999999999815e+00 1.009176999999999964e+02 1.748490000000000009e+03
1.200000000000000025e-02 7.266890000000000294e-01 -3.332560000000000411e+00 9.844389999999999930e+01 1.747924999999999955e+03
1.300000000000000114e-02 7.261189999999999589e-01 -4.191732499999999639e+00 9.578489999999999327e+01 1.747304999999999836e+03
1.400000000000000203e-02 7.256599999999999717e-01 -4.725376400000000032e+00 9.330365000000000464e+01 1.746695000000000164e+03
1.499999999999999944e-02 7.253480000000001038e-01 -4.827481500000000203e+00 9.124559999999999604e+01 1.746150000000000091e+03
1.600000000000000033e-02 7.251490000000000435e-01 -4.535829999999999806e+00 8.964839999999999520e+01 1.745690000000000055e+03
1.700000000000000122e-02 7.249864999999999782e-01 -3.985835000000000239e+00 8.836500000000000909e+01 1.745295000000000073e+03
1.800000000000000211e-02 7.247835000000000250e-01 -3.337279999999999802e+00 8.715829999999999700e+01 1.744920000000000073e+03
1.900000000000000300e-02 7.244930000000000536e-01 -2.707477750000000238e+00 8.581325000000001069e+01 1.744519999999999982e+03
2.000000000000000042e-02 7.241115000000000190e-01 -2.133829999999999671e+00 8.422159999999999513e+01 1.744070000000000164e+03
2.100000000000000130e-02 7.236744999999999983e-01 -1.578795000000000170e+00 8.240744999999999720e+01 1.743575000000000045e+03
2.200000000000000219e-02 7.232300000000000395e-01 -9.708500000000002128e-01 8.048629999999999995e+01 1.743049999999999955e+03
2.299999999999999961e-02 7.228140000000000676e-01 -2.563249999999999140e-01 7.858844999999999459e+01 1.742534999999999854e+03
2.400000000000000050e-02 7.224344999999999795e-01 5.637900000000000134e-01 7.678745000000000687e+01 1.742025000000000091e+03
2.500000000000000139e-02 7.220670000000000144e-01 1.423685000000000089e+00 7.506100000000000705e+01 1.741535000000000082e+03
2.600000000000000228e-02 7.216650000000000009e-01 2.207254999999999967e+00 7.329139999999999588e+01 1.741034999999999854e+03
2.700000000000000316e-02 7.211754999999999693e-01 2.779094999999999871e+00 7.130019999999998959e+01 1.740494999999999891e+03
2.800000000000000058e-02 7.205550000000000566e-01 3.022479999999999389e+00 6.890449999999999875e+01 1.739869999999999891e+03
2.900000000000000147e-02 7.197860000000000369e-01 2.873690000000000300e+00 6.597889999999999588e+01 1.739134999999999991e+03
3.000000000000000236e-02 7.188840000000000785e-01 2.341239999999999544e+00 6.250314999999999799e+01 1.738285000000000082e+03
3.099999999999999978e-02 7.178944999999999910e-01 1.503604999999999414e+00 5.857829999999999870e+01 1.737325000000000045e+03
3.200000000000000067e-02 7.168835000000000068e-01 4.865999999999992554e-01 5.440735000000000099e+01 1.736304999999999836e+03
3.300000000000000155e-02 7.159185000000000132e-01 -5.680149999999999366e-01 5.025060000000000571e+01 1.735275000000000091e+03
3.400000000000000244e-02 7.150585000000000413e-01 -1.531719999999999970e+00 4.637494999999999834e+01 1.734289999999999964e+03
3.500000000000000333e-02 7.143460000000000365e-01 -2.307349999999999568e+00 4.301094999999999402e+01 1.733405000000000200e+03
3.600000000000000422e-02 7.138044999999999529e-01 -2.835795000000000066e+00 4.032635000000000502e+01 1.732664999999999964e+03
3.700000000000000511e-02 7.134415000000000617e-01 -3.092789999999999928e+00 3.841694999999999993e+01 1.732109999999999900e+03
3.799999999999999906e-02 7.132515000000000382e-01 -3.079178999999999888e+00 3.731244999999999834e+01 1.731735000000000127e+03
3.899999999999999994e-02 7.132235000000000102e-01 -2.809039999999999981e+00 3.699244999999999806e+01 1.731554999999999836e+03
4.000000000000000083e-02 7.133439999999999781e-01 -2.298951999999999884e+00 3.740684999999999860e+01 1.731559999999999945e+03
4.100000000000000172e-02 7.136014999999999997e-01 -1.561175000000000201e+00 3.849459999999999837e+01 1.731744999999999891e+03
4.200000000000000261e-02 7.139860000000000095e-01 -6.021499999999999631e-01 4.019565000000000055e+01 1.732085000000000036e+03
4.300000000000000350e-02 7.144905000000000284e-01 5.743399999999998506e-01 4.245494999999999663e+01 1.732575000000000045e+03
4.400000000000000439e-02 7.151045000000000318e-01 1.961415000000000131e+00 4.521930000000000405e+01 1.733204999999999927e+03
4.499999999999999833e-02 7.158165000000000777e-01 3.543435000000000112e+00 4.843089999999999407e+01 1.733950000000000045e+03
4.599999999999999922e-02 7.166094999999998993e-01 5.292715000000000281e+00 5.202150000000000318e+01 1.734805000000000064e+03
4.700000000000000011e-02 7.174639999999999906e-01 7.169129999999999114e+00 5.590910000000000224e+01 1.735744999999999891e+03
4.800000000000000100e-02 7.183550000000000768e-01 9.123100499999999613e+00 5.999934999999999263e+01 1.736740000000000009e+03
4.900000000000000189e-02 7.192600000000000104e-01 1.110033500000000117e+01 6.419084999999999752e+01 1.737784999999999854e+03
5.000000000000000278e-02 7.201545000000000307e-01 1.304718000000000089e+01 6.838269999999999982e+01 1.738839999999999918e+03
5.100000000000000366e-02 7.210205000000000641e-01 1.491592999999999947e+01 7.248269999999999413e+01 1.739884999999999991e+03
5.200000000000000455e-02 7.218430000000000124e-01 1.666843000000000075e+01 7.641474999999999795e+01 1.740914999999999964e+03
5.300000000000000544e-02 7.226139999999999786e-01 1.827789999999999893e+01 8.012405000000001110e+01 1.741889999999999873e+03
5.399999999999999939e-02 7.233294999999999586e-01 1.972950000000000159e+01 8.357890000000000441e+01 1.742820000000000164e+03
5.500000000000000028e-02 7.239904999999999813e-01 2.101890000000000214e+01 8.677019999999998845e+01 1.743690000000000055e+03
5.600000000000000117e-02 7.246029999999999971e-01 2.215080000000000027e+01 8.970879999999999654e+01 1.744500000000000000e+03
5.700000000000000205e-02 7.251724999999999977e-01 2.313625000000000043e+01 9.242125000000000057e+01 1.745255000000000109e+03
5.800000000000000294e-02 7.257095000000000073e-01 2.399114999999999753e+01 9.494535000000000480e+01 1.745960000000000036e+03
5.900000000000000383e-02 7.262239999999999807e-01 2.473414999999999964e+01 9.732595000000000596e+01 1.746634999999999991e+03
6.000000000000000472e-02 7.267239999999999256e-01 2.538514999999999944e+01 9.960919999999998709e+01 1.747269999999999982e+03
6.099999999999999867e-02 7.272205000000000474e-01 2.596379999999999910e+01 1.018401499999999942e+02 1.747894999999999982e+03
6.199999999999999956e-02 7.277199999999999225e-01 2.648770000000000024e+01 1.040579999999999927e+02 1.748509999999999991e+03
6.300000000000000044e-02 7.282275000000000276e-01 2.697149999999999892e+01 1.062930000000000064e+02 1.749125000000000000e+03
6.400000000000000133e-02 7.287464999999999637e-01 2.742530000000000001e+01 1.085635000000000048e+02 1.749750000000000000e+03
6.500000000000000222e-02 7.292750000000000066e-01 2.785409999999999897e+01 1.108750000000000000e+02 1.750375000000000000e+03
6.600000000000000311e-02 7.298104999999999176e-01 2.825724999999999909e+01 1.132189999999999941e+02 1.751009999999999991e+03
6.700000000000000400e-02 7.303465000000000096e-01 2.862894999999999968e+01 1.155730000000000075e+02 1.751644999999999982e+03
6.800000000000000488e-02 7.308744999999999825e-01 2.895899999999999963e+01 1.179044999999999987e+02 1.752275000000000091e+03
6.900000000000000577e-02 7.313844999999999930e-01 2.923449999999999704e+01 1.201719999999999970e+02 1.752894999999999982e+03
7.000000000000000666e-02 7.318664999999999754e-01 2.944089999999999918e+01 1.223300000000000125e+02 1.753480000000000018e+03
7.100000000000000755e-02 7.323104999999999754e-01 2.956370000000000076e+01 1.243335000000000008e+02 1.754039999999999964e+03
7.200000000000000844e-02 7.327080000000000259e-01 2.958990000000000009e+01 1.261380000000000052e+02 1.754545000000000073e+03
7.300000000000000933e-02 7.330505000000000493e-01 2.950900000000000034e+01 1.277074999999999960e+02 1.754994999999999891e+03
7.399999999999999634e-02 7.333339999999999304e-01 2.931365000000000265e+01 1.290130000000000052e+02 1.755384999999999991e+03
7.499999999999999722e-02 7.335549999999999571e-01 2.900019999999999953e+01 1.300349999999999966e+02 1.755695000000000164e+03
7.599999999999999811e-02 7.337119999999999198e-01 2.856904999999999717e+01 1.307649999999999864e+02 1.755940000000000055e+03
7.699999999999999900e-02 7.338065000000000282e-01 2.802439999999999998e+01 1.312049999999999841e+02 1.756105000000000018e+03
7.799999999999999989e-02 7.338415000000000354e-01 2.737434999999999974e+01 1.313660000000000139e+02 1.756200000000000045e+03
7.900000000000000078e-02 7.338225000000000442e-01 2.663015000000000043e+01 1.312690000000000055e+02 1.756224999999999909e+03
8.000000000000000167e-02 7.337555000000000049e-01 2.580620000000000047e+01 1.309420000000000073e+02 1.756184999999999945e+03
8.100000000000000255e-02 7.336489999999999956e-01 2.491884999999999906e+01 1.304190000000000111e+02 1.756090000000000146e+03
8.200000000000000344e-02 7.335104999999999542e-01 2.398635000000000161e+01 1.297375000000000114e+02 1.755950000000000045e+03
8.300000000000000433e-02 7.333490000000000286e-01 2.302749999999999986e+01 1.289385000000000048e+02 1.755775000000000091e+03
8.400000000000000522e-02 7.331725000000000048e-01 2.206109999999999971e+01 1.280625000000000000e+02 1.755570000000000164e+03
8.500000000000000611e-02 7.329904999999999893e-01 2.110504999999999853e+01 1.271484999999999985e+02 1.755349999999999909e+03
8.600000000000000699e-02 7.328090000000000437e-01 2.017535000000000167e+01 1.262330000000000041e+02 1.755125000000000000e+03
8.700000000000000788e-02 7.326354999999999951e-01 1.928565000000000040e+01 1.253455000000000013e+02 1.754894999999999982e+03
8.800000000000000877e-02 7.324729999999999297e-01 1.844624999999999915e+01 1.245109999999999957e+02 1.754680000000000064e+03
8.899999999999999578e-02 7.323260000000000325e-01 1.766414999999999935e+01 1.237480000000000047e+02 1.754469999999999800e+03
8.999999999999999667e-02 7.321945000000000814e-01 1.694245000000000090e+01 1.230645000000000095e+02 1.754284999999999854e+03
9.099999999999999756e-02 7.320794999999999941e-01 1.628059999999999974e+01 1.224645000000000010e+02 1.754115000000000009e+03
9.199999999999999845e-02 7.319795000000000051e-01 1.567464999999999975e+01 1.219414999999999907e+02 1.753964999999999918e+03
9.299999999999999933e-02 7.318900000000000405e-01 1.511775000000000091e+01 1.214840000000000089e+02 1.753825000000000045e+03
9.400000000000000022e-02 7.318080000000000140e-01 1.460060000000000002e+01 1.210775000000000006e+02 1.753704999999999927e+03
9.500000000000000111e-02 7.317289999999999628e-01 1.411214999999999975e+01 1.206995000000000005e+02 1.753590000000000146e+03
9.600000000000000200e-02 7.316480000000000761e-01 1.364034999999999798e+01 1.203280000000000030e+02 1.753485000000000127e+03
9.700000000000000289e-02 7.315594999999999182e-01 1.317275000000000063e+01 1.199399999999999977e+02 1.753369999999999891e+03
9.800000000000000377e-02 7.314590000000000813e-01 1.269755999999999929e+01 1.195125000000000028e+02 1.753255000000000109e+03
9.900000000000000466e-02 7.313434999999999242e-01 1.220392499999999991e+01 1.190240000000000009e+02 1.753125000000000000e+03
1.000000000000000056e-01 7.312084999999999280e-01 1.168282500000000113e+01 1.184595000000000056e+02 1.752974999999999909e+03
1.010000000000000064e-01 7.310524999999999940e-01 1.112771000000000043e+01 1.178044999999999902e+02 1.752809999999999945e+03
1.020000000000000073e-01 7.308744999999999825e-01 1.053460499999999911e+01 1.170535000000000139e+02 1.752615000000000009e+03
1.030000000000000082e-01 7.306755000000000333e-01 9.902680000000000149e+00 1.162055000000000007e+02 1.752405000000000200e+03
1.040000000000000091e-01 7.304574999999999818e-01 9.234185000000000088e+00 1.152659999999999911e+02 1.752170000000000073e+03
1.050000000000000100e-01 7.302230000000000665e-01 8.534414999999999196e+00 1.142464999999999975e+02 1.751909999999999854e+03
1.059999999999999970e-01 7.299769999999999870e-01 7.811390000000000278e+00 1.131645000000000039e+02 1.751639999999999873e+03
1.069999999999999979e-01 7.297244999999999981e-01 7.075495000000000090e+00 1.120414999999999992e+02 1.751349999999999909e+03
1.079999999999999988e-01 7.294715000000000504e-01 6.338824999999999932e+00 1.109029999999999916e+02 1.751059999999999945e+03
1.089999999999999997e-01 7.292239999999999833e-01 5.614494999999999791e+00 1.097769999999999868e+02 1.750769999999999982e+03
1.100000000000000006e-01 7.289885000000000392e-01 4.916059999999999874e+00 1.086910000000000025e+02 1.750485000000000127e+03
1.110000000000000014e-01 7.287704999999999878e-01 4.256585000000000285e+00 1.076725000000000136e+02 1.750215000000000146e+03
1.120000000000000023e-01 7.285749999999999726e-01 3.648040500000000019e+00 1.067464999999999975e+02 1.749960000000000036e+03
1.130000000000000032e-01 7.284064999999999568e-01 3.100659000000000276e+00 1.059329999999999927e+02 1.749735000000000127e+03
1.140000000000000041e-01 7.282675000000000676e-01 2.622412999999999883e+00 1.052489999999999952e+02 1.749545000000000073e+03
1.150000000000000050e-01 7.281599999999999184e-01 2.218675999999999870e+00 1.047044999999999959e+02 1.749384999999999991e+03
1.160000000000000059e-01 7.280834999999999946e-01 1.892008499999999982e+00 1.043044999999999902e+02 1.749255000000000109e+03
1.170000000000000068e-01 7.280385000000000328e-01 1.642160999999999982e+00 1.040469999999999970e+02 1.749164999999999964e+03
1.180000000000000077e-01 7.280219999999999470e-01 1.466219999999999857e+00 1.039244999999999948e+02 1.749110000000000127e+03
1.190000000000000085e-01 7.280305000000000248e-01 1.358875000000000055e+00 1.039254999999999995e+02 1.749085000000000036e+03
1.200000000000000094e-01 7.280604999999999993e-01 1.312845000000000040e+00 1.040335000000000036e+02 1.749085000000000036e+03
1.209999999999999964e-01 7.281079999999999774e-01 1.319315999999999933e+00 1.042284999999999968e+02 1.749119999999999891e+03
1.219999999999999973e-01 7.281675000000000786e-01 1.368468500000000088e+00 1.044909999999999997e+02 1.749164999999999964e+03
1.229999999999999982e-01 7.282355000000000356e-01 1.449971499999999969e+00 1.047980000000000018e+02 1.749230000000000018e+03
1.239999999999999991e-01 7.283060000000000089e-01 1.553431000000000006e+00 1.051280000000000001e+02 1.749300000000000182e+03
1.250000000000000000e-01 7.283755000000000646e-01 1.668835000000000068e+00 1.054610000000000127e+02 1.749375000000000000e+03
1.260000000000000009e-01 7.284399999999999764e-01 1.786895000000000122e+00 1.057789999999999964e+02 1.749454999999999927e+03
1.270000000000000018e-01 7.284969999999999501e-01 1.899329999999999963e+00 1.060670000000000073e+02 1.749519999999999982e+03
1.280000000000000027e-01 7.285435000000000105e-01 1.999060000000000059e+00 1.063110000000000070e+02 1.749585000000000036e+03
1.290000000000000036e-01 7.285785000000000178e-01 2.080395000000000216e+00 1.065030000000000001e+02 1.749639999999999873e+03
1.300000000000000044e-01 7.285999999999999144e-01 2.139054999999999929e+00 1.066359999999999957e+02 1.749675000000000182e+03
1.310000000000000053e-01 7.286084999999999923e-01 2.172235000000000138e+00 1.067069999999999936e+02 1.749694999999999936e+03
1.320000000000000062e-01 7.286040000000000294e-01 2.178564999999999863e+00 1.067164999999999964e+02 1.749710000000000036e+03
1.330000000000000071e-01 7.285870000000000957e-01 2.158030000000000115e+00 1.066654999999999944e+02 1.749704999999999927e+03
1.340000000000000080e-01 7.285589999999999566e-01 2.111844999999999750e+00 1.065600000000000023e+02 1.749684999999999945e+03
1.350000000000000089e-01 7.285215000000000440e-01 2.042324999999999946e+00 1.064054999999999893e+02 1.749654999999999973e+03
1.360000000000000098e-01 7.284759999999999014e-01 1.952655000000000030e+00 1.062100000000000080e+02 1.749610000000000127e+03
1.370000000000000107e-01 7.284239999999999604e-01 1.846720499999999987e+00 1.059824999999999875e+02 1.749554999999999836e+03
1.380000000000000115e-01 7.283690000000000442e-01 1.728812499999999863e+00 1.057319999999999993e+02 1.749500000000000000e+03
1.390000000000000124e-01 7.283115000000000006e-01 1.603418500000000080e+00 1.054675000000000011e+02 1.749434999999999945e+03
1.400000000000000133e-01 7.282539999999999569e-01 1.474940000000000140e+00 1.051980000000000075e+02 1.749369999999999891e+03
1.410000000000000142e-01 7.281975000000000531e-01 1.347488499999999867e+00 1.049300000000000068e+02 1.749304999999999836e+03
1.420000000000000151e-01 7.281435000000000546e-01 1.224667500000000020e+00 1.046700000000000017e+02 1.749240000000000009e+03
1.430000000000000160e-01 7.280934999999999491e-01 1.109404499999999905e+00 1.044230000000000018e+02 1.749175000000000182e+03
1.440000000000000169e-01 7.280465000000000408e-01 1.003853499999999954e+00 1.041915000000000049e+02 1.749109999999999900e+03
1.450000000000000178e-01 7.280035000000000256e-01 9.093545000000000655e-01 1.039770000000000039e+02 1.749054999999999836e+03
1.459999999999999909e-01 7.279634999999999856e-01 8.264320000000000555e-01 1.037779999999999916e+02 1.749005000000000109e+03
1.469999999999999918e-01 7.279264999999999208e-01 7.548729999999999052e-01 1.035935000000000059e+02 1.748954999999999927e+03
1.479999999999999927e-01 7.278909999999999547e-01 6.938434999999999464e-01 1.034189999999999969e+02 1.748904999999999973e+03
1.489999999999999936e-01 7.278564999999999063e-01 6.420374999999999277e-01 1.032510000000000048e+02 1.748855000000000018e+03
1.499999999999999944e-01 7.278219999999999690e-01 5.978525000000000089e-01 1.030835000000000008e+02 1.748809999999999945e+03
1.509999999999999953e-01 7.277854999999999741e-01 5.595546500000000423e-01 1.029139999999999873e+02 1.748769999999999982e+03
1.519999999999999962e-01 7.277474999999999916e-01 5.254406999999999828e-01 1.027360000000000042e+02 1.748715000000000146e+03
1.529999999999999971e-01 7.277059999999999640e-01 4.939860999999999835e-01 1.025469999999999970e+02 1.748670000000000073e+03
1.539999999999999980e-01 7.276610000000000023e-01 4.639385500000000051e-01 1.023439999999999941e+02 1.748614999999999782e+03
1.549999999999999989e-01 7.276114999999999666e-01 4.343924999999999592e-01 1.021250000000000000e+02 1.748559999999999945e+03
1.559999999999999998e-01 7.275590000000000668e-01 4.048555000000000348e-01 1.018894999999999982e+02 1.748494999999999891e+03
1.570000000000000007e-01 7.275035000000000807e-01 3.752164999999999528e-01 1.016390000000000100e+02 1.748430000000000064e+03
1.580000000000000016e-01 7.274445000000000494e-01 3.457760000000000278e-01 1.013754999999999882e+02 1.748364999999999782e+03
1.590000000000000024e-01 7.273830000000000018e-01 3.171894999999999576e-01 1.011005000000000109e+02 1.748284999999999854e+03
