# t [s], A [cm^2], U [cm/s], P [cPa], c [cm/s]
1.000000000000000021e-03 1.624784999999999979e-01 3.349415000000000031e-01 1.008406999999999982e+02 1.791670000000000073e+03
2.000000000000000042e-03 1.624519999999999853e-01 1.908114000000000088e+00 9.781494999999999607e+01 1.791460000000000036e+03
3.000000000000000062e-03 1.623469999999999913e-01 3.810603999999999658e+00 9.394925000000000637e+01 1.790670000000000073e+03
4.000000000000000083e-03 1.621865000000000112e-01 5.899258500000000183e+00 8.968940000000000623e+01 1.789500000000000000e+03
5.000000000000000104e-03 1.619995000000000185e-01 8.121100000000000207e+00 8.570914999999999395e+01 1.788139999999999873e+03
6.000000000000000125e-03 1.618074999999999930e-01 1.037395500000000048e+01 8.235024999999998840e+01 1.786755000000000109e+03
7.000000000000000146e-03 1.616205000000000003e-01 1.251135500000000178e+01 7.957835000000000036e+01 1.785420000000000073e+03
8.000000000000000167e-03 1.614435000000000175e-01 1.442035500000000070e+01 7.719764999999999588e+01 1.784180000000000064e+03
9.000000000000001055e-03 1.612804999999999933e-01 1.607365000000000066e+01 7.510079999999999245e+01 1.783045000000000073e+03
1.000000000000000194e-02 1.611339999999999995e-01 1.749385000000000190e+01 7.330365000000000464e+01 1.782045000000000073e+03
1.099999999999999936e-02 1.610064999999999968e-01 1.870074999999999932e+01 7.182545000000000357e+01 1.781180000000000064e+03
1.200000000000000025e-02 1.608979999999999855e-01 1.970309999999999917e+01 7.063779999999999859e+01 1.780450000000000045e+03
1.300000000000000114e-02 1.608070000000000055e-01 2.050869999999999749e+01 6.969089999999999918e+01 1.779845000000000027e+03
1.400000000000000203e-02 1.607314999999999994e-01 2.112590000000000146e+01 6.893025000000000091e+01 1.779349999999999909e+03
1.499999999999999944e-02 1.606695000000000206e-01 2.156585000000000107e+01 6.830134999999999934e+01 1.778954999999999927e+03
1.600000000000000033e-02 1.606174999999999964e-01 2.185470000000000113e+01 6.777700000000000102e+01 1.778625000000000000e+03
1.700000000000000122e-02 1.605769999999999975e-01 2.204560000000000031e+01 6.739689999999998804e+01 1.778375000000000000e+03
1.800000000000000211e-02 1.605485000000000106e-01 2.221424999999999983e+01 6.727809999999999491e+01 1.778204999999999927e+03
1.900000000000000300e-02 1.605369999999999853e-01 2.243684999999999974e+01 6.757265000000001010e+01 1.778144999999999982e+03
2.000000000000000042e-02 1.605455000000000076e-01 2.276304999999999978e+01 6.839470000000000027e+01 1.778220000000000027e+03
2.100000000000000130e-02 1.605765000000000109e-01 2.319784999999999897e+01 6.975620000000000687e+01 1.778440000000000055e+03
2.200000000000000219e-02 1.606285000000000074e-01 2.370085000000000264e+01 7.154479999999999507e+01 1.778800000000000182e+03
2.299999999999999961e-02 1.606960000000000055e-01 2.420040000000000191e+01 7.354739999999999611e+01 1.779264999999999873e+03
2.400000000000000050e-02 1.607724999999999849e-01 2.461614999999999753e+01 7.550669999999999504e+01 1.779795000000000073e+03
2.500000000000000139e-02 1.608485000000000054e-01 2.488074999999999903e+01 7.718684999999999263e+01 1.780320000000000164e+03
2.600000000000000228e-02 1.609170000000000045e-01 2.495514999999999972e+01 7.842664999999999509e+01 1.780795000000000073e+03
2.700000000000000316e-02 1.609720000000000040e-01 2.483409999999999940e+01 7.916674999999999329e+01 1.781190000000000055e+03
2.800000000000000058e-02 1.610125000000000028e-01 2.454160000000000252e+01 7.944679999999999609e+01 1.781485000000000127e+03
2.900000000000000147e-02 1.610375000000000001e-01 2.411979999999999791e+01 7.937770000000000437e+01 1.781670000000000073e+03
3.000000000000000236e-02 1.610515000000000141e-01 2.361459999999999937e+01 7.909995000000000687e+01 1.781775000000000091e+03
3.099999999999999978e-02 1.610564999999999913e-01 2.306394999999999840e+01 7.874215000000000941e+01 1.781825000000000045e+03
3.200000000000000067e-02 1.610570000000000057e-01 2.249040000000000106e+01 7.839159999999999684e+01 1.781835000000000036e+03
3.300000000000000155e-02 1.610540000000000027e-01 2.189974999999999739e+01 7.808225000000000193e+01 1.781819999999999936e+03
3.400000000000000244e-02 1.610500000000000265e-01 2.128555000000000064e+01 7.780049999999999955e+01 1.781795000000000073e+03
3.500000000000000333e-02 1.610429999999999917e-01 2.063584999999999781e+01 7.750374999999999659e+01 1.781755000000000109e+03
3.600000000000000422e-02 1.610340000000000105e-01 1.994160000000000110e+01 7.714480000000000359e+01 1.781700000000000045e+03
3.700000000000000511e-02 1.610210000000000252e-01 1.920309999999999917e+01 7.669444999999998913e+01 1.781615000000000009e+03
3.799999999999999906e-02 1.610040000000000082e-01 1.843374999999999986e+01 7.615715000000000146e+01 1.781505000000000109e+03
3.899999999999999994e-02 1.609845000000000026e-01 1.765980000000000061e+01 7.557614999999999839e+01 1.781375000000000000e+03
4.000000000000000083e-02 1.609634999999999816e-01 1.691714999999999947e+01 7.502725000000000932e+01 1.781235000000000127e+03
4.100000000000000172e-02 1.609440000000000037e-01 1.624490000000000123e+01 7.460390000000001010e+01 1.781105000000000018e+03
4.200000000000000261e-02 1.609295000000000031e-01 1.567820000000000036e+01 7.439740000000000464e+01 1.781009999999999991e+03
4.300000000000000350e-02 1.609229999999999827e-01 1.524150000000000027e+01 7.447624999999999318e+01 1.780960000000000036e+03
4.400000000000000439e-02 1.609265000000000001e-01 1.494405000000000072e+01 7.487109999999999843e+01 1.780974999999999909e+03
4.499999999999999833e-02 1.609415000000000151e-01 1.477795000000000059e+01 7.556655000000000655e+01 1.781074999999999818e+03
4.599999999999999922e-02 1.609680000000000000e-01 1.471930000000000049e+01 7.650239999999999441e+01 1.781240000000000009e+03
4.700000000000000011e-02 1.610024999999999928e-01 1.473179999999999978e+01 7.758225000000000193e+01 1.781470000000000027e+03
4.800000000000000100e-02 1.610425000000000051e-01 1.477175000000000082e+01 7.868809999999999150e+01 1.781735000000000127e+03
4.900000000000000189e-02 1.610845000000000193e-01 1.479405000000000037e+01 7.969655000000000200e+01 1.782019999999999982e+03
5.000000000000000278e-02 1.611239999999999895e-01 1.475675000000000026e+01 8.049455000000000382e+01 1.782279999999999973e+03
5.100000000000000366e-02 1.611560000000000215e-01 1.462555000000000049e+01 8.099190000000000111e+01 1.782500000000000000e+03
5.200000000000000455e-02 1.611779999999999879e-01 1.437565000000000026e+01 8.112845000000000084e+01 1.782650000000000091e+03
5.300000000000000544e-02 1.611869999999999969e-01 1.399295000000000044e+01 8.087649999999999295e+01 1.782715000000000146e+03
5.399999999999999939e-02 1.611819999999999919e-01 1.347330000000000005e+01 8.023909999999999343e+01 1.782684999999999945e+03
5.500000000000000028e-02 1.611615000000000131e-01 1.282124999999999915e+01 7.924445000000000050e+01 1.782554999999999836e+03
5.600000000000000117e-02 1.611269999999999925e-01 1.204809999999999981e+01 7.793899999999999295e+01 1.782319999999999936e+03
5.700000000000000205e-02 1.610794999999999866e-01 1.117000000000000171e+01 7.638034999999999286e+01 1.782005000000000109e+03
5.800000000000000294e-02 1.610205000000000108e-01 1.020645000000000024e+01 7.463100000000000023e+01 1.781605000000000018e+03
5.900000000000000383e-02 1.609520000000000117e-01 9.179135000000000488e+00 7.275405000000000655e+01 1.781144999999999982e+03
6.000000000000000472e-02 1.608765000000000056e-01 8.110990000000001032e+00 7.081055000000000632e+01 1.780630000000000109e+03
6.099999999999999867e-02 1.607965000000000089e-01 7.026239999999999597e+00 6.885845000000000482e+01 1.780090000000000146e+03
6.199999999999999956e-02 1.607144999999999824e-01 5.949955000000000105e+00 6.695310000000000628e+01 1.779534999999999854e+03
6.300000000000000044e-02 1.606319999999999970e-01 4.908240000000000158e+00 6.514809999999999945e+01 1.778970000000000027e+03
6.400000000000000133e-02 1.605524999999999869e-01 3.927999999999999936e+00 6.349589999999999179e+01 1.778429999999999836e+03
6.500000000000000222e-02 1.604780000000000095e-01 3.036634999999999973e+00 6.204860000000000753e+01 1.777924999999999955e+03
6.600000000000000311e-02 1.604105000000000114e-01 2.261501499999999609e+00 6.085735000000000383e+01 1.777460000000000036e+03
6.700000000000000400e-02 1.603529999999999955e-01 1.629091400000000078e+00 5.997149999999999892e+01 1.777065000000000055e+03
6.800000000000000488e-02 1.603064999999999907e-01 1.164114499999999941e+00 5.943694999999999595e+01 1.776744999999999891e+03
6.900000000000000577e-02 1.602750000000000008e-01 8.884246000000000087e-01 5.929415000000000191e+01 1.776519999999999982e+03
7.000000000000000666e-02 1.602589999999999848e-01 8.199894999999999268e-01 5.957540000000000191e+01 1.776400000000000091e+03
7.100000000000000755e-02 1.602605000000000002e-01 9.719839999999999591e-01 6.030335000000000178e+01 1.776404999999999973e+03
7.200000000000000844e-02 1.602804999999999924e-01 1.352093500000000059e+00 6.148895000000000266e+01 1.776525000000000091e+03
7.300000000000000933e-02 1.603205000000000047e-01 1.962051999999999907e+00 6.313065000000000282e+01 1.776784999999999854e+03
7.399999999999999634e-02 1.603800000000000225e-01 2.797549000000000063e+00 6.521425000000000693e+01 1.777170000000000073e+03
7.499999999999999722e-02 1.604585000000000039e-01 3.848405000000000076e+00 6.771309999999999718e+01 1.777690000000000055e+03
7.599999999999999811e-02 1.605550000000000033e-01 5.099035000000000650e+00 7.058984999999999843e+01 1.778335000000000036e+03
7.699999999999999900e-02 1.606690000000000063e-01 6.529205000000000148e+00 7.379795000000000016e+01 1.779099999999999909e+03
7.799999999999999989e-02 1.607989999999999975e-01 8.114940000000000708e+00 7.728444999999999254e+01 1.779970000000000027e+03
7.900000000000000078e-02 1.609424999999999883e-01 9.829485000000000028e+00 8.099199999999999022e+01 1.780940000000000055e+03
8.000000000000000167e-02 1.610975000000000046e-01 1.164453500000000119e+01 8.486220000000000141e+01 1.781985000000000127e+03
8.100000000000000255e-02 1.612609999999999877e-01 1.353134500000000173e+01 8.883764999999999645e+01 1.783099999999999909e+03
8.200000000000000344e-02 1.614320000000000199e-01 1.546154999999999902e+01 9.286455000000000837e+01 1.784255000000000109e+03
8.300000000000000433e-02 1.616070000000000007e-01 1.740830000000000055e+01 9.689445000000000618e+01 1.785449999999999818e+03
8.400000000000000522e-02 1.617850000000000121e-01 1.934725000000000250e+01 1.008868999999999971e+02 1.786670000000000073e+03
8.500000000000000611e-02 1.619630000000000236e-01 2.125675000000000026e+01 1.048080499999999944e+02 1.787889999999999873e+03
8.600000000000000699e-02 1.621405000000000207e-01 2.311860000000000070e+01 1.086345000000000027e+02 1.789110000000000127e+03
8.700000000000000788e-02 1.623155000000000014e-01 2.491825000000000045e+01 1.123504999999999967e+02 1.790320000000000164e+03
8.800000000000000877e-02 1.624875000000000069e-01 2.664464999999999861e+01 1.159480000000000075e+02 1.791505000000000109e+03
8.899999999999999578e-02 1.626555000000000084e-01 2.829025000000000034e+01 1.194265000000000043e+02 1.792670000000000073e+03
8.999999999999999667e-02 1.628200000000000203e-01 2.985060000000000002e+01 1.227925000000000040e+02 1.793815000000000055e+03
9.099999999999999756e-02 1.629805000000000004e-01 3.132379999999999853e+01 1.260540000000000020e+02 1.794924999999999955e+03
9.199999999999999845e-02 1.631365000000000176e-01 3.271009999999999707e+01 1.292245000000000061e+02 1.796019999999999982e+03
9.299999999999999933e-02 1.632890000000000175e-01 3.401129999999999853e+01 1.323170000000000073e+02 1.797085000000000036e+03
9.400000000000000022e-02 1.634390000000000009e-01 3.523004999999999853e+01 1.353445000000000107e+02 1.798134999999999991e+03
9.500000000000000111e-02 1.635860000000000092e-01 3.636955000000000382e+01 1.383170000000000073e+02 1.799160000000000082e+03
9.600000000000000200e-02 1.637299999999999867e-01 3.743274999999999864e+01 1.412429999999999950e+02 1.800170000000000073e+03
9.700000000000000289e-02 1.638724999999999765e-01 3.842219999999999658e+01 1.441279999999999859e+02 1.801170000000000073e+03
9.800000000000000377e-02 1.640125000000000055e-01 3.933979999999999677e+01 1.469730000000000132e+02 1.802154999999999973e+03
9.900000000000000466e-02 1.641505000000000047e-01 4.018635000000000446e+01 1.497740000000000009e+02 1.803130000000000109e+03
1.000000000000000056e-01 1.642870000000000164e-01 4.096184999999999832e+01 1.525260000000000105e+02 1.804089999999999918e+03
1.010000000000000064e-01 1.644204999999999972e-01 4.166519999999999868e+01 1.552185000000000059e+02 1.805035000000000082e+03
1.020000000000000073e-01 1.645520000000000038e-01 4.229429999999999978e+01 1.578394999999999868e+02 1.805960000000000036e+03
1.030000000000000082e-01 1.646805000000000074e-01 4.284649999999999892e+01 1.603750000000000000e+02 1.806865000000000009e+03
1.040000000000000091e-01 1.648044999999999927e-01 4.331844999999999857e+01 1.628095000000000141e+02 1.807744999999999891e+03
1.050000000000000100e-01 1.649249999999999883e-01 4.370645000000000380e+01 1.651274999999999977e+02 1.808595000000000027e+03
1.059999999999999970e-01 1.650404999999999789e-01 4.400679999999999836e+01 1.673125000000000000e+02 1.809409999999999854e+03
1.069999999999999979e-01 1.651499999999999913e-01 4.421574999999999989e+01 1.693505000000000109e+02 1.810190000000000055e+03
1.079999999999999988e-01 1.652529999999999832e-01 4.432999999999999829e+01 1.712280000000000086e+02 1.810924999999999955e+03
1.089999999999999997e-01 1.653494999999999826e-01 4.434669999999999845e+01 1.729325000000000045e+02 1.811610000000000127e+03
1.100000000000000006e-01 1.654384999999999883e-01 4.426384999999999792e+01 1.744549999999999841e+02 1.812240000000000009e+03
1.110000000000000014e-01 1.655194999999999861e-01 4.408019999999999783e+01 1.757884999999999991e+02 1.812815000000000055e+03
1.120000000000000023e-01 1.655925000000000036e-01 4.379560000000000031e+01 1.769279999999999973e+02 1.813340000000000146e+03
1.130000000000000032e-01 1.656559999999999977e-01 4.341089999999999804e+01 1.778714999999999975e+02 1.813799999999999955e+03
1.140000000000000041e-01 1.657119999999999982e-01 4.292844999999999800e+01 1.786210000000000093e+02 1.814199999999999818e+03
1.150000000000000050e-01 1.657584999999999753e-01 4.235144999999999982e+01 1.791794999999999902e+02 1.814534999999999854e+03
1.160000000000000059e-01 1.657959999999999989e-01 4.168475000000000108e+01 1.795534999999999854e+02 1.814809999999999945e+03
1.170000000000000068e-01 1.658260000000000012e-01 4.093415000000000248e+01 1.797529999999999859e+02 1.815029999999999973e+03
1.180000000000000077e-01 1.658475000000000088e-01 4.010670000000000357e+01 1.797900000000000205e+02 1.815184999999999945e+03
1.190000000000000085e-01 1.658605000000000218e-01 3.921045000000000158e+01 1.796765000000000043e+02 1.815284999999999854e+03
1.200000000000000094e-01 1.658669999999999867e-01 3.825430000000000064e+01 1.794294999999999902e+02 1.815339999999999918e+03
1.209999999999999964e-01 1.658665000000000000e-01 3.724784999999999968e+01 1.790654999999999859e+02 1.815345000000000027e+03
1.219999999999999973e-01 1.658604999999999940e-01 3.620109999999999673e+01 1.786020000000000039e+02 1.815309999999999945e+03
1.229999999999999982e-01 1.658489999999999964e-01 3.512415000000000020e+01 1.780575000000000045e+02 1.815230000000000018e+03
1.239999999999999991e-01 1.658324999999999938e-01 3.402725000000000222e+01 1.774484999999999957e+02 1.815125000000000000e+03
1.250000000000000000e-01 1.658125000000000016e-01 3.292014999999999958e+01 1.767914999999999850e+02 1.814990000000000009e+03
1.260000000000000009e-01 1.657899999999999929e-01 3.181214999999999904e+01 1.761039999999999850e+02 1.814829999999999927e+03
1.270000000000000018e-01 1.657649999999999957e-01 3.071164999999999878e+01 1.753979999999999961e+02 1.814654999999999973e+03
1.280000000000000027e-01 1.657379999999999964e-01 2.962630000000000052e+01 1.746860000000000070e+02 1.814465000000000146e+03
1.290000000000000036e-01 1.657095000000000096e-01 2.856240000000000023e+01 1.739774999999999920e+02 1.814269999999999982e+03
1.300000000000000044e-01 1.656809999999999949e-01 2.752499999999999858e+01 1.732785000000000082e+02 1.814065000000000055e+03
1.310000000000000053e-01 1.656515000000000071e-01 2.651805000000000234e+01 1.725949999999999989e+02 1.813855000000000018e+03
1.320000000000000062e-01 1.656225000000000058e-01 2.554404999999999859e+01 1.719275000000000091e+02 1.813650000000000091e+03
1.330000000000000071e-01 1.655935000000000046e-01 2.460415000000000063e+01 1.712750000000000057e+02 1.813444999999999936e+03
1.340000000000000080e-01 1.655645000000000033e-01 2.369819999999999993e+01 1.706359999999999957e+02 1.813240000000000009e+03
1.350000000000000089e-01 1.655360000000000165e-01 2.282504999999999740e+01 1.700040000000000191e+02 1.813029999999999973e+03
1.360000000000000098e-01 1.655070000000000152e-01 2.198250000000000171e+01 1.693739999999999952e+02 1.812824999999999818e+03
1.370000000000000107e-01 1.654780000000000140e-01 2.116729999999999734e+01 1.687370000000000232e+02 1.812619999999999891e+03
1.380000000000000115e-01 1.654484999999999983e-01 2.037590000000000146e+01 1.680849999999999795e+02 1.812404999999999973e+03
1.390000000000000124e-01 1.654180000000000095e-01 1.960399999999999920e+01 1.674089999999999918e+02 1.812190000000000055e+03
1.400000000000000133e-01 1.653870000000000062e-01 1.884714999999999918e+01 1.666995000000000005e+02 1.811965000000000146e+03
1.410000000000000142e-01 1.653540000000000010e-01 1.810094999999999743e+01 1.659484999999999957e+02 1.811735000000000127e+03
1.420000000000000151e-01 1.653195000000000081e-01 1.736110000000000042e+01 1.651490000000000009e+02 1.811490000000000009e+03
1.430000000000000160e-01 1.652830000000000132e-01 1.662359999999999971e+01 1.642930000000000064e+02 1.811230000000000018e+03
1.440000000000000169e-01 1.652440000000000020e-01 1.588514999999999944e+01 1.633764999999999930e+02 1.810954999999999927e+03
1.450000000000000178e-01 1.652020000000000155e-01 1.514304999999999879e+01 1.623965000000000032e+02 1.810659999999999854e+03
1.459999999999999909e-01 1.651575000000000126e-01 1.439539999999999864e+01 1.613514999999999873e+02 1.810345000000000027e+03
1.469999999999999918e-01 1.651104999999999934e-01 1.364134999999999920e+01 1.602429999999999950e+02 1.810014999999999873e+03
1.479999999999999927e-01 1.650610000000000133e-01 1.288090000000000046e+01 1.590729999999999791e+02 1.809659999999999854e+03
1.489999999999999936e-01 1.650079999999999880e-01 1.211506499999999953e+01 1.578480000000000132e+02 1.809289999999999964e+03
1.499999999999999944e-01 1.649530000000000163e-01 1.134579499999999896e+01 1.565740000000000123e+02 1.808900000000000091e+03
1.509999999999999953e-01 1.648955000000000004e-01 1.057591999999999999e+01 1.552604999999999791e+02 1.808500000000000000e+03
1.519999999999999962e-01 1.648360000000000103e-01 9.809184999999999377e+00 1.539175000000000182e+02 1.808085000000000036e+03
1.529999999999999971e-01 1.647750000000000048e-01 9.049889999999999546e+00 1.525564999999999998e+02 1.807655000000000200e+03
1.539999999999999980e-01 1.647129999999999983e-01 8.302839999999999776e+00 1.511895000000000095e+02 1.807220000000000027e+03
1.549999999999999989e-01 1.646505000000000052e-01 7.573299999999999699e+00 1.498294999999999959e+02 1.806779999999999973e+03
1.559999999999999998e-01 1.645880000000000121e-01 6.866550000000000153e+00 1.484890000000000043e+02 1.806340000000000146e+03
1.570000000000000007e-01 1.645260000000000056e-01 6.187910000000000466e+00 1.471800000000000068e+02 1.805904999999999973e+03
1.580000000000000016e-01 1.644645000000000135e-01 5.542469999999999786e+00 1.459134999999999991e+02 1.805474999999999909e+03
1.590000000000000024e-01 1.644045000000000090e-01 4.934915000000000163e+00 1.446999999999999886e+02 1.805055000000000064e+03
