# t [s], A [cm^2], U [cm/s], P [cPa], c [cm/s]
1.000000000000000021e-03 5.424360000000000293e-01 3.426599999999994928e-03 9.986605000000000132e+01 1.553110000000000127e+03
2.000000000000000042e-03 5.424295000000000089e-01 1.141604999999999964e-03 9.984605000000000530e+01 1.553105000000000018e+03
3.000000000000000062e-03 5.424740000000000117e-01 8.811974999999999669e-02 9.993440000000001078e+01 1.553130000000000109e+03
4.000000000000000083e-03 5.425164999999999571e-01 1.752406999999999992e-01 1.000441500000000019e+02 1.553154999999999973e+03
5.000000000000000104e-03 5.425029999999999575e-01 1.594490000000000074e-01 1.000151000000000039e+02 1.553154999999999973e+03
6.000000000000000125e-03 5.424565000000000081e-01 7.573199999999999377e-02 9.984495000000001141e+01 1.553119999999999891e+03
7.000000000000000146e-03 5.424120000000000053e-01 -1.152249999999999108e-02 9.960624999999998863e+01 1.553065000000000055e+03
8.000000000000000167e-03 5.423464999999999536e-01 -1.478335000000000621e-01 9.925849999999999795e+01 1.552990000000000009e+03
9.000000000000001055e-03 5.422335000000000349e-01 -3.890700000000000269e-01 9.871940000000000737e+01 1.552860000000000127e+03
1.000000000000000194e-02 5.420669999999999655e-01 -7.451600000000000446e-01 9.794209999999999638e+01 1.552680000000000064e+03
1.099999999999999936e-02 5.418365000000000542e-01 -1.227515000000000356e+00 9.687789999999999679e+01 1.552434999999999945e+03
1.200000000000000025e-02 5.415305000000000257e-01 -1.842519999999999936e+00 9.548134999999999195e+01 1.552095000000000027e+03
1.300000000000000114e-02 5.411630000000000607e-01 -2.544929999999999914e+00 9.376980000000000359e+01 1.551674999999999955e+03
1.400000000000000203e-02 5.407729999999999482e-01 -3.228880000000000194e+00 9.185524999999999807e+01 1.551194999999999936e+03
1.499999999999999944e-02 5.404079999999999995e-01 -3.769625000000000004e+00 8.990604999999999336e+01 1.550679999999999836e+03
1.600000000000000033e-02 5.400989999999999958e-01 -4.075440999999999647e+00 8.807984999999999332e+01 1.550175000000000182e+03
1.700000000000000122e-02 5.398545000000000149e-01 -4.115009950000000138e+00 8.647065000000000623e+01 1.549704999999999927e+03
1.800000000000000211e-02 5.396579999999999711e-01 -3.915102999999999778e+00 8.509180000000000632e+01 1.549275000000000091e+03
1.900000000000000300e-02 5.394820000000000171e-01 -3.539677499999999810e+00 8.388925000000000409e+01 1.548880000000000109e+03
2.000000000000000042e-02 5.392974999999999852e-01 -3.062959250000000022e+00 8.277234999999998877e+01 1.548505000000000109e+03
2.100000000000000130e-02 5.390854999999999952e-01 -2.545564000000000160e+00 8.164900000000000091e+01 1.548125000000000000e+03
2.200000000000000219e-02 5.388380000000000392e-01 -2.019930000000000003e+00 8.045515000000000327e+01 1.547735000000000127e+03
2.299999999999999961e-02 5.385604999999999976e-01 -1.488550000000000262e+00 7.916854999999999620e+01 1.547324999999999818e+03
2.400000000000000050e-02 5.382655000000000634e-01 -9.341699999999999449e-01 7.780490000000000350e+01 1.546900000000000091e+03
2.500000000000000139e-02 5.379669999999999730e-01 -3.364549999999999486e-01 7.640000000000000568e+01 1.546460000000000036e+03
2.600000000000000228e-02 5.376719999999999278e-01 3.122549999999999493e-01 7.498680000000000234e+01 1.546019999999999982e+03
2.700000000000000316e-02 5.373790000000000511e-01 9.975499999999999368e-01 7.357714999999998895e+01 1.545565000000000055e+03
2.800000000000000058e-02 5.370785000000000142e-01 1.681894999999999696e+00 7.215240000000000009e+01 1.545119999999999891e+03
2.900000000000000147e-02 5.367534999999999945e-01 2.310914999999999608e+00 7.066505000000000791e+01 1.544655000000000200e+03
3.000000000000000236e-02 5.363860000000000294e-01 2.824429999999999552e+00 6.904945000000000732e+01 1.544154999999999973e+03
3.099999999999999978e-02 5.359620000000000495e-01 3.169340000000000046e+00 6.723834999999999695e+01 1.543610000000000127e+03
3.200000000000000067e-02 5.354729999999999768e-01 3.311049999999999827e+00 6.518129999999999313e+01 1.543019999999999982e+03
3.300000000000000155e-02 5.349214999999999387e-01 3.241335000000000299e+00 6.285965000000000202e+01 1.542360000000000127e+03
3.400000000000000244e-02 5.343195000000000583e-01 2.979835000000000012e+00 6.029554999999999865e+01 1.541639999999999873e+03
3.500000000000000333e-02 5.336870000000000225e-01 2.570055000000000422e+00 5.755165000000000219e+01 1.540880000000000109e+03
3.600000000000000422e-02 5.330504999999999827e-01 2.071264999999999912e+00 5.472315000000000396e+01 1.540085000000000036e+03
3.700000000000000511e-02 5.324364999999999792e-01 1.547979999999999912e+00 5.192419999999999902e+01 1.539300000000000182e+03
3.799999999999999906e-02 5.318694999999999951e-01 1.061165000000000358e+00 4.927289999999999992e+01 1.538534999999999854e+03
3.899999999999999994e-02 5.313694999999999391e-01 6.615299999999999514e-01 4.687829999999999586e+01 1.537829999999999927e+03
4.000000000000000083e-02 5.309515000000000207e-01 3.864849999999999675e-01 4.483019999999999783e+01 1.537204999999999927e+03
4.100000000000000172e-02 5.306239999999999846e-01 2.600000000000002309e-01 4.319460000000000122e+01 1.536679999999999836e+03
4.200000000000000261e-02 5.303919999999999746e-01 2.946949999999999292e-01 4.201225000000000165e+01 1.536275000000000091e+03
4.300000000000000350e-02 5.302554999999999907e-01 4.951550000000000118e-01 4.130199999999999960e+01 1.535990000000000009e+03
4.400000000000000439e-02 5.302124999999999755e-01 8.613899999999999890e-01 4.106489999999999441e+01 1.535835000000000036e+03
4.499999999999999833e-02 5.302614999999999412e-01 1.391589999999999883e+00 4.128979999999999961e+01 1.535815000000000055e+03
4.599999999999999922e-02 5.303979999999999251e-01 2.083677000000000223e+00 4.195815000000000339e+01 1.535914999999999964e+03
4.700000000000000011e-02 5.306195000000000217e-01 2.935546500000000059e+00 4.304704999999999870e+01 1.536134999999999991e+03
4.800000000000000100e-02 5.309199999999999475e-01 3.944164499999999851e+00 4.453079999999999927e+01 1.536470000000000027e+03
4.900000000000000189e-02 5.312964999999999494e-01 5.104119000000000739e+00 4.638119999999999976e+01 1.536914999999999964e+03
5.000000000000000278e-02 5.317410000000000192e-01 6.406139999999999723e+00 4.856615000000000038e+01 1.537460000000000036e+03
5.100000000000000366e-02 5.322459999999999969e-01 7.836074999999999235e+00 5.104905000000000115e+01 1.538099999999999909e+03
5.200000000000000455e-02 5.328030000000000266e-01 9.374750000000000583e+00 5.378810000000000002e+01 1.538815000000000055e+03
5.300000000000000544e-02 5.334019999999999317e-01 1.099842499999999923e+01 5.673669999999999902e+01 1.539599999999999909e+03
5.399999999999999939e-02 5.340300000000000047e-01 1.268020500000000084e+01 5.984440000000000737e+01 1.540440000000000055e+03
5.500000000000000028e-02 5.346775000000000277e-01 1.439172500000000099e+01 6.305925000000000580e+01 1.541319999999999936e+03
5.600000000000000117e-02 5.353339999999999765e-01 1.610507499999999936e+01 6.633029999999999404e+01 1.542230000000000018e+03
5.700000000000000205e-02 5.359895000000000076e-01 1.779449999999999932e+01 6.961015000000000441e+01 1.543155000000000200e+03
5.800000000000000294e-02 5.366364999999999608e-01 1.943775000000000119e+01 7.285745000000000005e+01 1.544085000000000036e+03
5.900000000000000383e-02 5.372689999999999966e-01 2.101715000000000089e+01 7.603894999999999982e+01 1.545005000000000109e+03
6.000000000000000472e-02 5.378834999999999589e-01 2.251984999999999815e+01 7.913034999999999286e+01 1.545909999999999854e+03
6.099999999999999867e-02 5.384774999999999423e-01 2.393795000000000073e+01 8.211705000000000609e+01 1.546800000000000182e+03
6.199999999999999956e-02 5.390525000000000455e-01 2.526820000000000022e+01 8.499340000000000828e+01 1.547659999999999854e+03
6.300000000000000044e-02 5.396079999999999766e-01 2.651084999999999781e+01 8.776200000000000045e+01 1.548500000000000000e+03
6.400000000000000133e-02 5.401475000000000026e-01 2.766960000000000264e+01 9.043215000000000714e+01 1.549309999999999945e+03
6.500000000000000222e-02 5.406739999999999879e-01 2.875005000000000166e+01 9.301824999999999477e+01 1.550105000000000018e+03
6.600000000000000311e-02 5.411909999999999776e-01 2.975935000000000130e+01 9.553709999999999525e+01 1.550880000000000109e+03
6.700000000000000400e-02 5.417020000000000168e-01 3.070514999999999972e+01 9.800759999999999650e+01 1.551634999999999991e+03
6.800000000000000488e-02 5.422104999999999286e-01 3.159509999999999863e+01 1.004480499999999950e+02 1.552389999999999873e+03
6.900000000000000577e-02 5.427189999999999515e-01 3.243585000000000207e+01 1.028734000000000037e+02 1.553139999999999873e+03
7.000000000000000666e-02 5.432299999999999907e-01 3.323299999999999699e+01 1.052972000000000037e+02 1.553880000000000109e+03
7.100000000000000755e-02 5.437429999999999763e-01 3.399024999999999608e+01 1.077264999999999873e+02 1.554619999999999891e+03
7.200000000000000844e-02 5.442599999999999660e-01 3.470924999999999727e+01 1.101634999999999991e+02 1.555369999999999891e+03
7.300000000000000933e-02 5.447779999999999845e-01 3.538970000000000482e+01 1.126064999999999969e+02 1.556110000000000127e+03
7.399999999999999634e-02 5.452955000000000441e-01 3.602935000000000088e+01 1.150469999999999970e+02 1.556860000000000127e+03
7.499999999999999722e-02 5.458095000000000585e-01 3.662380000000000280e+01 1.174710000000000036e+02 1.557605000000000018e+03
7.599999999999999811e-02 5.463154999999999539e-01 3.716755000000000564e+01 1.198629999999999995e+02 1.558335000000000036e+03
7.699999999999999900e-02 5.468100000000000183e-01 3.765394999999999470e+01 1.222019999999999982e+02 1.559054999999999836e+03
7.799999999999999989e-02 5.472874999999999268e-01 3.807589999999999719e+01 1.244659999999999940e+02 1.559760000000000218e+03
7.900000000000000078e-02 5.477440000000000087e-01 3.842614999999999981e+01 1.266340000000000003e+02 1.560434999999999945e+03
8.000000000000000167e-02 5.481755000000000377e-01 3.869825000000000159e+01 1.286829999999999927e+02 1.561079999999999927e+03
8.100000000000000255e-02 5.485774999999999402e-01 3.888625000000000398e+01 1.305935000000000059e+02 1.561684999999999945e+03
8.200000000000000344e-02 5.489475000000000326e-01 3.898564999999999969e+01 1.323489999999999895e+02 1.562250000000000000e+03
8.300000000000000433e-02 5.492820000000000480e-01 3.899325000000000330e+01 1.339350000000000023e+02 1.562775000000000091e+03
8.400000000000000522e-02 5.495799999999999574e-01 3.890749999999999886e+01 1.353414999999999964e+02 1.563244999999999891e+03
8.500000000000000611e-02 5.498399999999999954e-01 3.872870000000000346e+01 1.365629999999999882e+02 1.563659999999999854e+03
8.600000000000000699e-02 5.500620000000000509e-01 3.845879999999999654e+01 1.375974999999999966e+02 1.564025000000000091e+03
8.700000000000000788e-02 5.502470000000000416e-01 3.810139999999999816e+01 1.384484999999999957e+02 1.564335000000000036e+03
8.800000000000000877e-02 5.503970000000000251e-01 3.766204999999999359e+01 1.391215000000000259e+02 1.564590000000000146e+03
8.899999999999999578e-02 5.505124999999999602e-01 3.714750000000000085e+01 1.396260000000000048e+02 1.564800000000000182e+03
8.999999999999999667e-02 5.505974999999999620e-01 3.656605000000000416e+01 1.399759999999999991e+02 1.564954999999999927e+03
9.099999999999999756e-02 5.506545000000000467e-01 3.592690000000000339e+01 1.401859999999999786e+02 1.565070000000000164e+03
9.199999999999999845e-02 5.506874999999999964e-01 3.524025000000000318e+01 1.402744999999999891e+02 1.565144999999999982e+03
9.299999999999999933e-02 5.506999999999999673e-01 3.451675000000000182e+01 1.402590000000000146e+02 1.565180000000000064e+03
9.400000000000000022e-02 5.506964999999999222e-01 3.376720000000000255e+01 1.401600000000000250e+02 1.565195000000000164e+03
9.500000000000000111e-02 5.506794999999999884e-01 3.300220000000000198e+01 1.399959999999999809e+02 1.565184999999999945e+03
9.600000000000000200e-02 5.506539999999999768e-01 3.223185000000000144e+01 1.397849999999999966e+02 1.565150000000000091e+03
9.700000000000000289e-02 5.506219999999999448e-01 3.146519999999999939e+01 1.395450000000000159e+02 1.565105000000000018e+03
9.800000000000000377e-02 5.505875000000000075e-01 3.071030000000000015e+01 1.392895000000000039e+02 1.565045000000000073e+03
9.900000000000000466e-02 5.505514999999999715e-01 2.997355000000000302e+01 1.390314999999999941e+02 1.564990000000000009e+03
1.000000000000000056e-01 5.505160000000000053e-01 2.925975000000000037e+01 1.387805000000000177e+02 1.564920000000000073e+03
1.010000000000000064e-01 5.504830000000000556e-01 2.857199999999999918e+01 1.385424999999999898e+02 1.564860000000000127e+03
1.020000000000000073e-01 5.504514999999999825e-01 2.791159999999999997e+01 1.383204999999999814e+02 1.564795000000000073e+03
1.030000000000000082e-01 5.504219999999999668e-01 2.727799999999999869e+01 1.381134999999999877e+02 1.564735000000000127e+03
1.040000000000000091e-01 5.503924999999999512e-01 2.666929999999999978e+01 1.379184999999999945e+02 1.564679999999999836e+03
1.050000000000000100e-01 5.503635000000000055e-01 2.608225000000000193e+01 1.377305000000000064e+02 1.564614999999999782e+03
1.059999999999999970e-01 5.503325000000000022e-01 2.551249999999999929e+01 1.375414999999999850e+02 1.564559999999999945e+03
1.069999999999999979e-01 5.502970000000000361e-01 2.495489999999999853e+01 1.373419999999999845e+02 1.564500000000000000e+03
1.079999999999999988e-01 5.502559999999999674e-01 2.440395000000000181e+01 1.371225000000000023e+02 1.564429999999999836e+03
1.089999999999999997e-01 5.502070000000000016e-01 2.385405000000000086e+01 1.368725000000000023e+02 1.564355000000000018e+03
1.100000000000000006e-01 5.501475000000000115e-01 2.329970000000000141e+01 1.365824999999999818e+02 1.564269999999999982e+03
1.110000000000000014e-01 5.500774999999999970e-01 2.273604999999999876e+01 1.362434999999999832e+02 1.564170000000000073e+03
1.120000000000000023e-01 5.499944999999999418e-01 2.215879999999999939e+01 1.358495000000000061e+02 1.564065000000000055e+03
1.130000000000000032e-01 5.498984999999999568e-01 2.156470000000000198e+01 1.353935000000000173e+02 1.563929999999999836e+03
1.140000000000000041e-01 5.497879999999999434e-01 2.095159999999999911e+01 1.348729999999999905e+02 1.563785000000000082e+03
1.150000000000000050e-01 5.496639999999999304e-01 2.031859999999999999e+01 1.342875000000000227e+02 1.563619999999999891e+03
1.160000000000000059e-01 5.495269999999999877e-01 1.966604999999999848e+01 1.336374999999999886e+02 1.563440000000000055e+03
1.170000000000000068e-01 5.493774999999999631e-01 1.899549999999999983e+01 1.329284999999999854e+02 1.563240000000000009e+03
1.180000000000000077e-01 5.492179999999999840e-01 1.831005000000000038e+01 1.321659999999999968e+02 1.563025000000000091e+03
1.190000000000000085e-01 5.490494999999999681e-01 1.761364999999999981e+01 1.313594999999999970e+02 1.562795000000000073e+03
1.200000000000000094e-01 5.488744999999999319e-01 1.691154999999999831e+01 1.305184999999999889e+02 1.562554999999999836e+03
1.209999999999999964e-01 5.486965000000000314e-01 1.620949999999999847e+01 1.296560000000000059e+02 1.562309999999999945e+03
1.219999999999999973e-01 5.485169999999999213e-01 1.551425000000000054e+01 1.287839999999999918e+02 1.562054999999999836e+03
1.229999999999999982e-01 5.483394999999999797e-01 1.483253500000000003e+01 1.279175000000000040e+02 1.561804999999999836e+03
1.239999999999999991e-01 5.481665000000000010e-01 1.417150499999999980e+01 1.270694999999999908e+02 1.561549999999999955e+03
1.250000000000000000e-01 5.480009999999999604e-01 1.353795000000000037e+01 1.262524999999999977e+02 1.561305000000000064e+03
1.260000000000000009e-01 5.478454999999999853e-01 1.293828999999999851e+01 1.254804999999999922e+02 1.561075000000000045e+03
1.270000000000000018e-01 5.477019999999999111e-01 1.237822999999999851e+01 1.247644999999999982e+02 1.560849999999999909e+03
1.280000000000000027e-01 5.475719999999999477e-01 1.186257999999999946e+01 1.241120000000000090e+02 1.560650000000000091e+03
1.290000000000000036e-01 5.474575000000000413e-01 1.139512999999999998e+01 1.235319999999999965e+02 1.560460000000000036e+03
1.300000000000000044e-01 5.473584999999999701e-01 1.097848499999999916e+01 1.230279999999999916e+02 1.560300000000000182e+03
1.310000000000000053e-01 5.472755000000000258e-01 1.061392999999999986e+01 1.226034999999999968e+02 1.560150000000000091e+03
1.320000000000000062e-01 5.472084999999999866e-01 1.030151000000000039e+01 1.222584999999999980e+02 1.560029999999999973e+03
1.330000000000000071e-01 5.471570000000000045e-01 1.004007000000000005e+01 1.219900000000000091e+02 1.559929999999999836e+03
1.340000000000000080e-01 5.471194999999999808e-01 9.827329999999999899e+00 1.217939999999999969e+02 1.559849999999999909e+03
1.350000000000000089e-01 5.470949999999999980e-01 9.660004999999999953e+00 1.216645000000000039e+02 1.559789999999999964e+03
1.360000000000000098e-01 5.470819999999999572e-01 9.534019999999999939e+00 1.215939999999999941e+02 1.559744999999999891e+03
1.370000000000000107e-01 5.470774999999999944e-01 9.444684999999999775e+00 1.215730000000000075e+02 1.559720000000000027e+03
1.380000000000000115e-01 5.470814999999999984e-01 9.386910000000000309e+00 1.215925000000000011e+02 1.559704999999999927e+03
1.390000000000000124e-01 5.470905000000000351e-01 9.355434999999999945e+00 1.216435000000000031e+02 1.559704999999999927e+03
1.400000000000000133e-01 5.471030000000000060e-01 9.344969999999999999e+00 1.217160000000000082e+02 1.559710000000000036e+03
1.410000000000000142e-01 5.471179999999999932e-01 9.350445000000000562e+00 1.218010000000000019e+02 1.559720000000000027e+03
1.420000000000000151e-01 5.471330000000000915e-01 9.367045000000000954e+00 1.218909999999999911e+02 1.559734999999999900e+03
1.430000000000000160e-01 5.471469999999999390e-01 9.390554999999999097e+00 1.219789999999999992e+02 1.559755000000000109e+03
1.440000000000000169e-01 5.471595000000000208e-01 9.417165000000000674e+00 1.220589999999999975e+02 1.559764999999999873e+03
1.450000000000000178e-01 5.471695000000000864e-01 9.443754999999999455e+00 1.221260000000000048e+02 1.559780000000000200e+03
1.459999999999999909e-01 5.471759999999999957e-01 9.467810000000000059e+00 1.221790000000000020e+02 1.559789999999999964e+03
1.469999999999999918e-01 5.471790000000000820e-01 9.487460000000000448e+00 1.222144999999999868e+02 1.559800000000000182e+03
1.479999999999999927e-01 5.471795000000000408e-01 9.501384999999999081e+00 1.222325000000000017e+02 1.559809999999999945e+03
1.489999999999999936e-01 5.471764999999999546e-01 9.508979999999999322e+00 1.222344999999999970e+02 1.559805000000000064e+03
1.499999999999999944e-01 5.471699999999999342e-01 9.509969999999999146e+00 1.222205000000000013e+02 1.559799999999999955e+03
1.509999999999999953e-01 5.471620000000000372e-01 9.504719999999998947e+00 1.221935000000000002e+02 1.559795000000000073e+03
1.519999999999999962e-01 5.471519999999999717e-01 9.493769999999999598e+00 1.221560000000000059e+02 1.559789999999999964e+03
1.529999999999999971e-01 5.471414999999999473e-01 9.478054999999999453e+00 1.221110000000000042e+02 1.559779999999999973e+03
1.539999999999999980e-01 5.471300000000000052e-01 9.458639999999999048e+00 1.220625000000000000e+02 1.559764999999999873e+03
1.549999999999999989e-01 5.471190000000000220e-01 9.436840000000000117e+00 1.220125000000000028e+02 1.559750000000000000e+03
1.559999999999999998e-01 5.471084999999999976e-01 9.413895000000000124e+00 1.219639999999999986e+02 1.559735000000000127e+03
1.570000000000000007e-01 5.470995000000000719e-01 9.391004999999999825e+00 1.219205000000000041e+02 1.559730000000000018e+03
1.580000000000000016e-01 5.470920000000000227e-01 9.369299999999999073e+00 1.218845000000000027e+02 1.559715000000000146e+03
1.590000000000000024e-01 5.470869999999999900e-01 9.349734999999999019e+00 1.218564999999999969e+02 1.559710000000000036e+03
