# t [s], A [cm^2], U [cm/s], P [cPa], c [cm/s]
1.000000000000000021e-03 1.694124999999999936e-01 3.659630500000000120e-01 9.007265000000001010e+01 2.185554999999999836e+03
2.000000000000000042e-03 1.693620000000000125e-01 1.865953999999999890e+00 8.653015000000000612e+01 2.185065000000000055e+03
3.000000000000000062e-03 1.692379999999999995e-01 3.699448999999999987e+00 8.168529999999999802e+01 2.183904999999999745e+03
4.000000000000000083e-03 1.690774999999999917e-01 5.772018499999999719e+00 7.668880000000000052e+01 2.182414999999999964e+03
5.000000000000000104e-03 1.689134999999999942e-01 7.985559999999999548e+00 7.249125000000000796e+01 2.180900000000000091e+03
6.000000000000000125e-03 1.687595000000000067e-01 1.009106000000000058e+01 6.914764999999999873e+01 2.179505000000000109e+03
7.000000000000000146e-03 1.686165000000000025e-01 1.187029000000000067e+01 6.620029999999999859e+01 2.178239999999999782e+03
8.000000000000000167e-03 1.684875000000000123e-01 1.332271499999999875e+01 6.354265000000000185e+01 2.177119999999999891e+03
9.000000000000001055e-03 1.683784999999999865e-01 1.451289999999999836e+01 6.133505000000000251e+01 2.176180000000000291e+03
1.000000000000000194e-02 1.682889999999999942e-01 1.546269999999999811e+01 5.959539999999999793e+01 2.175420000000000073e+03
1.099999999999999936e-02 1.682179999999999787e-01 1.618885000000000218e+01 5.825484999999999758e+01 2.174820000000000164e+03
1.200000000000000025e-02 1.681630000000000069e-01 1.669885000000000019e+01 5.720765000000000100e+01 2.174359999999999673e+03
1.300000000000000114e-02 1.681170000000000164e-01 1.699364999999999881e+01 5.629279999999999973e+01 2.173994999999999891e+03
1.400000000000000203e-02 1.680784999999999918e-01 1.713824999999999932e+01 5.547540000000000049e+01 2.173690000000000055e+03
1.499999999999999944e-02 1.680524999999999936e-01 1.730334999999999823e+01 5.505634999999999479e+01 2.173484999999999673e+03
1.600000000000000033e-02 1.680500000000000049e-01 1.769294999999999973e+01 5.556945000000000334e+01 2.173480000000000018e+03
1.700000000000000122e-02 1.680825000000000236e-01 1.841325000000000145e+01 5.739430000000000121e+01 2.173755000000000109e+03
1.800000000000000211e-02 1.681504999999999805e-01 1.939414999999999978e+01 6.041530000000000200e+01 2.174329999999999927e+03
1.900000000000000300e-02 1.682425000000000170e-01 2.041454999999999842e+01 6.398085000000000377e+01 2.175125000000000000e+03
2.000000000000000042e-02 1.683375000000000010e-01 2.120434999999999803e+01 6.716479999999999961e+01 2.175954999999999927e+03
2.100000000000000130e-02 1.684144999999999948e-01 2.155949999999999989e+01 6.915354999999999563e+01 2.176645000000000437e+03
2.200000000000000219e-02 1.684569999999999956e-01 2.141625000000000156e+01 6.955715000000000714e+01 2.177045000000000073e+03
2.299999999999999961e-02 1.684620000000000006e-01 2.085804999999999865e+01 6.851404999999999745e+01 2.177119999999999891e+03
2.400000000000000050e-02 1.684355000000000158e-01 2.006105000000000160e+01 6.656659999999999400e+01 2.176920000000000073e+03
2.500000000000000139e-02 1.683914999999999995e-01 1.921184999999999832e+01 6.439270000000000493e+01 2.176555000000000291e+03
2.600000000000000228e-02 1.683439999999999936e-01 1.843560000000000088e+01 6.252734999999999843e+01 2.176140000000000327e+03
2.700000000000000316e-02 1.683024999999999938e-01 1.776370000000000005e+01 6.119315000000000282e+01 2.175779999999999745e+03
2.800000000000000058e-02 1.682690000000000019e-01 1.714495000000000147e+01 6.028570000000000562e+01 2.175484999999999673e+03
2.900000000000000147e-02 1.682400000000000007e-01 1.648785000000000167e+01 5.949025000000000318e+01 2.175225000000000364e+03
3.000000000000000236e-02 1.682075000000000098e-01 1.571294999999999931e+01 5.846249999999999858e+01 2.174949999999999818e+03
3.099999999999999978e-02 1.681659999999999822e-01 1.479640000000000022e+01 5.699944999999999595e+01 2.174595000000000255e+03
3.200000000000000067e-02 1.681145000000000000e-01 1.378945000000000043e+01 5.514225000000000421e+01 2.174155000000000200e+03
3.300000000000000155e-02 1.680570000000000119e-01 1.280890000000000128e+01 5.317969999999999686e+01 2.173659999999999854e+03
3.400000000000000244e-02 1.680024999999999991e-01 1.200220000000000020e+01 5.155495000000000516e+01 2.173189999999999600e+03
3.500000000000000333e-02 1.679640000000000022e-01 1.150055000000000049e+01 5.071304999999999552e+01 2.172840000000000146e+03
3.600000000000000422e-02 1.679490000000000149e-01 1.137729999999999997e+01 5.094850000000000279e+01 2.172694999999999709e+03
3.700000000000000511e-02 1.679645000000000166e-01 1.162495000000000012e+01 5.230460000000000065e+01 2.172805000000000291e+03
3.799999999999999906e-02 1.680079999999999907e-01 1.215694999999999837e+01 5.455454999999999899e+01 2.173159999999999854e+03
3.899999999999999994e-02 1.680714999999999848e-01 1.282894999999999897e+01 5.725849999999999795e+01 2.173689999999999600e+03
4.000000000000000083e-02 1.681429999999999869e-01 1.347204999999999941e+01 5.987210000000000321e+01 2.174305000000000291e+03
4.100000000000000172e-02 1.682084999999999830e-01 1.392660000000000053e+01 6.186679999999999779e+01 2.174864999999999782e+03
4.200000000000000261e-02 1.682545000000000013e-01 1.406915000000000049e+01 6.283164999999999623e+01 2.175274999999999636e+03
4.300000000000000350e-02 1.682715000000000183e-01 1.382709999999999972e+01 6.253430000000000177e+01 2.175440000000000055e+03
4.400000000000000439e-02 1.682535000000000003e-01 1.318159999999999954e+01 6.093500000000000227e+01 2.175305000000000291e+03
4.499999999999999833e-02 1.682005000000000028e-01 1.215916999999999959e+01 5.815950000000000131e+01 2.174864999999999782e+03
4.599999999999999922e-02 1.681159999999999877e-01 1.081846999999999959e+01 5.444579999999999842e+01 2.174140000000000327e+03
4.700000000000000011e-02 1.680045000000000011e-01 9.235160000000000480e+00 5.008405000000000484e+01 2.173190000000000055e+03
4.800000000000000100e-02 1.678749999999999964e-01 7.489535000000000053e+00 4.536400000000000432e+01 2.172074999999999818e+03
4.900000000000000189e-02 1.677329999999999932e-01 5.658890000000000420e+00 4.054200000000000159e+01 2.170855000000000018e+03
5.000000000000000278e-02 1.675880000000000147e-01 3.814670500000000075e+00 3.582835000000000036e+01 2.169595000000000255e+03
5.100000000000000366e-02 1.674435000000000229e-01 2.022734999999999950e+00 3.139079999999999870e+01 2.168345000000000255e+03
5.200000000000000455e-02 1.673064999999999969e-01 3.455649999999999000e-01 2.736795000000000044e+01 2.167150000000000091e+03
5.300000000000000544e-02 1.671805000000000097e-01 -1.155954999999999844e+00 2.388315000000000055e+01 2.166059999999999945e+03
5.399999999999999939e-02 1.670709999999999973e-01 -2.422161000000000008e+00 2.105470000000000041e+01 2.165095000000000255e+03
5.500000000000000028e-02 1.669809999999999905e-01 -3.396220000000000017e+00 1.899774999999999991e+01 2.164305000000000291e+03
5.600000000000000117e-02 1.669149999999999801e-01 -4.027369999999999450e+00 1.781909999999999883e+01 2.163715000000000146e+03
5.700000000000000205e-02 1.668769999999999976e-01 -4.275164999999999438e+00 1.760620000000000118e+01 2.163360000000000127e+03
5.800000000000000294e-02 1.668680000000000163e-01 -4.113595000000000113e+00 1.841475000000000151e+01 2.163260000000000218e+03
5.900000000000000383e-02 1.668910000000000116e-01 -3.534135000000000026e+00 2.025799999999999912e+01 2.163430000000000291e+03
6.000000000000000472e-02 1.669455000000000244e-01 -2.547162500000000218e+00 2.310115000000000052e+01 2.163869999999999891e+03
6.099999999999999867e-02 1.670309999999999850e-01 -1.181385000000000129e+00 2.686104999999999876e+01 2.164585000000000036e+03
6.199999999999999956e-02 1.671440000000000148e-01 5.183750000000000302e-01 3.141219999999999857e+01 2.165539999999999964e+03
6.300000000000000044e-02 1.672819999999999863e-01 2.494664999999999910e+00 3.659734999999999872e+01 2.166715000000000146e+03
6.400000000000000133e-02 1.674395000000000189e-01 4.681500999999999912e+00 4.223949999999999960e+01 2.168059999999999945e+03
6.500000000000000222e-02 1.676120000000000110e-01 7.008659999999999890e+00 4.815510000000000446e+01 2.169545000000000073e+03
6.600000000000000311e-02 1.677939999999999987e-01 9.405744999999999578e+00 5.416610000000000014e+01 2.171114999999999782e+03
6.700000000000000400e-02 1.679800000000000182e-01 1.180606500000000025e+01 6.011014999999999731e+01 2.172730000000000018e+03
6.800000000000000488e-02 1.681650000000000089e-01 1.415005000000000024e+01 6.584940000000000282e+01 2.174349999999999909e+03
6.900000000000000577e-02 1.683459999999999956e-01 1.638795000000000002e+01 7.127710000000000434e+01 2.175930000000000291e+03
7.000000000000000666e-02 1.685185000000000155e-01 1.848239999999999839e+01 7.632245000000000346e+01 2.177449999999999818e+03
7.100000000000000755e-02 1.686814999999999842e-01 2.040954999999999941e+01 8.095255000000000223e+01 2.178885000000000218e+03
7.200000000000000844e-02 1.688330000000000108e-01 2.215975000000000250e+01 8.517215000000000202e+01 2.180225000000000364e+03
7.300000000000000933e-02 1.689729999999999843e-01 2.373635000000000161e+01 8.901990000000000691e+01 2.181474999999999909e+03
7.399999999999999634e-02 1.691034999999999899e-01 2.515465000000000018e+01 9.256200000000001182e+01 2.182635000000000218e+03
7.499999999999999722e-02 1.692249999999999865e-01 2.643834999999999980e+01 9.588344999999999629e+01 2.183724999999999909e+03
7.599999999999999811e-02 1.693410000000000193e-01 2.761720000000000041e+01 9.907869999999999777e+01 2.184755000000000109e+03
7.699999999999999900e-02 1.694530000000000203e-01 2.872279999999999944e+01 1.022407000000000039e+02 2.185760000000000218e+03
7.799999999999999989e-02 1.695645000000000069e-01 2.978560000000000230e+01 1.054509999999999934e+02 2.186750000000000000e+03
7.900000000000000078e-02 1.696774999999999811e-01 3.083210000000000051e+01 1.087760000000000105e+02 2.187755000000000109e+03
8.000000000000000167e-02 1.697925000000000129e-01 3.188260000000000005e+01 1.122564999999999884e+02 2.188784999999999854e+03
8.100000000000000255e-02 1.699120000000000075e-01 3.294955000000000211e+01 1.159089999999999918e+02 2.189845000000000255e+03
8.200000000000000344e-02 1.700365000000000071e-01 3.403725000000000023e+01 1.197240000000000038e+02 2.190944999999999709e+03
8.300000000000000433e-02 1.701644999999999963e-01 3.514170000000000016e+01 1.236709999999999923e+02 2.192085000000000036e+03
8.400000000000000522e-02 1.702960000000000029e-01 3.625150000000000006e+01 1.276959999999999980e+02 2.193250000000000000e+03
8.500000000000000611e-02 1.704289999999999972e-01 3.734900000000000375e+01 1.317339999999999804e+02 2.194434999999999945e+03
8.600000000000000699e-02 1.705615000000000048e-01 3.841195000000000448e+01 1.357074999999999818e+02 2.195619999999999891e+03
8.700000000000000788e-02 1.706920000000000104e-01 3.941519999999999868e+01 1.395374999999999943e+02 2.196780000000000200e+03
8.800000000000000877e-02 1.708175000000000110e-01 4.033270000000000266e+01 1.431454999999999984e+02 2.197900000000000091e+03
8.899999999999999578e-02 1.709360000000000046e-01 4.113880000000000337e+01 1.464579999999999984e+02 2.198960000000000036e+03
8.999999999999999667e-02 1.710450000000000026e-01 4.181064999999999543e+01 1.494125000000000227e+02 2.199940000000000055e+03
9.099999999999999756e-02 1.711425000000000030e-01 4.232869999999999777e+01 1.519599999999999795e+02 2.200824999999999818e+03
9.199999999999999845e-02 1.712279999999999913e-01 4.267860000000000298e+01 1.540645000000000095e+02 2.201595000000000255e+03
9.299999999999999933e-02 1.713000000000000078e-01 4.285174999999999557e+01 1.557090000000000032e+02 2.202244999999999891e+03
9.400000000000000022e-02 1.713569999999999816e-01 4.284555000000000291e+01 1.568935000000000173e+02 2.202774999999999636e+03
9.500000000000000111e-02 1.713999999999999968e-01 4.266384999999999650e+01 1.576315000000000168e+02 2.203170000000000073e+03
9.600000000000000200e-02 1.714295000000000124e-01 4.231669999999999732e+01 1.579555000000000007e+02 2.203444999999999709e+03
9.700000000000000289e-02 1.714459999999999873e-01 4.181919999999999504e+01 1.579085000000000036e+02 2.203610000000000127e+03
9.800000000000000377e-02 1.714509999999999923e-01 4.119134999999999991e+01 1.575450000000000159e+02 2.203664999999999964e+03
9.900000000000000466e-02 1.714459999999999873e-01 4.045635000000000048e+01 1.569254999999999995e+02 2.203630000000000109e+03
1.000000000000000056e-01 1.714320000000000010e-01 3.963954999999999984e+01 1.561139999999999759e+02 2.203519999999999982e+03
1.010000000000000064e-01 1.714120000000000088e-01 3.876715000000000089e+01 1.551759999999999877e+02 2.203349999999999909e+03
1.020000000000000073e-01 1.713874999999999982e-01 3.786509999999999820e+01 1.541719999999999970e+02 2.203135000000000218e+03
1.030000000000000082e-01 1.713604999999999989e-01 3.695749999999999602e+01 1.531589999999999918e+02 2.202899999999999636e+03
1.040000000000000091e-01 1.713324999999999987e-01 3.606605000000000416e+01 1.521845000000000141e+02 2.202650000000000091e+03
1.050000000000000100e-01 1.713044999999999984e-01 3.520889999999999986e+01 1.512870000000000061e+02 2.202404999999999745e+03
1.059999999999999970e-01 1.712790000000000146e-01 3.440005000000000024e+01 1.504934999999999832e+02 2.202175000000000182e+03
1.069999999999999979e-01 1.712549999999999906e-01 3.364900000000000091e+01 1.498209999999999980e+02 2.201960000000000036e+03
1.079999999999999988e-01 1.712345000000000117e-01 3.296054999999999779e+01 1.492725000000000080e+02 2.201775000000000091e+03
1.089999999999999997e-01 1.712174999999999947e-01 3.233449999999999847e+01 1.488405000000000200e+02 2.201614999999999782e+03
1.100000000000000006e-01 1.712029999999999941e-01 3.176629999999999754e+01 1.485079999999999814e+02 2.201485000000000127e+03
1.110000000000000014e-01 1.711914999999999965e-01 3.124755000000000038e+01 1.482475000000000023e+02 2.201375000000000000e+03
1.120000000000000023e-01 1.711814999999999864e-01 3.076635000000000275e+01 1.480255000000000223e+02 2.201284999999999854e+03
1.130000000000000032e-01 1.711729999999999918e-01 3.030835000000000079e+01 1.478025000000000091e+02 2.201195000000000164e+03
1.140000000000000041e-01 1.711630000000000096e-01 2.985790000000000077e+01 1.475384999999999991e+02 2.201109999999999673e+03
1.150000000000000050e-01 1.711524999999999852e-01 2.939890000000000114e+01 1.471915000000000191e+02 2.201010000000000218e+03
1.160000000000000059e-01 1.711395000000000000e-01 2.891590000000000060e+01 1.467239999999999895e+02 2.200890000000000327e+03
1.170000000000000068e-01 1.711219999999999963e-01 2.839509999999999934e+01 1.461050000000000182e+02 2.200735000000000127e+03
1.180000000000000077e-01 1.711004999999999887e-01 2.782529999999999859e+01 1.453084999999999809e+02 2.200545000000000073e+03
1.190000000000000085e-01 1.710734999999999895e-01 2.719865000000000066e+01 1.443215000000000146e+02 2.200304999999999836e+03
1.200000000000000094e-01 1.710404999999999842e-01 2.651109999999999900e+01 1.431384999999999934e+02 2.200015000000000327e+03
1.209999999999999964e-01 1.710019999999999873e-01 2.576285000000000025e+01 1.417665000000000077e+02 2.199675000000000182e+03
1.219999999999999973e-01 1.709579999999999989e-01 2.495810000000000173e+01 1.402224999999999966e+02 2.199284999999999854e+03
1.229999999999999982e-01 1.709080000000000044e-01 2.410510000000000019e+01 1.385335000000000036e+02 2.198845000000000255e+03
1.239999999999999991e-01 1.708544999999999925e-01 2.321569999999999823e+01 1.367350000000000136e+02 2.198369999999999891e+03
1.250000000000000000e-01 1.707974999999999910e-01 2.230429999999999779e+01 1.348700000000000045e+02 2.197864999999999782e+03
1.260000000000000009e-01 1.707385000000000153e-01 2.138745000000000118e+01 1.329830000000000041e+02 2.197345000000000255e+03
1.270000000000000018e-01 1.706785000000000108e-01 2.048275000000000290e+01 1.311210000000000093e+02 2.196809999999999945e+03
1.280000000000000027e-01 1.706195000000000073e-01 1.960764999999999958e+01 1.293300000000000125e+02 2.196284999999999854e+03
1.290000000000000036e-01 1.705625000000000058e-01 1.877874999999999872e+01 1.276529999999999916e+02 2.195779999999999745e+03
1.300000000000000044e-01 1.705090000000000217e-01 1.801105000000000089e+01 1.261254999999999882e+02 2.195300000000000182e+03
1.310000000000000053e-01 1.704594999999999860e-01 1.731700000000000017e+01 1.247769999999999868e+02 2.194859999999999673e+03
1.320000000000000062e-01 1.704154999999999975e-01 1.670589999999999975e+01 1.236269999999999953e+02 2.194460000000000036e+03
1.330000000000000071e-01 1.703775000000000150e-01 1.618410000000000082e+01 1.226889999999999930e+02 2.194114999999999782e+03
1.340000000000000080e-01 1.703459999999999974e-01 1.575414999999999921e+01 1.219645000000000010e+02 2.193829999999999927e+03
1.350000000000000089e-01 1.703210000000000002e-01 1.541544999999999987e+01 1.214484999999999957e+02 2.193600000000000364e+03
1.360000000000000098e-01 1.703020000000000089e-01 1.516430000000000078e+01 1.211280000000000001e+02 2.193420000000000073e+03
1.370000000000000107e-01 1.702889999999999959e-01 1.499415000000000120e+01 1.209825000000000017e+02 2.193300000000000182e+03
1.380000000000000115e-01 1.702815000000000023e-01 1.489625000000000021e+01 1.209894999999999925e+02 2.193229999999999563e+03
1.390000000000000124e-01 1.702784999999999993e-01 1.486029999999999873e+01 1.211204999999999927e+02 2.193194999999999709e+03
1.400000000000000133e-01 1.702795000000000003e-01 1.487460000000000093e+01 1.213470000000000084e+02 2.193199999999999818e+03
1.410000000000000142e-01 1.702845000000000053e-01 1.492709999999999937e+01 1.216394999999999982e+02 2.193234999999999673e+03
1.420000000000000151e-01 1.702909999999999979e-01 1.500574999999999903e+01 1.219699999999999989e+02 2.193295000000000073e+03
1.430000000000000160e-01 1.702990000000000059e-01 1.509895000000000032e+01 1.223125000000000000e+02 2.193359999999999673e+03
1.440000000000000169e-01 1.703080000000000149e-01 1.519589999999999996e+01 1.226434999999999889e+02 2.193434999999999945e+03
1.450000000000000178e-01 1.703164999999999818e-01 1.528719999999999857e+01 1.229429999999999978e+02 2.193510000000000218e+03
1.459999999999999909e-01 1.703244999999999898e-01 1.536485000000000056e+01 1.231970000000000027e+02 2.193579999999999927e+03
1.469999999999999918e-01 1.703314999999999968e-01 1.542265000000000086e+01 1.233925000000000125e+02 2.193644999999999982e+03
1.479999999999999927e-01 1.703370000000000162e-01 1.545619999999999905e+01 1.235234999999999985e+02 2.193695000000000164e+03
1.489999999999999936e-01 1.703405000000000058e-01 1.546300000000000097e+01 1.235879999999999939e+02 2.193724999999999909e+03
1.499999999999999944e-01 1.703425000000000078e-01 1.544234999999999935e+01 1.235875000000000057e+02 2.193739999999999782e+03
1.509999999999999953e-01 1.703425000000000078e-01 1.539509999999999934e+01 1.235275000000000034e+02 2.193744999999999891e+03
1.519999999999999962e-01 1.703405000000000058e-01 1.532385000000000019e+01 1.234164999999999992e+02 2.193730000000000018e+03
1.529999999999999971e-01 1.703375000000000028e-01 1.523220000000000063e+01 1.232650000000000006e+02 2.193704999999999927e+03
1.539999999999999980e-01 1.703334999999999988e-01 1.512459999999999916e+01 1.230860000000000127e+02 2.193670000000000073e+03
1.549999999999999989e-01 1.703284999999999938e-01 1.500619999999999976e+01 1.228930000000000007e+02 2.193630000000000109e+03
1.559999999999999998e-01 1.703230000000000022e-01 1.488220000000000098e+01 1.226980000000000075e+02 2.193579999999999927e+03
1.570000000000000007e-01 1.703175000000000106e-01 1.475769999999999982e+01 1.225140000000000100e+02 2.193529999999999745e+03
1.580000000000000016e-01 1.703125000000000056e-01 1.463724999999999987e+01 1.223495000000000061e+02 2.193485000000000127e+03
1.590000000000000024e-01 1.703075000000000006e-01 1.452469999999999928e+01 1.222139999999999986e+02 2.193444999999999709e+03
