# t [s], A [cm^2], U [cm/s], P [cPa], c [cm/s]
1.000000000000000021e-03 1.568535000000000068e-01 1.850546000000000135e-01 1.002695999999999970e+02 1.808075000000000045e+03
2.000000000000000042e-03 1.568344999999999878e-01 1.563170500000000018e+00 9.764185000000000514e+01 1.807875000000000000e+03
3.000000000000000062e-03 1.567445000000000088e-01 3.308237000000000094e+00 9.419814999999999827e+01 1.807014999999999873e+03
4.000000000000000083e-03 1.566020000000000190e-01 5.259749000000000230e+00 9.016965000000000430e+01 1.805684999999999945e+03
5.000000000000000104e-03 1.564305000000000001e-01 7.368660000000000210e+00 8.615000000000000568e+01 1.804099999999999909e+03
6.000000000000000125e-03 1.562489999999999990e-01 9.561514999999999986e+00 8.254830000000001178e+01 1.802440000000000055e+03
7.000000000000000146e-03 1.560699999999999865e-01 1.171579999999999977e+01 7.946625000000000227e+01 1.800820000000000164e+03
8.000000000000000167e-03 1.558994999999999964e-01 1.370515499999999953e+01 7.678390000000000271e+01 1.799295000000000073e+03
9.000000000000001055e-03 1.557385000000000019e-01 1.546602000000000032e+01 7.437130000000000507e+01 1.797880000000000109e+03
1.000000000000000194e-02 1.555909999999999793e-01 1.700155000000000172e+01 7.221155000000000257e+01 1.796594999999999800e+03
1.099999999999999936e-02 1.554590000000000138e-01 1.833350000000000080e+01 7.034190000000000964e+01 1.795469999999999800e+03
1.200000000000000025e-02 1.553444999999999965e-01 1.947615000000000052e+01 6.877344999999999686e+01 1.794490000000000009e+03
1.300000000000000114e-02 1.552469999999999961e-01 2.043865000000000265e+01 6.748369999999999891e+01 1.793664999999999964e+03
1.400000000000000203e-02 1.551649999999999974e-01 2.122789999999999822e+01 6.643240000000000123e+01 1.792985000000000127e+03
1.499999999999999944e-02 1.550964999999999983e-01 2.184729999999999706e+01 6.556319999999999482e+01 1.792420000000000073e+03
1.600000000000000033e-02 1.550384999999999958e-01 2.230474999999999852e+01 6.481674999999999898e+01 1.791950000000000045e+03
1.700000000000000122e-02 1.549899999999999889e-01 2.262835000000000107e+01 6.417044999999998822e+01 1.791559999999999945e+03
1.800000000000000211e-02 1.549504999999999910e-01 2.287454999999999927e+01 6.367555000000000121e+01 1.791250000000000000e+03
1.900000000000000300e-02 1.549230000000000051e-01 2.311844999999999928e+01 6.345425000000000182e+01 1.791045000000000073e+03
2.000000000000000042e-02 1.549119999999999941e-01 2.342999999999999972e+01 6.364990000000000236e+01 1.790965000000000146e+03
2.100000000000000130e-02 1.549200000000000021e-01 2.384859999999999758e+01 6.435840000000000316e+01 1.791045000000000073e+03
2.200000000000000219e-02 1.549480000000000024e-01 2.437055000000000149e+01 6.557509999999999195e+01 1.791289999999999964e+03
2.299999999999999961e-02 1.549949999999999939e-01 2.495125000000000171e+01 6.718225000000001046e+01 1.791694999999999936e+03
2.400000000000000050e-02 1.550544999999999840e-01 2.552069999999999794e+01 6.897639999999999816e+01 1.792210000000000036e+03
2.500000000000000139e-02 1.551195000000000213e-01 2.600495000000000090e+01 7.072159999999999513e+01 1.792784999999999854e+03
2.600000000000000228e-02 1.551839999999999886e-01 2.634539999999999793e+01 7.220759999999999934e+01 1.793345000000000027e+03
2.700000000000000316e-02 1.552399999999999891e-01 2.651105000000000089e+01 7.329495000000000005e+01 1.793844999999999800e+03
2.800000000000000058e-02 1.552844999999999920e-01 2.650234999999999985e+01 7.393665000000000020e+01 1.794244999999999891e+03
2.900000000000000147e-02 1.553154999999999952e-01 2.634570000000000078e+01 7.417404999999999404e+01 1.794534999999999854e+03
3.000000000000000236e-02 1.553339999999999999e-01 2.608259999999999934e+01 7.411039999999999850e+01 1.794710000000000036e+03
3.099999999999999978e-02 1.553435000000000232e-01 2.575645000000000095e+01 7.387444999999999595e+01 1.794809999999999945e+03
3.200000000000000067e-02 1.553464999999999985e-01 2.540180000000000149e+01 7.358299999999999841e+01 1.794844999999999800e+03
3.300000000000000155e-02 1.553464999999999985e-01 2.503730000000000189e+01 7.331434999999999036e+01 1.794849999999999909e+03
3.400000000000000244e-02 1.553444999999999965e-01 2.466474999999999795e+01 7.309614999999999441e+01 1.794840000000000146e+03
3.500000000000000333e-02 1.553419999999999801e-01 2.427299999999999969e+01 7.290940000000000509e+01 1.794825000000000045e+03
3.600000000000000422e-02 1.553379999999999761e-01 2.384445000000000192e+01 7.270459999999999923e+01 1.794789999999999964e+03
3.700000000000000511e-02 1.553315000000000112e-01 2.336325000000000074e+01 7.242374999999999829e+01 1.794735000000000127e+03
3.799999999999999906e-02 1.553200000000000136e-01 2.282229999999999848e+01 7.202344999999999686e+01 1.794650000000000091e+03
3.899999999999999994e-02 1.553045000000000120e-01 2.222789999999999822e+01 7.149179999999999779e+01 1.794519999999999982e+03
4.000000000000000083e-02 1.552835000000000187e-01 2.160069999999999979e+01 7.085670000000000357e+01 1.794349999999999909e+03
4.100000000000000172e-02 1.552600000000000091e-01 2.097315000000000040e+01 7.018410000000000082e+01 1.794154999999999973e+03
4.200000000000000261e-02 1.552364999999999995e-01 2.038454999999999728e+01 6.956574999999999420e+01 1.793950000000000045e+03
4.300000000000000350e-02 1.552149999999999919e-01 1.987335000000000207e+01 6.910150000000000148e+01 1.793769999999999982e+03
4.400000000000000439e-02 1.552000000000000046e-01 1.947100000000000009e+01 6.887895000000000323e+01 1.793634999999999991e+03
4.499999999999999833e-02 1.551930000000000254e-01 1.919565000000000055e+01 6.895584999999999809e+01 1.793570000000000164e+03
4.599999999999999922e-02 1.551970000000000016e-01 1.904964999999999975e+01 6.934874999999999545e+01 1.793594999999999800e+03
4.700000000000000011e-02 1.552120000000000166e-01 1.901959999999999695e+01 7.002979999999999450e+01 1.793710000000000036e+03
4.800000000000000100e-02 1.552364999999999995e-01 1.907835000000000036e+01 7.093164999999999054e+01 1.793910000000000082e+03
4.900000000000000189e-02 1.552689999999999904e-01 1.918975000000000009e+01 7.195810000000000173e+01 1.794179999999999836e+03
5.000000000000000278e-02 1.553054999999999852e-01 1.931365000000000265e+01 7.299889999999999191e+01 1.794494999999999891e+03
5.100000000000000366e-02 1.553430000000000089e-01 1.941069999999999851e+01 7.394444999999998913e+01 1.794805000000000064e+03
5.200000000000000455e-02 1.553775000000000017e-01 1.944669999999999987e+01 7.469904999999999973e+01 1.795105000000000018e+03
5.300000000000000544e-02 1.554055000000000020e-01 1.939540000000000219e+01 7.519040000000001100e+01 1.795349999999999909e+03
5.399999999999999939e-02 1.554250000000000076e-01 1.923960000000000292e+01 7.537420000000000186e+01 1.795519999999999982e+03
5.500000000000000028e-02 1.554339999999999888e-01 1.897115000000000151e+01 7.523435000000000628e+01 1.795599999999999909e+03
5.600000000000000117e-02 1.554304999999999992e-01 1.858999999999999986e+01 7.477989999999999782e+01 1.795579999999999927e+03
5.700000000000000205e-02 1.554165000000000130e-01 1.810204999999999842e+01 7.403889999999999816e+01 1.795464999999999918e+03
5.800000000000000294e-02 1.553910000000000013e-01 1.751780000000000115e+01 7.305205000000000837e+01 1.795250000000000000e+03
5.900000000000000383e-02 1.553554999999999797e-01 1.685014999999999930e+01 7.186594999999999800e+01 1.794954999999999927e+03
6.000000000000000472e-02 1.553114999999999912e-01 1.611345000000000027e+01 7.052850000000000819e+01 1.794579999999999927e+03
6.099999999999999867e-02 1.552605000000000235e-01 1.532264999999999944e+01 6.908535000000000537e+01 1.794144999999999982e+03
6.199999999999999956e-02 1.552044999999999952e-01 1.449305000000000021e+01 6.757864999999999611e+01 1.793664999999999964e+03
6.300000000000000044e-02 1.551445000000000185e-01 1.364049999999999940e+01 6.604730000000000700e+01 1.793150000000000091e+03
6.400000000000000133e-02 1.550819999999999976e-01 1.278175500000000042e+01 6.452844999999999231e+01 1.792619999999999891e+03
6.500000000000000222e-02 1.550194999999999768e-01 1.193463000000000029e+01 6.305859999999999843e+01 1.792085000000000036e+03
6.600000000000000311e-02 1.549574999999999980e-01 1.111854500000000101e+01 6.167555000000000121e+01 1.791555000000000064e+03
6.700000000000000400e-02 1.548990000000000089e-01 1.035411500000000018e+01 6.041915000000000191e+01 1.791049999999999955e+03
6.800000000000000488e-02 1.548444999999999960e-01 9.663119999999999266e+00 5.933140000000000214e+01 1.790579999999999927e+03
6.900000000000000577e-02 1.547965000000000035e-01 9.067579999999999529e+00 5.845555000000000234e+01 1.790159999999999854e+03
7.000000000000000666e-02 1.547564999999999913e-01 8.589245000000000019e+00 5.783480000000000132e+01 1.789820000000000164e+03
7.100000000000000755e-02 1.547270000000000034e-01 8.248345000000000482e+00 5.750995000000000346e+01 1.789549999999999955e+03
7.200000000000000844e-02 1.547089999999999854e-01 8.062789999999999679e+00 5.751699999999999591e+01 1.789389999999999873e+03
7.300000000000000933e-02 1.547040000000000082e-01 8.047114999999999796e+00 5.788509999999999422e+01 1.789335000000000036e+03
7.399999999999999634e-02 1.547135000000000038e-01 8.211780000000000967e+00 5.863445000000000107e+01 1.789400000000000091e+03
7.499999999999999722e-02 1.547385000000000010e-01 8.562625000000000597e+00 5.977505000000000024e+01 1.789599999999999909e+03
7.599999999999999811e-02 1.547799999999999732e-01 9.100659999999999528e+00 6.130590000000000117e+01 1.789940000000000055e+03
7.699999999999999900e-02 1.548370000000000024e-01 9.822009999999998797e+00 6.321524999999999750e+01 1.790414999999999964e+03
7.799999999999999989e-02 1.549094999999999778e-01 1.071827000000000041e+01 6.548099999999999454e+01 1.791025000000000091e+03
7.900000000000000078e-02 1.549979999999999969e-01 1.177698499999999981e+01 6.807245000000000346e+01 1.791769999999999982e+03
8.000000000000000167e-02 1.551005000000000023e-01 1.298220000000000063e+01 7.095189999999999486e+01 1.792630000000000109e+03
8.100000000000000255e-02 1.552149999999999919e-01 1.431559999999999988e+01 7.407665000000000077e+01 1.793605000000000018e+03
8.200000000000000344e-02 1.553410000000000069e-01 1.575679999999999836e+01 7.740125000000000455e+01 1.794680000000000064e+03
8.300000000000000433e-02 1.554765000000000175e-01 1.728480000000000061e+01 8.087985000000000468e+01 1.795845000000000027e+03
8.400000000000000522e-02 1.556195000000000217e-01 1.887855000000000061e+01 8.446795000000000186e+01 1.797075000000000045e+03
8.500000000000000611e-02 1.557684999999999764e-01 2.051749999999999829e+01 8.812454999999999927e+01 1.798360000000000127e+03
8.600000000000000699e-02 1.559225000000000194e-01 2.218280000000000030e+01 9.181319999999999482e+01 1.799684999999999945e+03
8.700000000000000788e-02 1.560789999999999955e-01 2.385729999999999862e+01 9.550350000000000250e+01 1.801039999999999964e+03
8.800000000000000877e-02 1.562365000000000004e-01 2.552609999999999957e+01 9.917040000000000077e+01 1.802414999999999964e+03
8.899999999999999578e-02 1.563955000000000206e-01 2.717670000000000030e+01 1.027967500000000030e+02 1.803795000000000073e+03
8.999999999999999667e-02 1.565535000000000121e-01 2.879910000000000281e+01 1.063703000000000003e+02 1.805174999999999955e+03
9.099999999999999756e-02 1.567100000000000160e-01 3.038550000000000040e+01 1.098849999999999909e+02 1.806555000000000064e+03
9.199999999999999845e-02 1.568654999999999911e-01 3.193014999999999759e+01 1.133375000000000057e+02 1.807914999999999964e+03
9.299999999999999933e-02 1.570190000000000197e-01 3.342900000000000205e+01 1.167305000000000064e+02 1.809264999999999873e+03
9.400000000000000022e-02 1.571710000000000051e-01 3.487944999999999851e+01 1.200664999999999907e+02 1.810609999999999900e+03
9.500000000000000111e-02 1.573209999999999886e-01 3.627955000000000041e+01 1.233490000000000038e+02 1.811929999999999836e+03
9.600000000000000200e-02 1.574689999999999979e-01 3.762819999999999965e+01 1.265820000000000078e+02 1.813244999999999891e+03
9.700000000000000289e-02 1.576155000000000195e-01 3.892414999999999736e+01 1.297674999999999841e+02 1.814539999999999964e+03
9.800000000000000377e-02 1.577600000000000113e-01 4.016644999999999754e+01 1.329060000000000059e+02 1.815825000000000045e+03
9.900000000000000466e-02 1.579025000000000012e-01 4.135354999999999848e+01 1.359964999999999975e+02 1.817090000000000146e+03
1.000000000000000056e-01 1.580425000000000024e-01 4.248375000000000057e+01 1.390335000000000036e+02 1.818344999999999800e+03
1.010000000000000064e-01 1.581810000000000160e-01 4.355485000000000184e+01 1.420120000000000005e+02 1.819575000000000045e+03
1.020000000000000073e-01 1.583164999999999989e-01 4.456404999999999461e+01 1.449230000000000018e+02 1.820789999999999964e+03
1.030000000000000082e-01 1.584495000000000209e-01 4.550835000000000008e+01 1.477560000000000002e+02 1.821980000000000018e+03
1.040000000000000091e-01 1.585789999999999977e-01 4.638419999999999987e+01 1.505000000000000000e+02 1.823144999999999982e+03
1.050000000000000100e-01 1.587050000000000127e-01 4.718795000000000073e+01 1.531430000000000007e+02 1.824269999999999982e+03
1.059999999999999970e-01 1.588269999999999960e-01 4.791580000000000439e+01 1.556714999999999804e+02 1.825369999999999891e+03
1.069999999999999979e-01 1.589440000000000019e-01 4.856390000000000384e+01 1.580735000000000241e+02 1.826425000000000182e+03
1.079999999999999988e-01 1.590559999999999752e-01 4.912855000000000416e+01 1.603354999999999961e+02 1.827429999999999836e+03
1.089999999999999997e-01 1.591615000000000113e-01 4.960625000000000284e+01 1.624474999999999909e+02 1.828384999999999991e+03
1.100000000000000006e-01 1.592610000000000137e-01 4.999384999999999479e+01 1.643974999999999795e+02 1.829289999999999964e+03
1.110000000000000014e-01 1.593539999999999957e-01 5.028875000000000028e+01 1.661770000000000209e+02 1.830130000000000109e+03
1.120000000000000023e-01 1.594399999999999984e-01 5.048890000000000100e+01 1.677775000000000034e+02 1.830909999999999854e+03
1.130000000000000032e-01 1.595179999999999931e-01 5.059290000000000020e+01 1.691935000000000002e+02 1.831625000000000000e+03
1.140000000000000041e-01 1.595884999999999942e-01 5.060025000000000261e+01 1.704205000000000041e+02 1.832269999999999982e+03
1.150000000000000050e-01 1.596505000000000007e-01 5.051140000000000185e+01 1.714569999999999936e+02 1.832835000000000036e+03
1.160000000000000059e-01 1.597049999999999859e-01 5.032775000000000176e+01 1.723029999999999973e+02 1.833335000000000036e+03
1.170000000000000068e-01 1.597505000000000175e-01 5.005199999999999960e+01 1.729619999999999891e+02 1.833759999999999991e+03
1.180000000000000077e-01 1.597885000000000000e-01 4.968774999999999409e+01 1.734395000000000095e+02 1.834110000000000127e+03
1.190000000000000085e-01 1.598185000000000022e-01 4.923985000000000412e+01 1.737435000000000116e+02 1.834389999999999873e+03
1.200000000000000094e-01 1.598410000000000108e-01 4.871410000000000196e+01 1.738845000000000027e+02 1.834605000000000018e+03
1.209999999999999964e-01 1.598555000000000115e-01 4.811740000000000350e+01 1.738754999999999882e+02 1.834744999999999891e+03
1.219999999999999973e-01 1.598640000000000061e-01 4.745739999999999981e+01 1.737295000000000016e+02 1.834829999999999927e+03
1.229999999999999982e-01 1.598654999999999937e-01 4.674224999999999852e+01 1.734644999999999868e+02 1.834860000000000127e+03
1.239999999999999991e-01 1.598620000000000041e-01 4.598064999999999714e+01 1.730949999999999989e+02 1.834835000000000036e+03
1.250000000000000000e-01 1.598539999999999961e-01 4.518149999999999977e+01 1.726390000000000100e+02 1.834764999999999873e+03
1.260000000000000009e-01 1.598404999999999965e-01 4.435340000000000060e+01 1.721125000000000114e+02 1.834655000000000200e+03
1.270000000000000018e-01 1.598244999999999805e-01 4.350490000000000634e+01 1.715314999999999941e+02 1.834514999999999873e+03
1.280000000000000027e-01 1.598050000000000026e-01 4.264385000000000048e+01 1.709105000000000132e+02 1.834340000000000146e+03
1.290000000000000036e-01 1.597824999999999940e-01 4.177745000000000175e+01 1.702630000000000052e+02 1.834150000000000091e+03
1.300000000000000044e-01 1.597589999999999844e-01 4.091210000000000235e+01 1.695989999999999895e+02 1.833934999999999945e+03
1.310000000000000053e-01 1.597339999999999871e-01 4.005320000000000391e+01 1.689279999999999973e+02 1.833710000000000036e+03
1.320000000000000062e-01 1.597075000000000022e-01 3.920494999999999663e+01 1.682565000000000168e+02 1.833480000000000018e+03
1.330000000000000071e-01 1.596809999999999896e-01 3.837064999999999770e+01 1.675879999999999939e+02 1.833235000000000127e+03
1.340000000000000080e-01 1.596539999999999904e-01 3.755250000000000199e+01 1.669250000000000114e+02 1.832990000000000009e+03
1.350000000000000089e-01 1.596265000000000045e-01 3.675140000000000384e+01 1.662674999999999841e+02 1.832740000000000009e+03
1.360000000000000098e-01 1.595984999999999765e-01 3.596764999999999901e+01 1.656139999999999759e+02 1.832490000000000009e+03
1.370000000000000107e-01 1.595705000000000040e-01 3.520045000000000357e+01 1.649599999999999795e+02 1.832240000000000009e+03
1.380000000000000115e-01 1.595424999999999760e-01 3.444819999999999993e+01 1.643014999999999759e+02 1.831984999999999900e+03
1.390000000000000124e-01 1.595134999999999748e-01 3.370875000000000199e+01 1.636329999999999814e+02 1.831724999999999909e+03
1.400000000000000133e-01 1.594845000000000013e-01 3.297955000000000325e+01 1.629470000000000027e+02 1.831460000000000036e+03
1.410000000000000142e-01 1.594544999999999990e-01 3.225764999999999816e+01 1.622384999999999877e+02 1.831190000000000055e+03
1.420000000000000151e-01 1.594229999999999814e-01 3.153989999999999938e+01 1.614995000000000118e+02 1.830905000000000200e+03
1.430000000000000160e-01 1.593910000000000049e-01 3.082319999999999993e+01 1.607244999999999777e+02 1.830610000000000127e+03
1.440000000000000169e-01 1.593569999999999987e-01 3.010439999999999827e+01 1.599070000000000107e+02 1.830304999999999836e+03
1.450000000000000178e-01 1.593209999999999904e-01 2.938084999999999880e+01 1.590425000000000182e+02 1.829985000000000127e+03
1.459999999999999909e-01 1.592835000000000223e-01 2.865010000000000190e+01 1.581279999999999859e+02 1.829644999999999982e+03
1.469999999999999918e-01 1.592434999999999823e-01 2.791029999999999944e+01 1.571595000000000084e+02 1.829289999999999964e+03
1.479999999999999927e-01 1.592010000000000092e-01 2.716004999999999825e+01 1.561359999999999957e+02 1.828909999999999854e+03
1.489999999999999936e-01 1.591569999999999929e-01 2.639869999999999806e+01 1.550579999999999927e+02 1.828514999999999873e+03
1.499999999999999944e-01 1.591104999999999881e-01 2.562604999999999933e+01 1.539270000000000209e+02 1.828095000000000027e+03
1.509999999999999953e-01 1.590614999999999946e-01 2.484290000000000020e+01 1.527454999999999927e+02 1.827659999999999854e+03
1.519999999999999962e-01 1.590104999999999991e-01 2.405055000000000121e+01 1.515199999999999818e+02 1.827204999999999927e+03
1.529999999999999971e-01 1.589575000000000016e-01 2.325115000000000265e+01 1.502540000000000191e+02 1.826730000000000018e+03
1.539999999999999980e-01 1.589029999999999887e-01 2.244729999999999848e+01 1.489569999999999936e+02 1.826240000000000009e+03
1.549999999999999989e-01 1.588470000000000160e-01 2.164235000000000042e+01 1.476355000000000075e+02 1.825740000000000009e+03
1.559999999999999998e-01 1.587895000000000001e-01 2.084009999999999962e+01 1.463004999999999995e+02 1.825230000000000018e+03
1.570000000000000007e-01 1.587314999999999976e-01 2.004464999999999719e+01 1.449610000000000127e+02 1.824710000000000036e+03
1.580000000000000016e-01 1.586730000000000085e-01 1.926044999999999874e+01 1.436279999999999859e+02 1.824190000000000055e+03
1.590000000000000024e-01 1.586144999999999916e-01 1.849210000000000065e+01 1.423109999999999786e+02 1.823664999999999964e+03
