# t [s], A [cm^2], U [cm/s], P [cPa], c [cm/s]
1.000000000000000021e-03 1.873659999999999770e-01 3.245415000000000383e-01 8.802305000000001201e+01 2.063605000000000018e+03
2.000000000000000042e-03 1.873115000000000197e-01 1.800757500000000011e+00 8.479755000000000109e+01 2.063170000000000073e+03
3.000000000000000062e-03 1.871714999999999907e-01 3.614986999999999728e+00 8.031995000000000573e+01 2.062109999999999673e+03
4.000000000000000083e-03 1.869854999999999989e-01 5.661680999999999742e+00 7.555365000000000464e+01 2.060715000000000146e+03
5.000000000000000104e-03 1.867904999999999982e-01 7.863699999999999690e+00 7.141899999999999693e+01 2.059264999999999873e+03
6.000000000000000125e-03 1.866070000000000229e-01 1.001112999999999964e+01 6.811610000000000298e+01 2.057920000000000073e+03
7.000000000000000146e-03 1.864365000000000050e-01 1.187097500000000139e+01 6.527885000000000559e+01 2.056699999999999818e+03
8.000000000000000167e-03 1.862814999999999888e-01 1.339366500000000038e+01 6.270000000000000284e+01 2.055605000000000018e+03
9.000000000000001055e-03 1.861484999999999945e-01 1.464249999999999829e+01 6.050169999999999959e+01 2.054679999999999836e+03
1.000000000000000194e-02 1.860380000000000089e-01 1.565034999999999954e+01 5.874879999999999569e+01 2.053920000000000073e+03
1.099999999999999936e-02 1.859494999999999898e-01 1.643534999999999968e+01 5.739639999999999986e+01 2.053320000000000164e+03
1.200000000000000025e-02 1.858810000000000184e-01 1.701914999999999978e+01 5.638575000000000159e+01 2.052860000000000127e+03
1.300000000000000114e-02 1.858285000000000076e-01 1.740514999999999901e+01 5.560640000000000072e+01 2.052510000000000218e+03
1.400000000000000203e-02 1.857854999999999923e-01 1.760804999999999865e+01 5.493245000000000289e+01 2.052239999999999782e+03
1.499999999999999944e-02 1.857515000000000138e-01 1.771979999999999933e+01 5.441624999999999801e+01 2.052025000000000091e+03
1.600000000000000033e-02 1.857354999999999978e-01 1.791339999999999932e+01 5.439065000000000083e+01 2.051934999999999945e+03
1.700000000000000122e-02 1.857489999999999974e-01 1.835665000000000191e+01 5.529695000000000249e+01 2.052039999999999964e+03
1.800000000000000211e-02 1.858019999999999949e-01 1.910575000000000045e+01 5.736039999999999850e+01 2.052400000000000091e+03
1.900000000000000300e-02 1.858914999999999873e-01 2.006029999999999802e+01 6.036844999999999573e+01 2.053019999999999982e+03
2.000000000000000042e-02 1.860025000000000150e-01 2.100155000000000172e+01 6.369569999999999510e+01 2.053795000000000073e+03
2.100000000000000130e-02 1.861125000000000140e-01 2.168420000000000059e+01 6.653955000000000553e+01 2.054569999999999709e+03
2.200000000000000219e-02 1.861975000000000158e-01 2.193254999999999910e+01 6.822964999999999236e+01 2.055184999999999945e+03
2.299999999999999961e-02 1.862425000000000053e-01 2.169944999999999879e+01 6.846625000000000227e+01 2.055534999999999854e+03
2.400000000000000050e-02 1.862435000000000063e-01 2.107045000000000101e+01 6.739625000000000909e+01 2.055574999999999818e+03
2.500000000000000139e-02 1.862099999999999866e-01 2.021555000000000035e+01 6.551085000000000491e+01 2.055359999999999673e+03
2.600000000000000228e-02 1.861565000000000025e-01 1.931725000000000136e+01 6.342504999999999882e+01 2.055005000000000109e+03
2.700000000000000316e-02 1.860999999999999877e-01 1.850484999999999758e+01 6.164419999999999789e+01 2.054610000000000127e+03
2.800000000000000058e-02 1.860519999999999952e-01 1.782124999999999915e+01 6.041004999999999825e+01 2.054269999999999982e+03
2.900000000000000147e-02 1.860149999999999859e-01 1.722794999999999987e+01 5.967020000000000124e+01 2.054005000000000109e+03
3.000000000000000236e-02 1.859875000000000000e-01 1.663774999999999693e+01 5.915895000000000437e+01 2.053804999999999836e+03
3.099999999999999978e-02 1.859594999999999998e-01 1.596124999999999972e+01 5.854059999999999775e+01 2.053609999999999673e+03
3.200000000000000067e-02 1.859239999999999782e-01 1.514880000000000138e+01 5.756015000000000015e+01 2.053365000000000236e+03
3.300000000000000155e-02 1.858765000000000001e-01 1.421610000000000085e+01 5.615174999999999983e+01 2.053039999999999964e+03
3.400000000000000244e-02 1.858184999999999976e-01 1.324624999999999986e+01 5.447480000000000189e+01 2.052644999999999982e+03
3.500000000000000333e-02 1.857584999999999931e-01 1.236744999999999983e+01 5.286899999999999977e+01 2.052220000000000255e+03
3.600000000000000422e-02 1.857070000000000110e-01 1.171555000000000035e+01 5.174564999999999770e+01 2.051859999999999673e+03
3.700000000000000511e-02 1.856780000000000097e-01 1.139304999999999879e+01 5.145560000000000400e+01 2.051634999999999764e+03
3.799999999999999906e-02 1.856789999999999830e-01 1.143854999999999933e+01 5.217709999999999582e+01 2.051630000000000109e+03
3.899999999999999994e-02 1.857135000000000036e-01 1.181585000000000107e+01 5.385895000000000010e+01 2.051849999999999909e+03
4.000000000000000083e-02 1.857769999999999977e-01 1.242190000000000083e+01 5.622955000000000325e+01 2.052269999999999982e+03
4.100000000000000172e-02 1.858595000000000108e-01 1.311030000000000051e+01 5.886119999999999663e+01 2.052835000000000036e+03
4.200000000000000261e-02 1.859454999999999858e-01 1.372135000000000105e+01 6.126534999999999798e+01 2.053424999999999727e+03
4.300000000000000350e-02 1.860205000000000053e-01 1.411030000000000051e+01 6.299009999999999820e+01 2.053954999999999927e+03
4.400000000000000439e-02 1.860694999999999988e-01 1.416920000000000002e+01 6.369780000000000086e+01 2.054309999999999945e+03
4.499999999999999833e-02 1.860829999999999984e-01 1.383784999999999954e+01 6.320919999999999561e+01 2.054414999999999964e+03
4.599999999999999922e-02 1.860554999999999848e-01 1.310495000000000054e+01 6.150985000000000014e+01 2.054239999999999782e+03
4.700000000000000011e-02 1.859864999999999990e-01 1.200047499999999978e+01 5.872560000000000002e+01 2.053784999999999854e+03
4.800000000000000100e-02 1.858815000000000051e-01 1.058350499999999883e+01 5.507789999999999964e+01 2.053059999999999945e+03
4.900000000000000189e-02 1.857460000000000222e-01 8.929005000000000081e+00 5.083310000000000173e+01 2.052130000000000109e+03
5.000000000000000278e-02 1.855890000000000040e-01 7.116439999999999877e+00 4.625894999999999868e+01 2.051039999999999964e+03
5.100000000000000366e-02 1.854190000000000005e-01 5.222648500000000027e+00 4.159444999999999482e+01 2.049855000000000018e+03
5.200000000000000455e-02 1.852439999999999920e-01 3.318424999999999958e+00 3.703739999999999810e+01 2.048634999999999764e+03
5.300000000000000544e-02 1.850714999999999999e-01 1.468445000000000222e+00 3.274535000000000196e+01 2.047424999999999955e+03
5.399999999999999939e-02 1.849069999999999880e-01 -2.670500000000002316e-01 2.884559999999999746e+01 2.046275000000000091e+03
5.500000000000000028e-02 1.847560000000000036e-01 -1.830535000000000023e+00 2.544745000000000346e+01 2.045210000000000036e+03
5.600000000000000117e-02 1.846229999999999816e-01 -3.166341500000000142e+00 2.265194999999999936e+01 2.044269999999999982e+03
5.700000000000000205e-02 1.845124999999999960e-01 -4.221479999999999677e+00 2.055620000000000047e+01 2.043484999999999900e+03
5.800000000000000294e-02 1.844294999999999962e-01 -4.947975000000000456e+00 1.925124999999999886e+01 2.042885000000000218e+03
5.900000000000000383e-02 1.843764999999999987e-01 -5.306319999999999482e+00 1.881459999999999866e+01 2.042490000000000009e+03
6.000000000000000472e-02 1.843569999999999931e-01 -5.269124999999999837e+00 1.930035000000000167e+01 2.042329999999999927e+03
6.099999999999999867e-02 1.843730000000000091e-01 -4.824265000000000470e+00 2.072960000000000136e+01 2.042414999999999964e+03
6.199999999999999956e-02 1.844250000000000056e-01 -3.976614999999999789e+00 2.308344999999999914e+01 2.042755000000000109e+03
6.300000000000000044e-02 1.845120000000000093e-01 -2.748204150000000290e+00 2.630170000000000030e+01 2.043335000000000036e+03
6.400000000000000133e-02 1.846320000000000183e-01 -1.176694999999999824e+00 3.028525000000000134e+01 2.044150000000000091e+03
6.500000000000000222e-02 1.847814999999999874e-01 6.874200000000001420e-01 3.490400000000000347e+01 2.045170000000000073e+03
6.600000000000000311e-02 1.849560000000000093e-01 2.784424999999999706e+00 4.000679999999999836e+01 2.046364999999999782e+03
6.700000000000000400e-02 1.851484999999999936e-01 5.049145999999999468e+00 4.543224999999999625e+01 2.047704999999999927e+03
6.800000000000000488e-02 1.853555000000000064e-01 7.414590000000000458e+00 5.101944999999999908e+01 2.049144999999999982e+03
6.900000000000000577e-02 1.855690000000000117e-01 9.815249999999998920e+00 5.661625000000000796e+01 2.050639999999999873e+03
7.000000000000000666e-02 1.857845000000000191e-01 1.218982000000000099e+01 6.208670000000000755e+01 2.052154999999999745e+03
7.100000000000000755e-02 1.859974999999999823e-01 1.448380000000000045e+01 6.731620000000000914e+01 2.053650000000000091e+03
7.200000000000000844e-02 1.862030000000000074e-01 1.665159999999999840e+01 7.221594999999999231e+01 2.055100000000000364e+03
7.300000000000000933e-02 1.863964999999999927e-01 1.865845000000000198e+01 7.672565000000000168e+01 2.056484999999999673e+03
7.399999999999999634e-02 1.865775000000000072e-01 2.048145000000000238e+01 8.081569999999999254e+01 2.057775000000000091e+03
7.499999999999999722e-02 1.867435000000000067e-01 2.211050000000000182e+01 8.448730000000000473e+01 2.058965000000000146e+03
7.599999999999999811e-02 1.868960000000000066e-01 2.354780000000000229e+01 8.777094999999999914e+01 2.060060000000000400e+03
7.699999999999999900e-02 1.870339999999999780e-01 2.480689999999999884e+01 9.072239999999999327e+01 2.061055000000000291e+03
7.799999999999999989e-02 1.871610000000000218e-01 2.591094999999999970e+01 9.341729999999999734e+01 2.061970000000000255e+03
7.900000000000000078e-02 1.872790000000000010e-01 2.688949999999999818e+01 9.594310000000000116e+01 2.062824999999999818e+03
8.000000000000000167e-02 1.873905000000000154e-01 2.777629999999999910e+01 9.839199999999999591e+01 2.063630000000000109e+03
8.100000000000000255e-02 1.874994999999999856e-01 2.860535000000000139e+01 1.008513499999999965e+02 2.064425000000000182e+03
8.200000000000000344e-02 1.876089999999999980e-01 2.940865000000000151e+01 1.033977500000000020e+02 2.065210000000000036e+03
8.300000000000000433e-02 1.877205000000000124e-01 3.021330000000000027e+01 1.060884999999999962e+02 2.066015000000000327e+03
8.400000000000000522e-02 1.878380000000000050e-01 3.103964999999999819e+01 1.089615000000000009e+02 2.066855000000000018e+03
8.500000000000000611e-02 1.879604999999999748e-01 3.190020000000000167e+01 1.120294999999999987e+02 2.067730000000000018e+03
8.600000000000000699e-02 1.880900000000000072e-01 3.279899999999999949e+01 1.152839999999999918e+02 2.068659999999999854e+03
8.700000000000000788e-02 1.882254999999999900e-01 3.373184999999999434e+01 1.186929999999999978e+02 2.069630000000000109e+03
8.800000000000000877e-02 1.883660000000000057e-01 3.468715000000000259e+01 1.222079999999999984e+02 2.070635000000000218e+03
8.899999999999999578e-02 1.885094999999999965e-01 3.564700000000000557e+01 1.257650000000000006e+02 2.071659999999999854e+03
8.999999999999999667e-02 1.886539999999999884e-01 3.658879999999999910e+01 1.292934999999999945e+02 2.072699999999999818e+03
9.099999999999999756e-02 1.887975000000000070e-01 3.748709999999999809e+01 1.327175000000000011e+02 2.073725000000000364e+03
9.199999999999999845e-02 1.889355000000000062e-01 3.831494999999999607e+01 1.359619999999999891e+02 2.074720000000000255e+03
9.299999999999999933e-02 1.890669999999999851e-01 3.904630000000000223e+01 1.389569999999999936e+02 2.075670000000000073e+03
9.400000000000000022e-02 1.891884999999999817e-01 3.965684999999999860e+01 1.416405000000000030e+02 2.076545000000000073e+03
9.500000000000000111e-02 1.892979999999999940e-01 4.012600000000000477e+01 1.439650000000000034e+02 2.077345000000000255e+03
9.600000000000000200e-02 1.893940000000000068e-01 4.043760000000000332e+01 1.458930000000000007e+02 2.078045000000000073e+03
9.700000000000000289e-02 1.894744999999999902e-01 4.058079999999999643e+01 1.474039999999999964e+02 2.078630000000000109e+03
9.800000000000000377e-02 1.895394999999999996e-01 4.055079999999999529e+01 1.484919999999999902e+02 2.079110000000000127e+03
9.900000000000000466e-02 1.895880000000000065e-01 4.034890000000000043e+01 1.491664999999999850e+02 2.079474999999999909e+03
1.000000000000000056e-01 1.896204999999999974e-01 3.998189999999999600e+01 1.494504999999999768e+02 2.079720000000000255e+03
1.010000000000000064e-01 1.896390000000000020e-01 3.946240000000000236e+01 1.493785000000000025e+02 2.079864999999999782e+03
1.020000000000000073e-01 1.896424999999999916e-01 3.880734999999999957e+01 1.489964999999999975e+02 2.079904999999999745e+03
1.030000000000000082e-01 1.896339999999999970e-01 3.803749999999999432e+01 1.483555000000000064e+02 2.079855000000000018e+03
1.040000000000000091e-01 1.896154999999999924e-01 3.717629999999999768e+01 1.475130000000000052e+02 2.079734999999999673e+03
1.050000000000000100e-01 1.895884999999999931e-01 3.624844999999999828e+01 1.465269999999999868e+02 2.079550000000000182e+03
1.059999999999999970e-01 1.895560000000000023e-01 3.527934999999999377e+01 1.454540000000000077e+02 2.079320000000000164e+03
1.069999999999999979e-01 1.895195000000000074e-01 3.429350000000000165e+01 1.443480000000000132e+02 2.079059999999999945e+03
1.079999999999999988e-01 1.894799999999999818e-01 3.331380000000000052e+01 1.432584999999999980e+02 2.078784999999999854e+03
1.089999999999999997e-01 1.894409999999999983e-01 3.236070000000000135e+01 1.422275000000000205e+02 2.078505000000000109e+03
1.100000000000000006e-01 1.894039999999999890e-01 3.145134999999999792e+01 1.412874999999999943e+02 2.078234999999999673e+03
1.110000000000000014e-01 1.893695000000000239e-01 3.059909999999999997e+01 1.404635000000000105e+02 2.077984999999999673e+03
1.120000000000000023e-01 1.893380000000000063e-01 2.981315000000000026e+01 1.397690000000000055e+02 2.077760000000000218e+03
1.130000000000000032e-01 1.893114999999999937e-01 2.909825000000000017e+01 1.392094999999999914e+02 2.077565000000000055e+03
1.140000000000000041e-01 1.892894999999999994e-01 2.845485000000000042e+01 1.387794999999999845e+02 2.077400000000000091e+03
1.150000000000000050e-01 1.892714999999999814e-01 2.787910000000000110e+01 1.384630000000000223e+02 2.077264999999999873e+03
1.160000000000000059e-01 1.892579999999999818e-01 2.736330000000000240e+01 1.382390000000000043e+02 2.077159999999999854e+03
1.170000000000000068e-01 1.892465000000000119e-01 2.689654999999999774e+01 1.380765000000000100e+02 2.077074999999999818e+03
1.180000000000000077e-01 1.892380000000000173e-01 2.646525000000000105e+01 1.379414999999999907e+02 2.077010000000000218e+03
1.190000000000000085e-01 1.892300000000000093e-01 2.605409999999999826e+01 1.377959999999999923e+02 2.076944999999999709e+03
1.200000000000000094e-01 1.892214999999999869e-01 2.564685000000000059e+01 1.376014999999999873e+02 2.076885000000000218e+03
1.209999999999999964e-01 1.892105000000000037e-01 2.522769999999999868e+01 1.373209999999999980e+02 2.076804999999999836e+03
1.219999999999999973e-01 1.891970000000000041e-01 2.478139999999999787e+01 1.369209999999999923e+02 2.076699999999999818e+03
1.229999999999999982e-01 1.891784999999999994e-01 2.429509999999999792e+01 1.363735000000000070e+02 2.076569999999999709e+03
1.239999999999999991e-01 1.891545000000000032e-01 2.375815000000000055e+01 1.356585000000000036e+02 2.076394999999999982e+03
1.250000000000000000e-01 1.891245000000000009e-01 2.316360000000000241e+01 1.347624999999999886e+02 2.076180000000000291e+03
1.260000000000000009e-01 1.890874999999999917e-01 2.250789999999999935e+01 1.336850000000000023e+02 2.075920000000000073e+03
1.270000000000000018e-01 1.890439999999999898e-01 2.179149999999999920e+01 1.324304999999999950e+02 2.075610000000000127e+03
1.280000000000000027e-01 1.889934999999999810e-01 2.101885000000000048e+01 1.310175000000000125e+02 2.075255000000000109e+03
1.290000000000000036e-01 1.889375000000000082e-01 2.019800000000000040e+01 1.294689999999999941e+02 2.074855000000000018e+03
1.300000000000000044e-01 1.888765000000000027e-01 1.934029999999999916e+01 1.278180000000000121e+02 2.074420000000000073e+03
1.310000000000000053e-01 1.888114999999999932e-01 1.845964999999999989e+01 1.261024999999999920e+02 2.073960000000000036e+03
1.320000000000000062e-01 1.887440000000000229e-01 1.757200000000000273e+01 1.243625000000000114e+02 2.073474999999999909e+03
1.330000000000000071e-01 1.886754999999999960e-01 1.669415000000000049e+01 1.226410000000000053e+02 2.072989999999999782e+03
1.340000000000000080e-01 1.886079999999999979e-01 1.584325000000000117e+01 1.209805000000000064e+02 2.072505000000000109e+03
1.350000000000000089e-01 1.885425000000000018e-01 1.503580000000000005e+01 1.194200000000000017e+02 2.072029999999999745e+03
1.360000000000000098e-01 1.884804999999999953e-01 1.428669999999999973e+01 1.179934999999999974e+02 2.071585000000000036e+03
1.370000000000000107e-01 1.884235000000000215e-01 1.360899999999999999e+01 1.167300000000000040e+02 2.071179999999999836e+03
1.380000000000000115e-01 1.883730000000000127e-01 1.301290000000000013e+01 1.156510000000000105e+02 2.070809999999999945e+03
1.390000000000000124e-01 1.883285000000000098e-01 1.250564999999999927e+01 1.147699999999999960e+02 2.070489999999999782e+03
1.400000000000000133e-01 1.882920000000000149e-01 1.209135000000000026e+01 1.140939999999999941e+02 2.070220000000000255e+03
1.410000000000000142e-01 1.882630000000000137e-01 1.177080000000000126e+01 1.136200000000000045e+02 2.070005000000000109e+03
1.420000000000000151e-01 1.882415000000000060e-01 1.154159999999999897e+01 1.133400000000000034e+02 2.069845000000000255e+03
1.430000000000000160e-01 1.882274999999999920e-01 1.139864999999999995e+01 1.132379999999999995e+02 2.069739999999999782e+03
1.440000000000000169e-01 1.882205000000000128e-01 1.133429999999999893e+01 1.132940000000000111e+02 2.069680000000000291e+03
1.450000000000000178e-01 1.882195000000000118e-01 1.133875000000000099e+01 1.134839999999999947e+02 2.069664999999999964e+03
1.459999999999999909e-01 1.882234999999999880e-01 1.140075000000000038e+01 1.137794999999999987e+02 2.069690000000000055e+03
1.469999999999999918e-01 1.882320000000000104e-01 1.150805000000000078e+01 1.141529999999999916e+02 2.069744999999999891e+03
1.479999999999999927e-01 1.882435000000000080e-01 1.164794999999999980e+01 1.145755000000000052e+02 2.069824999999999818e+03
1.489999999999999936e-01 1.882575000000000220e-01 1.180775000000000041e+01 1.150190000000000055e+02 2.069914999999999964e+03
1.499999999999999944e-01 1.882725000000000093e-01 1.197520000000000095e+01 1.154579999999999984e+02 2.070019999999999982e+03
1.509999999999999953e-01 1.882874999999999965e-01 1.213909999999999911e+01 1.158695000000000022e+02 2.070125000000000000e+03
1.519999999999999962e-01 1.883020000000000249e-01 1.228955000000000020e+01 1.162334999999999923e+02 2.070225000000000364e+03
1.529999999999999971e-01 1.883150000000000102e-01 1.241805000000000092e+01 1.165345000000000084e+02 2.070315000000000055e+03
1.539999999999999980e-01 1.883255000000000068e-01 1.251790000000000092e+01 1.167614999999999981e+02 2.070394999999999982e+03
1.549999999999999989e-01 1.883340000000000014e-01 1.258445000000000036e+01 1.169069999999999965e+02 2.070454999999999927e+03
1.559999999999999998e-01 1.883389999999999787e-01 1.261485000000000056e+01 1.169680000000000035e+02 2.070494999999999891e+03
1.570000000000000007e-01 1.883414999999999950e-01 1.260834999999999972e+01 1.169465000000000003e+02 2.070515000000000327e+03
1.580000000000000016e-01 1.883410000000000084e-01 1.256595000000000084e+01 1.168474999999999966e+02 2.070514999999999873e+03
1.590000000000000024e-01 1.883374999999999910e-01 1.249030000000000129e+01 1.166804999999999950e+02 2.070489999999999782e+03
