# t [s], A [cm^2], U [cm/s], P [cPa], c [cm/s]
1.000000000000000021e-03 1.459139999999999882e-01 3.608410000000000228e-01 9.915774999999999295e+01 2.044065000000000055e+03
2.000000000000000042e-03 1.458790000000000087e-01 1.925944499999999948e+00 9.576425000000000409e+01 2.043675000000000182e+03
3.000000000000000062e-03 1.457779999999999909e-01 3.826565500000000064e+00 9.123345000000000482e+01 2.042600000000000136e+03
4.000000000000000083e-03 1.456370000000000164e-01 5.942155500000000146e+00 8.638790000000000191e+01 2.041110000000000127e+03
5.000000000000000104e-03 1.454825000000000146e-01 8.200594999999999857e+00 8.208109999999999218e+01 2.039494999999999891e+03
6.000000000000000125e-03 1.453315000000000023e-01 1.043417000000000172e+01 7.857450000000000045e+01 2.037940000000000055e+03
7.000000000000000146e-03 1.451890000000000125e-01 1.244468999999999959e+01 7.562014999999999532e+01 2.036490000000000009e+03
8.000000000000000167e-03 1.450569999999999915e-01 1.415305500000000016e+01 7.298090000000000543e+01 2.035170000000000073e+03
9.000000000000001055e-03 1.449400000000000133e-01 1.559135000000000026e+01 7.068645000000000778e+01 2.034019999999999982e+03
1.000000000000000194e-02 1.448395000000000099e-01 1.679295000000000115e+01 6.880549999999999500e+01 2.033039999999999964e+03
1.099999999999999936e-02 1.447559999999999958e-01 1.777015000000000100e+01 6.731264999999999077e+01 2.032235000000000127e+03
1.200000000000000025e-02 1.446880000000000110e-01 1.853190000000000026e+01 6.613845000000000596e+01 2.031590000000000146e+03
1.300000000000000114e-02 1.446324999999999972e-01 1.908194999999999908e+01 6.518684999999999263e+01 2.031069999999999936e+03
1.400000000000000203e-02 1.445869999999999933e-01 1.943165000000000120e+01 6.435660000000000025e+01 2.030654999999999973e+03
1.499999999999999944e-02 1.445489999999999831e-01 1.963644999999999996e+01 6.364274999999999949e+01 2.030309999999999945e+03
1.600000000000000033e-02 1.445210000000000106e-01 1.981020000000000181e+01 6.322485000000000355e+01 2.030065000000000055e+03
1.700000000000000122e-02 1.445089999999999986e-01 2.008704999999999785e+01 6.341155000000000541e+01 2.029970000000000027e+03
1.800000000000000211e-02 1.445199999999999818e-01 2.055610000000000070e+01 6.445964999999999634e+01 2.030079999999999927e+03
1.900000000000000300e-02 1.445549999999999891e-01 2.121520000000000294e+01 6.639650000000000318e+01 2.030430000000000064e+03
2.000000000000000042e-02 1.446120000000000183e-01 2.197010000000000218e+01 6.896000000000000796e+01 2.030990000000000009e+03
2.100000000000000130e-02 1.446819999999999773e-01 2.267365000000000208e+01 7.167865000000000464e+01 2.031674999999999955e+03
2.200000000000000219e-02 1.447525000000000062e-01 2.318224999999999980e+01 7.403645000000000209e+01 2.032380000000000109e+03
2.299999999999999961e-02 1.448134999999999839e-01 2.340265000000000128e+01 7.564119999999999777e+01 2.032990000000000009e+03
2.400000000000000050e-02 1.448559999999999848e-01 2.331499999999999773e+01 7.633164999999999623e+01 2.033434999999999945e+03
2.500000000000000139e-02 1.448785000000000212e-01 2.296719999999999828e+01 7.619194999999999141e+01 2.033684999999999945e+03
2.600000000000000228e-02 1.448829999999999840e-01 2.244709999999999894e+01 7.548269999999999413e+01 2.033744999999999891e+03
2.700000000000000316e-02 1.448749999999999760e-01 2.184669999999999845e+01 7.452445000000000164e+01 2.033684999999999945e+03
2.800000000000000058e-02 1.448605000000000032e-01 2.123214999999999719e+01 7.358379999999999654e+01 2.033555000000000064e+03
2.900000000000000147e-02 1.448440000000000005e-01 2.062890000000000157e+01 7.280004999999999882e+01 2.033400000000000091e+03
3.000000000000000236e-02 1.448284999999999989e-01 2.002459999999999951e+01 7.217079999999999984e+01 2.033244999999999891e+03
3.099999999999999978e-02 1.448129999999999973e-01 1.938479999999999848e+01 7.158965000000000600e+01 2.033089999999999918e+03
3.200000000000000067e-02 1.447944999999999927e-01 1.867464999999999975e+01 7.091409999999999059e+01 2.032920000000000073e+03
3.300000000000000155e-02 1.447724999999999984e-01 1.787904999999999944e+01 7.003804999999999836e+01 2.032704999999999927e+03
3.400000000000000244e-02 1.447444999999999982e-01 1.701429999999999865e+01 6.894454999999999245e+01 2.032434999999999945e+03
3.500000000000000333e-02 1.447114999999999929e-01 1.612995000000000090e+01 6.772579999999999245e+01 2.032125000000000000e+03
3.600000000000000422e-02 1.446780000000000010e-01 1.529879999999999995e+01 6.656469999999998777e+01 2.031799999999999955e+03
3.700000000000000511e-02 1.446474999999999844e-01 1.459909999999999997e+01 6.568640000000000612e+01 2.031494999999999891e+03
3.799999999999999906e-02 1.446260000000000046e-01 1.409564999999999912e+01 6.529545000000000243e+01 2.031284999999999854e+03
3.899999999999999994e-02 1.446180000000000243e-01 1.382300000000000040e+01 6.551850000000000307e+01 2.031195000000000164e+03
4.000000000000000083e-02 1.446264999999999912e-01 1.377715000000000067e+01 6.636834999999999241e+01 2.031260000000000218e+03
4.100000000000000172e-02 1.446500000000000008e-01 1.391679999999999851e+01 6.773775000000000546e+01 2.031474999999999909e+03
4.200000000000000261e-02 1.446860000000000090e-01 1.417145000000000010e+01 6.942134999999998968e+01 2.031815000000000055e+03
4.300000000000000350e-02 1.447295000000000109e-01 1.445524999999999949e+01 7.115699999999999648e+01 2.032235000000000127e+03
4.400000000000000439e-02 1.447740000000000138e-01 1.468140000000000001e+01 7.267449999999999477e+01 2.032659999999999854e+03
4.499999999999999833e-02 1.448125000000000107e-01 1.477479999999999905e+01 7.374000000000000909e+01 2.033035000000000082e+03
4.599999999999999922e-02 1.448389999999999955e-01 1.468069999999999986e+01 7.418725000000000591e+01 2.033300000000000182e+03
4.700000000000000011e-02 1.448495000000000199e-01 1.436820000000000164e+01 7.393280000000000030e+01 2.033414999999999964e+03
4.800000000000000100e-02 1.448419999999999985e-01 1.382969999999999899e+01 7.297335000000001060e+01 2.033349999999999909e+03
4.900000000000000189e-02 1.448160000000000003e-01 1.307670000000000066e+01 7.137199999999999989e+01 2.033105000000000018e+03
5.000000000000000278e-02 1.447720000000000118e-01 1.213466000000000022e+01 6.923619999999999663e+01 2.032684999999999945e+03
5.100000000000000366e-02 1.447129999999999805e-01 1.103715000000000046e+01 6.669580000000000553e+01 2.032115000000000009e+03
5.200000000000000455e-02 1.446415000000000062e-01 9.821690000000000254e+00 6.388409999999999656e+01 2.031425000000000182e+03
5.300000000000000544e-02 1.445615000000000094e-01 8.526860000000000994e+00 6.092589999999999861e+01 2.030644999999999982e+03
5.399999999999999939e-02 1.444749999999999923e-01 7.191104999999999414e+00 5.793260000000000076e+01 2.029799999999999955e+03
5.500000000000000028e-02 1.443869999999999876e-01 5.852770000000000472e+00 5.500240000000000151e+01 2.028940000000000055e+03
5.600000000000000117e-02 1.442990000000000106e-01 4.550559999999999938e+00 5.222415000000000163e+01 2.028069999999999936e+03
5.700000000000000205e-02 1.442134999999999945e-01 3.324133999999999922e+00 4.968224999999999625e+01 2.027240000000000009e+03
5.800000000000000294e-02 1.441344999999999987e-01 2.213979500000000211e+00 4.745985000000000298e+01 2.026465000000000146e+03
5.900000000000000383e-02 1.440649999999999986e-01 1.260695000000000121e+00 4.563980000000000103e+01 2.025769999999999982e+03
6.000000000000000472e-02 1.440060000000000229e-01 5.035000000000000586e-01 4.430324999999999847e+01 2.025190000000000055e+03
6.099999999999999867e-02 1.439615000000000200e-01 -2.180499999999996330e-02 4.352505000000000024e+01 2.024740000000000009e+03
6.199999999999999956e-02 1.439329999999999776e-01 -2.850960000000000161e-01 4.336870000000000402e+01 2.024449999999999818e+03
6.300000000000000044e-02 1.439229999999999954e-01 -2.640500000000000069e-01 4.387999999999999545e+01 2.024335000000000036e+03
6.400000000000000133e-02 1.439330000000000054e-01 5.417349999999998555e-02 4.508265000000000100e+01 2.024409999999999854e+03
6.500000000000000222e-02 1.439634999999999942e-01 6.719330000000000025e-01 4.697480000000000189e+01 2.024690000000000055e+03
6.600000000000000311e-02 1.440144999999999897e-01 1.580896499999999927e+00 4.952844999999999942e+01 2.025164999999999964e+03
6.700000000000000400e-02 1.440854999999999775e-01 2.762619500000000006e+00 5.269089999999999918e+01 2.025839999999999918e+03
6.800000000000000488e-02 1.441755000000000120e-01 4.189779999999999838e+00 5.638850000000000051e+01 2.026700000000000045e+03
6.900000000000000577e-02 1.442815000000000070e-01 5.827974999999999461e+00 6.053149999999999409e+01 2.027724999999999909e+03
7.000000000000000666e-02 1.444024999999999892e-01 7.637760000000000105e+00 6.502034999999999343e+01 2.028894999999999982e+03
7.100000000000000755e-02 1.445345000000000102e-01 9.576989999999998560e+00 6.975194999999999368e+01 2.030179999999999836e+03
7.200000000000000844e-02 1.446755000000000124e-01 1.160295999999999950e+01 7.462575000000001069e+01 2.031555000000000064e+03
7.300000000000000933e-02 1.448224999999999929e-01 1.367474999999999952e+01 7.954939999999999145e+01 2.032994999999999891e+03
7.399999999999999634e-02 1.449725000000000041e-01 1.575474999999999959e+01 8.444344999999999857e+01 2.034469999999999800e+03
7.499999999999999722e-02 1.451235000000000164e-01 1.781064999999999898e+01 8.924465000000000714e+01 2.035960000000000036e+03
7.599999999999999811e-02 1.452734999999999999e-01 1.981609999999999872e+01 9.390799999999998704e+01 2.037445000000000164e+03
7.699999999999999900e-02 1.454205000000000081e-01 2.175159999999999982e+01 9.840789999999999793e+01 2.038900000000000091e+03
7.799999999999999989e-02 1.455644999999999856e-01 2.360435000000000016e+01 1.027355500000000035e+02 2.040335000000000036e+03
7.900000000000000078e-02 1.457034999999999858e-01 2.536795000000000044e+01 1.068991499999999917e+02 2.041735000000000127e+03
8.000000000000000167e-02 1.458395000000000108e-01 2.704144999999999754e+01 1.109184999999999945e+02 2.043090000000000146e+03
8.100000000000000255e-02 1.459719999999999906e-01 2.862830000000000297e+01 1.148215000000000003e+02 2.044420000000000073e+03
8.200000000000000344e-02 1.461009999999999809e-01 3.013479999999999848e+01 1.186409999999999911e+02 2.045714999999999918e+03
8.300000000000000433e-02 1.462280000000000246e-01 3.156884999999999764e+01 1.224079999999999870e+02 2.046994999999999891e+03
8.400000000000000522e-02 1.463534999999999975e-01 3.293880000000000052e+01 1.261519999999999868e+02 2.048264999999999873e+03
8.500000000000000611e-02 1.464785000000000115e-01 3.425180000000000291e+01 1.298930000000000007e+02 2.049519999999999982e+03
8.600000000000000699e-02 1.466029999999999833e-01 3.551355000000000217e+01 1.336444999999999936e+02 2.050779999999999745e+03
8.700000000000000788e-02 1.467275000000000107e-01 3.672719999999999629e+01 1.374095000000000084e+02 2.052034999999999854e+03
8.800000000000000877e-02 1.468524999999999969e-01 3.789329999999999643e+01 1.411814999999999998e+02 2.053295000000000073e+03
8.899999999999999578e-02 1.469765000000000099e-01 3.900960000000000605e+01 1.449440000000000168e+02 2.054555000000000291e+03
8.999999999999999667e-02 1.471009999999999818e-01 4.007125000000000625e+01 1.486750000000000114e+02 2.055809999999999945e+03
9.099999999999999756e-02 1.472235000000000071e-01 4.107120000000000459e+01 1.523444999999999823e+02 2.057055000000000291e+03
9.199999999999999845e-02 1.473444999999999894e-01 4.200070000000000192e+01 1.559189999999999827e+02 2.058284999999999854e+03
9.299999999999999933e-02 1.474624999999999964e-01 4.284954999999999359e+01 1.593634999999999877e+02 2.059484999999999673e+03
9.400000000000000022e-02 1.475764999999999993e-01 4.360705000000000098e+01 1.626415000000000077e+02 2.060640000000000327e+03
9.500000000000000111e-02 1.476854999999999973e-01 4.426245000000000118e+01 1.657185000000000059e+02 2.061755000000000109e+03
9.600000000000000200e-02 1.477884999999999893e-01 4.480549999999999500e+01 1.685625000000000000e+02 2.062805000000000291e+03
9.700000000000000289e-02 1.478845000000000021e-01 4.522719999999999629e+01 1.711460000000000150e+02 2.063784999999999854e+03
9.800000000000000377e-02 1.479719999999999924e-01 4.551984999999999815e+01 1.734465000000000146e+02 2.064690000000000055e+03
9.900000000000000466e-02 1.480515000000000025e-01 4.567815000000000225e+01 1.754474999999999909e+02 2.065505000000000109e+03
1.000000000000000056e-01 1.481215000000000170e-01 4.569894999999999641e+01 1.771394999999999982e+02 2.066230000000000018e+03
1.010000000000000064e-01 1.481830000000000092e-01 4.558194999999999908e+01 1.785194999999999936e+02 2.066864999999999782e+03
1.020000000000000073e-01 1.482340000000000046e-01 4.532970000000000255e+01 1.795919999999999845e+02 2.067394999999999982e+03
1.030000000000000082e-01 1.482760000000000189e-01 4.494764999999999588e+01 1.803684999999999832e+02 2.067835000000000036e+03
1.040000000000000091e-01 1.483085000000000098e-01 4.444395000000000095e+01 1.808679999999999950e+02 2.068175000000000182e+03
1.050000000000000100e-01 1.483319999999999916e-01 4.382934999999999803e+01 1.811144999999999925e+02 2.068435000000000400e+03
1.059999999999999970e-01 1.483479999999999799e-01 4.311675000000000324e+01 1.811379999999999768e+02 2.068600000000000364e+03
1.069999999999999979e-01 1.483565000000000023e-01 4.232059999999999889e+01 1.809689999999999941e+02 2.068704999999999927e+03
1.079999999999999988e-01 1.483585000000000043e-01 4.145669999999999789e+01 1.806440000000000055e+02 2.068734999999999673e+03
1.089999999999999997e-01 1.483555000000000013e-01 4.054090000000000060e+01 1.801970000000000027e+02 2.068704999999999927e+03
1.100000000000000006e-01 1.483475000000000210e-01 3.958934999999999604e+01 1.796619999999999777e+02 2.068635000000000218e+03
1.110000000000000014e-01 1.483365000000000100e-01 3.861715000000000231e+01 1.790705000000000098e+02 2.068524999999999636e+03
1.120000000000000023e-01 1.483229999999999826e-01 3.763839999999999719e+01 1.784505000000000052e+02 2.068400000000000091e+03
1.130000000000000032e-01 1.483079999999999954e-01 3.666525000000000034e+01 1.778255000000000052e+02 2.068244999999999891e+03
1.140000000000000041e-01 1.482920000000000071e-01 3.570815000000000339e+01 1.772139999999999986e+02 2.068085000000000036e+03
1.150000000000000050e-01 1.482749999999999901e-01 3.477500000000000568e+01 1.766279999999999859e+02 2.067914999999999964e+03
1.160000000000000059e-01 1.482590000000000019e-01 3.387134999999999962e+01 1.760745000000000005e+02 2.067755000000000109e+03
1.170000000000000068e-01 1.482430000000000136e-01 3.300050000000000239e+01 1.755564999999999998e+02 2.067585000000000036e+03
1.180000000000000077e-01 1.482279999999999986e-01 3.216315000000000168e+01 1.750685000000000002e+02 2.067430000000000291e+03
1.190000000000000085e-01 1.482130000000000114e-01 3.135810000000000031e+01 1.746039999999999850e+02 2.067275000000000091e+03
1.200000000000000094e-01 1.481979999999999964e-01 3.058210000000000051e+01 1.741510000000000105e+02 2.067125000000000000e+03
1.209999999999999964e-01 1.481834999999999958e-01 2.983044999999999902e+01 1.736955000000000098e+02 2.066970000000000255e+03
1.219999999999999973e-01 1.481685000000000085e-01 2.909720000000000084e+01 1.732205000000000155e+02 2.066820000000000164e+03
1.229999999999999982e-01 1.481529999999999792e-01 2.837559999999999860e+01 1.727090000000000032e+02 2.066659999999999854e+03
1.239999999999999991e-01 1.481370000000000187e-01 2.765859999999999985e+01 1.721444999999999936e+02 2.066484999999999673e+03
1.250000000000000000e-01 1.481179999999999997e-01 2.693934999999999746e+01 1.715104999999999791e+02 2.066295000000000073e+03
1.260000000000000009e-01 1.480980000000000074e-01 2.621130000000000138e+01 1.707939999999999827e+02 2.066085000000000036e+03
1.270000000000000018e-01 1.480744999999999978e-01 2.546900000000000119e+01 1.699834999999999923e+02 2.065849999999999909e+03
1.280000000000000027e-01 1.480489999999999862e-01 2.470799999999999841e+01 1.690720000000000027e+02 2.065590000000000146e+03
1.290000000000000036e-01 1.480204999999999993e-01 2.392560000000000286e+01 1.680550000000000068e+02 2.065295000000000073e+03
1.300000000000000044e-01 1.479884999999999950e-01 2.312040000000000006e+01 1.669350000000000023e+02 2.064975000000000364e+03
1.310000000000000053e-01 1.479535000000000156e-01 2.229314999999999714e+01 1.657164999999999964e+02 2.064619999999999891e+03
1.320000000000000062e-01 1.479154999999999776e-01 2.144624999999999915e+01 1.644085000000000036e+02 2.064235000000000127e+03
1.330000000000000071e-01 1.478745000000000198e-01 2.058380000000000010e+01 1.630264999999999986e+02 2.063819999999999709e+03
1.340000000000000080e-01 1.478319999999999912e-01 1.971164999999999878e+01 1.615860000000000127e+02 2.063385000000000218e+03
1.350000000000000089e-01 1.477870000000000017e-01 1.883684999999999832e+01 1.601084999999999923e+02 2.062930000000000291e+03
1.360000000000000098e-01 1.477410000000000112e-01 1.796759999999999735e+01 1.586150000000000091e+02 2.062465000000000146e+03
1.370000000000000107e-01 1.476939999999999920e-01 1.711285000000000167e+01 1.571310000000000002e+02 2.061994999999999891e+03
1.380000000000000115e-01 1.476474999999999871e-01 1.628154999999999930e+01 1.556779999999999973e+02 2.061515000000000327e+03
1.390000000000000124e-01 1.476014999999999966e-01 1.548295000000000066e+01 1.542794999999999845e+02 2.061055000000000291e+03
1.400000000000000133e-01 1.475569999999999937e-01 1.472555000000000014e+01 1.529565000000000055e+02 2.060600000000000364e+03
1.410000000000000142e-01 1.475144999999999929e-01 1.401689999999999969e+01 1.517259999999999991e+02 2.060164999999999964e+03
1.420000000000000151e-01 1.474739999999999940e-01 1.336364999999999981e+01 1.506034999999999968e+02 2.059760000000000218e+03
1.430000000000000160e-01 1.474374999999999991e-01 1.277079999999999949e+01 1.496000000000000227e+02 2.059385000000000218e+03
1.440000000000000169e-01 1.474034999999999929e-01 1.224189999999999934e+01 1.487219999999999800e+02 2.059034999999999854e+03
1.450000000000000178e-01 1.473734999999999906e-01 1.177875000000000050e+01 1.479719999999999800e+02 2.058730000000000018e+03
1.459999999999999909e-01 1.473475000000000201e-01 1.138159500000000079e+01 1.473495000000000061e+02 2.058460000000000036e+03
1.469999999999999918e-01 1.473250000000000115e-01 1.104902999999999835e+01 1.468495000000000061e+02 2.058224999999999909e+03
1.479999999999999927e-01 1.473065000000000069e-01 1.077820499999999981e+01 1.464635000000000105e+02 2.058034999999999854e+03
1.489999999999999936e-01 1.472910000000000053e-01 1.056500499999999931e+01 1.461809999999999832e+02 2.057869999999999891e+03
1.499999999999999944e-01 1.472789999999999933e-01 1.040438500000000133e+01 1.459900000000000091e+02 2.057744999999999891e+03
1.509999999999999953e-01 1.472700000000000120e-01 1.029036499999999954e+01 1.458759999999999764e+02 2.057649999999999636e+03
1.519999999999999962e-01 1.472630000000000050e-01 1.021655000000000157e+01 1.458255000000000052e+02 2.057579999999999927e+03
1.529999999999999971e-01 1.472590000000000010e-01 1.017616999999999905e+01 1.458230000000000075e+02 2.057525000000000091e+03
1.539999999999999980e-01 1.472559999999999980e-01 1.016249000000000002e+01 1.458550000000000182e+02 2.057489999999999782e+03
1.549999999999999989e-01 1.472549999999999970e-01 1.016883500000000140e+01 1.459085000000000036e+02 2.057474999999999909e+03
1.559999999999999998e-01 1.472539999999999960e-01 1.018902500000000089e+01 1.459714999999999918e+02 2.057465000000000146e+03
1.570000000000000007e-01 1.472545000000000104e-01 1.021722000000000108e+01 1.460329999999999870e+02 2.057465000000000146e+03
1.580000000000000016e-01 1.472549999999999970e-01 1.024831000000000003e+01 1.460840000000000032e+02 2.057465000000000146e+03
1.590000000000000024e-01 1.472549999999999970e-01 1.027783499999999961e+01 1.461179999999999950e+02 2.057465000000000146e+03
