# t [s], A [cm^2], U [cm/s], P [cPa], c [cm/s]
1.000000000000000021e-03 7.532900000000000151e-01 6.183499999999994556e-03 9.401590000000000202e+01 1.778785000000000082e+03
2.000000000000000042e-03 7.532799999999999496e-01 3.903099999999999625e-03 9.398269999999999413e+01 1.778775000000000091e+03
3.000000000000000062e-03 7.533615000000000173e-01 1.455474999999999963e-01 9.414959999999999241e+01 1.778805000000000064e+03
4.000000000000000083e-03 7.533950000000000369e-01 2.289300000000000224e-01 9.424710000000000321e+01 1.778824999999999818e+03
5.000000000000000104e-03 7.533170000000000144e-01 1.348814999999999875e-01 9.403815000000000168e+01 1.778789999999999964e+03
6.000000000000000125e-03 7.532294999999999963e-01 1.290950000000001818e-02 9.368354999999999677e+01 1.778719999999999800e+03
7.000000000000000146e-03 7.531299999999999661e-01 -1.429200000000000470e-01 9.321479999999999677e+01 1.778625000000000000e+03
8.000000000000000167e-03 7.529455000000000453e-01 -4.626749999999999474e-01 9.244900000000001228e+01 1.778474999999999909e+03
9.000000000000001055e-03 7.526729999999999254e-01 -9.522799999999999043e-01 9.132169999999999277e+01 1.778255000000000109e+03
1.000000000000000194e-02 7.522919999999999607e-01 -1.632690000000000197e+00 8.975159999999999627e+01 1.777940000000000055e+03
1.099999999999999936e-02 7.517774999999999874e-01 -2.526324999999999932e+00 8.764404999999999291e+01 1.777514999999999873e+03
1.200000000000000025e-02 7.511799999999999589e-01 -3.520544999999999813e+00 8.509425000000000239e+01 1.776990000000000009e+03
1.300000000000000114e-02 7.506154999999999911e-01 -4.377564999999999706e+00 8.243025000000000091e+01 1.776425000000000182e+03
1.400000000000000203e-02 7.501835000000000031e-01 -4.880804000000000364e+00 8.002809999999999491e+01 1.775884999999999991e+03
1.499999999999999944e-02 7.499085000000000889e-01 -4.948990000000000222e+00 7.811025000000000773e+01 1.775420000000000073e+03
1.600000000000000033e-02 7.497400000000000730e-01 -4.646974999999999412e+00 7.667060000000000741e+01 1.775039999999999964e+03
1.700000000000000122e-02 7.495960000000000401e-01 -4.126775000000000304e+00 7.552250000000000796e+01 1.774710000000000036e+03
1.800000000000000211e-02 7.493980000000000086e-01 -3.548319999999999919e+00 7.440980000000000416e+01 1.774394999999999982e+03
1.900000000000000300e-02 7.491064999999998975e-01 -3.013506500000000088e+00 7.312579999999999814e+01 1.774054999999999836e+03
2.000000000000000042e-02 7.487314999999999943e-01 -2.536639500000000158e+00 7.159170000000000300e+01 1.773674999999999955e+03
2.100000000000000130e-02 7.483159999999999812e-01 -2.061519999999999797e+00 6.986395000000000266e+01 1.773255000000000109e+03
2.200000000000000219e-02 7.479089999999999350e-01 -1.512135000000000229e+00 6.807435000000000969e+01 1.772815000000000055e+03
2.299999999999999961e-02 7.475389999999999535e-01 -8.464899999999997426e-01 6.634319999999999595e+01 1.772389999999999873e+03
2.400000000000000050e-02 7.472010000000000041e-01 -8.815499999999998337e-02 6.470980000000000132e+01 1.771969999999999800e+03
2.500000000000000139e-02 7.468569999999999931e-01 6.722849999999997994e-01 6.310434999999999661e+01 1.771559999999999945e+03
2.600000000000000228e-02 7.464505000000000168e-01 1.300635000000000208e+00 6.136399999999999721e+01 1.771125000000000000e+03
2.700000000000000316e-02 7.459240000000000315e-01 1.657155000000000378e+00 5.928225000000000477e+01 1.770634999999999991e+03
2.800000000000000058e-02 7.452410000000000423e-01 1.638175000000000381e+00 5.667694999999999794e+01 1.770039999999999964e+03
2.900000000000000147e-02 7.443969999999999754e-01 1.208460000000000090e+00 5.345534999999999570e+01 1.769319999999999936e+03
3.000000000000000236e-02 7.434239999999999737e-01 4.127799999999997027e-01 4.965394999999999470e+01 1.768494999999999891e+03
3.099999999999999978e-02 7.423839999999999328e-01 -6.378749999999993037e-01 4.543760000000000332e+01 1.767575000000000045e+03
3.200000000000000067e-02 7.413499999999999535e-01 -1.797550000000000203e+00 4.106159999999999854e+01 1.766605000000000018e+03
3.300000000000000155e-02 7.403930000000000788e-01 -2.920564999999999856e+00 3.681610000000000582e+01 1.765654999999999973e+03
3.400000000000000244e-02 7.395669999999999744e-01 -3.887990000000000279e+00 3.297119999999999607e+01 1.764759999999999991e+03
3.500000000000000333e-02 7.389045000000000751e-01 -4.620709999999999873e+00 2.973850000000000193e+01 1.763985000000000127e+03
3.600000000000000422e-02 7.384204999999999242e-01 -5.080245500000000192e+00 2.725250000000000128e+01 1.763355000000000018e+03
3.700000000000000511e-02 7.381134999999999780e-01 -5.260089999999999932e+00 2.557124999999999915e+01 1.762894999999999982e+03
3.799999999999999906e-02 7.379729999999999901e-01 -5.172984999999999722e+00 2.469035000000000224e+01 1.762610000000000127e+03
3.899999999999999994e-02 7.379845000000000432e-01 -4.837960000000000704e+00 2.456540000000000035e+01 1.762490000000000009e+03
4.000000000000000083e-02 7.381344999999999157e-01 -4.270699999999999719e+00 2.513419999999999987e+01 1.762535000000000082e+03
4.100000000000000172e-02 7.384140000000000148e-01 -3.479589000000000265e+00 2.633375000000000199e+01 1.762724999999999909e+03
4.200000000000000261e-02 7.388139999999999707e-01 -2.467589999999999950e+00 2.810750000000000171e+01 1.763055000000000064e+03
4.300000000000000350e-02 7.393274999999999153e-01 -1.238020000000000120e+00 3.040419999999999590e+01 1.763505000000000109e+03
4.400000000000000439e-02 7.399435000000000873e-01 1.986250000000002736e-01 3.317109999999999559e+01 1.764074999999999818e+03
4.499999999999999833e-02 7.406485000000000429e-01 1.819764999999999855e+00 3.634590000000000032e+01 1.764744999999999891e+03
4.599999999999999922e-02 7.414224999999999843e-01 3.589115000000000499e+00 3.985199999999999676e+01 1.765494999999999891e+03
4.700000000000000011e-02 7.422419999999999574e-01 5.458750000000000213e+00 4.359790000000000276e+01 1.766309999999999945e+03
4.800000000000000100e-02 7.430830000000000490e-01 7.373640499999999598e+00 4.748165000000000191e+01 1.767164999999999964e+03
4.900000000000000189e-02 7.439200000000000257e-01 9.277810000000000556e+00 5.139855000000000018e+01 1.768049999999999955e+03
5.000000000000000278e-02 7.447329999999999783e-01 1.111990999999999907e+01 5.525055000000000405e+01 1.768924999999999955e+03
5.100000000000000366e-02 7.455054999999999321e-01 1.285798000000000130e+01 5.895474999999999710e+01 1.769784999999999854e+03
5.200000000000000455e-02 7.462280000000000024e-01 1.446208500000000008e+01 6.244959999999999667e+01 1.770610000000000127e+03
5.300000000000000544e-02 7.468954999999999345e-01 1.591484999999999950e+01 6.569849999999999568e+01 1.771394999999999982e+03
5.399999999999999939e-02 7.475089999999999790e-01 1.721085000000000065e+01 6.868959999999999866e+01 1.772119999999999891e+03
5.500000000000000028e-02 7.480744999999999756e-01 1.835450000000000159e+01 7.143334999999999013e+01 1.772800000000000182e+03
5.600000000000000117e-02 7.485995000000000843e-01 1.935800000000000054e+01 7.395855000000000246e+01 1.773430000000000064e+03
5.700000000000000205e-02 7.490950000000000664e-01 2.023879999999999768e+01 7.630709999999999127e+01 1.774019999999999982e+03
5.800000000000000294e-02 7.495720000000000161e-01 2.101789999999999736e+01 7.852940000000000964e+01 1.774579999999999927e+03
5.900000000000000383e-02 7.500419999999999865e-01 2.171764999999999901e+01 8.067885000000001128e+01 1.775119999999999891e+03
6.000000000000000472e-02 7.505155000000000021e-01 2.236050000000000182e+01 8.280785000000000196e+01 1.775650000000000091e+03
6.099999999999999867e-02 7.510010000000000296e-01 2.296665000000000134e+01 8.496280000000000143e+01 1.776179999999999836e+03
6.199999999999999956e-02 7.515060000000000073e-01 2.355304999999999893e+01 8.718059999999999832e+01 1.776724999999999909e+03
6.300000000000000044e-02 7.520329999999999515e-01 2.413129999999999953e+01 8.948505000000000109e+01 1.777279999999999973e+03
6.400000000000000133e-02 7.525830000000000020e-01 2.470720000000000027e+01 9.188469999999999516e+01 1.777855000000000018e+03
6.500000000000000222e-02 7.531520000000000437e-01 2.528009999999999735e+01 9.437219999999999231e+01 1.778449999999999818e+03
6.600000000000000311e-02 7.537329999999999863e-01 2.584329999999999927e+01 9.692484999999999218e+01 1.779059999999999945e+03
6.700000000000000400e-02 7.543169999999999042e-01 2.638520000000000110e+01 9.950804999999999723e+01 1.779674999999999955e+03
6.800000000000000488e-02 7.548934999999999951e-01 2.689079999999999870e+01 1.020762000000000000e+02 1.780295000000000073e+03
6.900000000000000577e-02 7.554510000000000947e-01 2.734345000000000070e+01 1.045790000000000077e+02 1.780894999999999982e+03
7.000000000000000666e-02 7.559789999999999566e-01 2.772615000000000052e+01 1.069669999999999987e+02 1.781474999999999909e+03
7.100000000000000755e-02 7.564670000000000005e-01 2.802345000000000041e+01 1.091905000000000001e+02 1.782025000000000091e+03
7.200000000000000844e-02 7.569069999999999965e-01 2.822230000000000061e+01 1.112085000000000008e+02 1.782525000000000091e+03
7.300000000000000933e-02 7.572915000000000063e-01 2.831280000000000285e+01 1.129865000000000066e+02 1.782980000000000018e+03
7.399999999999999634e-02 7.576184999999999725e-01 2.828885000000000005e+01 1.145020000000000095e+02 1.783369999999999891e+03
7.499999999999999722e-02 7.578850000000000309e-01 2.814835000000000065e+01 1.157415000000000020e+02 1.783710000000000036e+03
7.599999999999999811e-02 7.580909999999999593e-01 2.789314999999999856e+01 1.167019999999999982e+02 1.783974999999999909e+03
7.699999999999999900e-02 7.582394999999999552e-01 2.752895000000000181e+01 1.173930000000000007e+02 1.784180000000000064e+03
7.799999999999999989e-02 7.583355000000000512e-01 2.706535000000000224e+01 1.178309999999999889e+02 1.784329999999999927e+03
7.900000000000000078e-02 7.583839999999999471e-01 2.651500000000000057e+01 1.180420000000000016e+02 1.784420000000000073e+03
8.000000000000000167e-02 7.583925000000000249e-01 2.589320000000000022e+01 1.180579999999999927e+02 1.784460000000000036e+03
8.100000000000000255e-02 7.583699999999999886e-01 2.521740000000000137e+01 1.179149999999999920e+02 1.784465000000000146e+03
8.200000000000000344e-02 7.583244999999999569e-01 2.450609999999999999e+01 1.176534999999999940e+02 1.784430000000000064e+03
8.300000000000000433e-02 7.582645000000000080e-01 2.377779999999999916e+01 1.173129999999999882e+02 1.784375000000000000e+03
8.400000000000000522e-02 7.581979999999999276e-01 2.305044999999999789e+01 1.169320000000000022e+02 1.784305000000000064e+03
8.500000000000000611e-02 7.581335000000000157e-01 2.234024999999999750e+01 1.165465000000000089e+02 1.784230000000000018e+03
8.600000000000000699e-02 7.580750000000000544e-01 2.166055000000000064e+01 1.161869999999999976e+02 1.784154999999999973e+03
8.700000000000000788e-02 7.580275000000000762e-01 2.102195000000000036e+01 1.158760000000000048e+02 1.784085000000000036e+03
8.800000000000000877e-02 7.579945000000000155e-01 2.043110000000000070e+01 1.156295000000000073e+02 1.784025000000000091e+03
8.899999999999999578e-02 7.579765000000000530e-01 1.989090000000000202e+01 1.154559999999999889e+02 1.783980000000000018e+03
8.999999999999999667e-02 7.579720000000000901e-01 1.940064999999999884e+01 1.153555000000000064e+02 1.783945000000000164e+03
9.099999999999999756e-02 7.579795000000000282e-01 1.895615000000000094e+01 1.153205000000000098e+02 1.783929999999999836e+03
9.199999999999999845e-02 7.579955000000000442e-01 1.855020000000000024e+01 1.153370000000000033e+02 1.783925000000000182e+03
9.299999999999999933e-02 7.580145000000000355e-01 1.817344999999999899e+01 1.153859999999999957e+02 1.783929999999999836e+03
9.400000000000000022e-02 7.580324999999999980e-01 1.781475000000000009e+01 1.154449999999999932e+02 1.783934999999999945e+03
9.500000000000000111e-02 7.580439999999999401e-01 1.746195000000000164e+01 1.154900000000000091e+02 1.783940000000000055e+03
9.600000000000000200e-02 7.580434999999999812e-01 1.710289999999999822e+01 1.154950000000000045e+02 1.783940000000000055e+03
9.700000000000000289e-02 7.580260000000000886e-01 1.672599999999999909e+01 1.154375000000000000e+02 1.783924999999999955e+03
9.800000000000000377e-02 7.579875000000000362e-01 1.632100000000000151e+01 1.152955000000000041e+02 1.783894999999999982e+03
9.900000000000000466e-02 7.579249999999999599e-01 1.587965000000000160e+01 1.150534999999999997e+02 1.783840000000000146e+03
1.000000000000000056e-01 7.578370000000000939e-01 1.539630000000000010e+01 1.146989999999999981e+02 1.783764999999999873e+03
1.010000000000000064e-01 7.577225000000000765e-01 1.486840000000000117e+01 1.142274999999999920e+02 1.783664999999999964e+03
1.020000000000000073e-01 7.575829999999998954e-01 1.429645000000000010e+01 1.136415000000000077e+02 1.783539999999999964e+03
1.030000000000000082e-01 7.574214999999999698e-01 1.368430500000000194e+01 1.129490000000000123e+02 1.783389999999999873e+03
1.040000000000000091e-01 7.572415000000000118e-01 1.303895999999999944e+01 1.121645000000000039e+02 1.783220000000000027e+03
1.050000000000000100e-01 7.570479999999999432e-01 1.237004999999999910e+01 1.113094999999999999e+02 1.783029999999999973e+03
1.059999999999999970e-01 7.568479999999999652e-01 1.168940000000000090e+01 1.104099999999999966e+02 1.782829999999999927e+03
1.069999999999999979e-01 7.566464999999999996e-01 1.101030499999999890e+01 1.094934999999999974e+02 1.782619999999999891e+03
1.079999999999999988e-01 7.564515000000000544e-01 1.034674500000000030e+01 1.085904999999999916e+02 1.782409999999999854e+03
1.089999999999999997e-01 7.562690000000000801e-01 9.712720000000000908e+00 1.077309999999999945e+02 1.782210000000000036e+03
1.100000000000000006e-01 7.561050000000000271e-01 9.121279999999998722e+00 1.069435000000000002e+02 1.782019999999999982e+03
1.110000000000000014e-01 7.559639999999999693e-01 8.583935000000000315e+00 1.062524999999999977e+02 1.781849999999999909e+03
1.120000000000000023e-01 7.558504999999999807e-01 8.110125000000000028e+00 1.056779999999999973e+02 1.781704999999999927e+03
1.130000000000000032e-01 7.557659999999999378e-01 7.706535000000000579e+00 1.052340000000000089e+02 1.781585000000000036e+03
1.140000000000000041e-01 7.557130000000000791e-01 7.377124999999999488e+00 1.049284999999999997e+02 1.781494999999999891e+03
1.150000000000000050e-01 7.556895000000000140e-01 7.122840000000000060e+00 1.047644999999999982e+02 1.781440000000000055e+03
1.160000000000000059e-01 7.556955000000000755e-01 6.941810000000000258e+00 1.047359999999999900e+02 1.781414999999999964e+03
1.170000000000000068e-01 7.557274999999999965e-01 6.829539999999999722e+00 1.048340000000000032e+02 1.781420000000000073e+03
1.180000000000000077e-01 7.557814999999999950e-01 6.779365000000000308e+00 1.050434999999999945e+02 1.781445000000000164e+03
1.190000000000000085e-01 7.558544999999999847e-01 6.782890000000000086e+00 1.053460000000000036e+02 1.781500000000000000e+03
1.200000000000000094e-01 7.559400000000000563e-01 6.830529999999999546e+00 1.057205000000000013e+02 1.781569999999999936e+03
1.209999999999999964e-01 7.560350000000000126e-01 6.912055000000000504e+00 1.061460000000000008e+02 1.781650000000000091e+03
1.219999999999999973e-01 7.561339999999999728e-01 7.017084999999999795e+00 1.066015000000000015e+02 1.781744999999999891e+03
1.229999999999999982e-01 7.562335000000000029e-01 7.135574999999999335e+00 1.070649999999999977e+02 1.781849999999999909e+03
1.239999999999999991e-01 7.563290000000000290e-01 7.258164999999999978e+00 1.075200000000000102e+02 1.781949999999999818e+03
1.250000000000000000e-01 7.564174999999999649e-01 7.376535000000000508e+00 1.079490000000000123e+02 1.782045000000000073e+03
1.260000000000000009e-01 7.564969999999999750e-01 7.483589999999999520e+00 1.083405000000000058e+02 1.782134999999999991e+03
1.270000000000000018e-01 7.565660000000000718e-01 7.573674999999999713e+00 1.086844999999999999e+02 1.782215000000000146e+03
1.280000000000000027e-01 7.566230000000000455e-01 7.642585000000000406e+00 1.089764999999999873e+02 1.782289999999999964e+03
1.290000000000000036e-01 7.566684999999999661e-01 7.687659999999999272e+00 1.092120000000000033e+02 1.782345000000000027e+03
1.300000000000000044e-01 7.567014999999999159e-01 7.707704999999999806e+00 1.093919999999999959e+02 1.782400000000000091e+03
1.310000000000000053e-01 7.567245000000000221e-01 7.702914999999999957e+00 1.095194999999999936e+02 1.782434999999999945e+03
1.320000000000000062e-01 7.567380000000000217e-01 7.674730000000000274e+00 1.095995000000000061e+02 1.782460000000000036e+03
1.330000000000000071e-01 7.567435000000000134e-01 7.625669999999999504e+00 1.096400000000000006e+02 1.782474999999999909e+03
1.340000000000000080e-01 7.567429999999999435e-01 7.559099999999999930e+00 1.096484999999999985e+02 1.782490000000000009e+03
1.350000000000000089e-01 7.567390000000000505e-01 7.479009999999999714e+00 1.096345000000000027e+02 1.782490000000000009e+03
1.360000000000000098e-01 7.567329999999999890e-01 7.389720000000000510e+00 1.096075000000000017e+02 1.782485000000000127e+03
1.370000000000000107e-01 7.567280000000000673e-01 7.295614999999999739e+00 1.095759999999999934e+02 1.782490000000000009e+03
1.380000000000000115e-01 7.567245000000000221e-01 7.200890000000000235e+00 1.095490000000000066e+02 1.782485000000000127e+03
1.390000000000000124e-01 7.567239999999999522e-01 7.109294999999999476e+00 1.095330000000000013e+02 1.782480000000000018e+03
1.400000000000000133e-01 7.567280000000000673e-01 7.023940000000000516e+00 1.095330000000000013e+02 1.782485000000000127e+03
1.410000000000000142e-01 7.567369999999999930e-01 6.947149999999999714e+00 1.095540000000000020e+02 1.782485000000000127e+03
1.420000000000000151e-01 7.567500000000000338e-01 6.880385000000000417e+00 1.095955000000000013e+02 1.782500000000000000e+03
1.430000000000000160e-01 7.567679999999999962e-01 6.824230000000000018e+00 1.096580000000000013e+02 1.782515000000000100e+03
1.440000000000000169e-01 7.567900000000000738e-01 6.778425000000000367e+00 1.097394999999999925e+02 1.782530000000000200e+03
1.450000000000000178e-01 7.568144999999999456e-01 6.742010000000000502e+00 1.098350000000000080e+02 1.782550000000000182e+03
1.459999999999999909e-01 7.568410000000000970e-01 6.713449999999999918e+00 1.099410000000000025e+02 1.782570000000000164e+03
1.469999999999999918e-01 7.568675000000000264e-01 6.690839999999999677e+00 1.100504999999999995e+02 1.782599999999999909e+03
1.479999999999999927e-01 7.568924999999999681e-01 6.672074999999999534e+00 1.101579999999999870e+02 1.782619999999999891e+03
1.489999999999999936e-01 7.569160000000000332e-01 6.655054999999999943e+00 1.102584999999999980e+02 1.782644999999999982e+03
1.499999999999999944e-01 7.569354999999999833e-01 6.637829999999999231e+00 1.103460000000000036e+02 1.782664999999999964e+03
1.509999999999999953e-01 7.569514999999999993e-01 6.618759999999999977e+00 1.104170000000000016e+02 1.782684999999999945e+03
1.519999999999999962e-01 7.569620000000000237e-01 6.596595000000000653e+00 1.104685000000000059e+02 1.782695000000000164e+03
1.529999999999999971e-01 7.569679999999999742e-01 6.570515000000000327e+00 1.104994999999999976e+02 1.782704999999999927e+03
1.539999999999999980e-01 7.569694999999999618e-01 6.540200000000000458e+00 1.105090000000000003e+02 1.782710000000000036e+03
1.549999999999999989e-01 7.569669999999999455e-01 6.505815000000000126e+00 1.104985000000000070e+02 1.782710000000000036e+03
1.559999999999999998e-01 7.569604999999999251e-01 6.467969999999999331e+00 1.104699999999999989e+02 1.782704999999999927e+03
1.570000000000000007e-01 7.569505000000000816e-01 6.427699999999999747e+00 1.104274999999999949e+02 1.782694999999999936e+03
1.580000000000000016e-01 7.569390000000000285e-01 6.386409999999999698e+00 1.103750000000000000e+02 1.782690000000000055e+03
1.590000000000000024e-01 7.569270000000000165e-01 6.345814999999999984e+00 1.103179999999999978e+02 1.782674999999999955e+03
