# t [s], A [cm^2], U [cm/s], P [cPa], c [cm/s]
1.000000000000000021e-03 1.224880000000000135e-01 6.439874499999999058e-01 1.032530000000000001e+02 1.950930000000000064e+03
2.000000000000000042e-03 1.224409999999999943e-01 2.683508999999999922e+00 9.884215000000000373e+01 1.950250000000000000e+03
3.000000000000000062e-03 1.223230000000000151e-01 5.062046849999999765e+00 9.326380000000000337e+01 1.948595000000000027e+03
4.000000000000000083e-03 1.221689999999999998e-01 7.672430000000000305e+00 8.784694999999999254e+01 1.946454999999999927e+03
5.000000000000000104e-03 1.220090000000000063e-01 1.038137500000000024e+01 8.348075000000000045e+01 1.944264999999999873e+03
6.000000000000000125e-03 1.218574999999999936e-01 1.292090499999999942e+01 8.007884999999998854e+01 1.942210000000000036e+03
7.000000000000000146e-03 1.217169999999999919e-01 1.509081499999999920e+01 7.715399999999999636e+01 1.940329999999999927e+03
8.000000000000000167e-03 1.215900000000000036e-01 1.689630000000000010e+01 7.456749999999999545e+01 1.938674999999999955e+03
9.000000000000001055e-03 1.214805000000000051e-01 1.840279999999999916e+01 7.243014999999999759e+01 1.937255000000000109e+03
1.000000000000000194e-02 1.213885000000000103e-01 1.963275000000000148e+01 7.072924999999999329e+01 1.936085000000000036e+03
1.099999999999999936e-02 1.213135000000000047e-01 2.060719999999999885e+01 6.938660000000000139e+01 1.935134999999999991e+03
1.200000000000000025e-02 1.212534999999999863e-01 2.135360000000000014e+01 6.834624999999999773e+01 1.934384999999999991e+03
1.300000000000000114e-02 1.212055000000000077e-01 2.188414999999999822e+01 6.751545000000000130e+01 1.933795000000000073e+03
1.400000000000000203e-02 1.211664999999999964e-01 2.223254999999999981e+01 6.681700000000000728e+01 1.933329999999999927e+03
1.499999999999999944e-02 1.211365000000000081e-01 2.251140000000000185e+01 6.637344999999999118e+01 1.932980000000000018e+03
1.600000000000000033e-02 1.211215000000000069e-01 2.289739999999999753e+01 6.655344999999999800e+01 1.932815000000000055e+03
1.700000000000000122e-02 1.211295000000000011e-01 2.353620000000000090e+01 6.775260000000000105e+01 1.932934999999999945e+03
1.800000000000000211e-02 1.211649999999999949e-01 2.444599999999999795e+01 7.007755000000000223e+01 1.933400000000000091e+03
1.900000000000000300e-02 1.212260000000000004e-01 2.549029999999999774e+01 7.318215000000000714e+01 1.934184999999999945e+03
2.000000000000000042e-02 1.213015000000000065e-01 2.643265000000000242e+01 7.635880000000000223e+01 1.935159999999999854e+03
2.100000000000000130e-02 1.213744999999999963e-01 2.703324999999999889e+01 7.881074999999999875e+01 1.936119999999999891e+03
2.200000000000000219e-02 1.214304999999999968e-01 2.713929999999999865e+01 7.995400000000000773e+01 1.936865000000000009e+03
2.299999999999999961e-02 1.214574999999999960e-01 2.673275000000000290e+01 7.961395000000000266e+01 1.937260000000000218e+03
2.400000000000000050e-02 1.214544999999999930e-01 2.592265000000000086e+01 7.805025000000000546e+01 1.937255000000000109e+03
2.500000000000000139e-02 1.214274999999999938e-01 2.489249999999999829e+01 7.581749999999999545e+01 1.936934999999999945e+03
2.600000000000000228e-02 1.213865000000000083e-01 2.383010000000000161e+01 7.353990000000000293e+01 1.936429999999999836e+03
2.700000000000000316e-02 1.213434999999999930e-01 2.286880000000000024e+01 7.169755000000000678e+01 1.935880000000000109e+03
2.800000000000000058e-02 1.213065000000000115e-01 2.206020000000000181e+01 7.050374999999999659e+01 1.935409999999999854e+03
2.900000000000000147e-02 1.212799999999999989e-01 2.137989999999999924e+01 6.989730000000000132e+01 1.935059999999999945e+03
3.000000000000000236e-02 1.212624999999999953e-01 2.075784999999999769e+01 6.962884999999999991e+01 1.934825000000000045e+03
3.099999999999999978e-02 1.212489999999999957e-01 2.011775000000000091e+01 6.939220000000000255e+01 1.934654999999999973e+03
3.200000000000000067e-02 1.212354999999999960e-01 1.941125000000000256e+01 6.894989999999999952e+01 1.934480000000000018e+03
3.300000000000000155e-02 1.212179999999999924e-01 1.863899999999999935e+01 6.821710000000000207e+01 1.934259999999999991e+03
3.400000000000000244e-02 1.211954999999999838e-01 1.785195000000000221e+01 6.728449999999999420e+01 1.933974999999999909e+03
3.500000000000000333e-02 1.211715000000000153e-01 1.713654999999999973e+01 6.638139999999999930e+01 1.933664999999999964e+03
3.600000000000000422e-02 1.211504999999999943e-01 1.658784999999999954e+01 6.579489999999999839e+01 1.933389999999999873e+03
3.700000000000000511e-02 1.211380000000000096e-01 1.628010000000000090e+01 6.577405000000000257e+01 1.933230000000000018e+03
3.799999999999999906e-02 1.211399999999999977e-01 1.624360000000000070e+01 6.644800000000000750e+01 1.933235000000000127e+03
3.899999999999999994e-02 1.211580000000000018e-01 1.645354999999999990e+01 6.778125000000000000e+01 1.933450000000000045e+03
4.000000000000000083e-02 1.211900000000000061e-01 1.683285000000000053e+01 6.957450000000000045e+01 1.933849999999999909e+03
4.100000000000000172e-02 1.212319999999999925e-01 1.726640000000000086e+01 7.150544999999999618e+01 1.934380000000000109e+03
4.200000000000000261e-02 1.212769999999999959e-01 1.762235000000000085e+01 7.319445000000000334e+01 1.934944999999999936e+03
4.300000000000000350e-02 1.213150000000000062e-01 1.777429999999999666e+01 7.427710000000000434e+01 1.935434999999999945e+03
4.400000000000000439e-02 1.213390000000000024e-01 1.761990000000000123e+01 7.446524999999999750e+01 1.935750000000000000e+03
4.499999999999999833e-02 1.213420000000000054e-01 1.709329999999999927e+01 7.358729999999999905e+01 1.935795000000000073e+03
4.599999999999999922e-02 1.213189999999999963e-01 1.616975000000000051e+01 7.160169999999999391e+01 1.935514999999999873e+03
4.700000000000000011e-02 1.212690000000000018e-01 1.486374999999999957e+01 6.858764999999999645e+01 1.934884999999999991e+03
4.800000000000000100e-02 1.211935000000000096e-01 1.322241500000000158e+01 6.471840000000000259e+01 1.933925000000000182e+03
4.900000000000000189e-02 1.210950000000000082e-01 1.131616999999999962e+01 6.022635000000000360e+01 1.932670000000000073e+03
5.000000000000000278e-02 1.209795000000000037e-01 9.229575000000000529e+00 5.536919999999999931e+01 1.931194999999999936e+03
5.100000000000000366e-02 1.208520000000000150e-01 7.053204999999999281e+00 5.040270000000000294e+01 1.929565000000000055e+03
5.200000000000000455e-02 1.207189999999999930e-01 4.878109500000000764e+00 4.556269999999999953e+01 1.927860000000000127e+03
5.300000000000000544e-02 1.205864999999999992e-01 2.792300000000000004e+00 4.105734999999999957e+01 1.926164999999999964e+03
5.399999999999999939e-02 1.204599999999999976e-01 8.786150000000001459e-01 3.706589999999999918e+01 1.924539999999999964e+03
5.500000000000000028e-02 1.203449999999999936e-01 -7.862400000000000500e-01 3.374179999999999779e+01 1.923065000000000055e+03
5.600000000000000117e-02 1.202459999999999918e-01 -2.132794999999999774e+00 3.121580000000000155e+01 1.921784999999999854e+03
5.700000000000000205e-02 1.201669999999999960e-01 -3.100279000000000007e+00 2.959734999999999872e+01 1.920755000000000109e+03
5.800000000000000294e-02 1.201119999999999965e-01 -3.638795000000000002e+00 2.897299999999999898e+01 1.920025000000000091e+03
5.900000000000000383e-02 1.200824999999999948e-01 -3.711984999999999868e+00 2.940204999999999913e+01 1.919625000000000000e+03
6.000000000000000472e-02 1.200819999999999943e-01 -3.299854999999999983e+00 3.091015000000000157e+01 1.919585000000000036e+03
6.099999999999999867e-02 1.201105000000000089e-01 -2.401100000000000012e+00 3.348319999999999652e+01 1.919920000000000073e+03
6.199999999999999956e-02 1.201689999999999980e-01 -1.034359999999999946e+00 3.706334999999999980e+01 1.920630000000000109e+03
6.300000000000000044e-02 1.202550000000000008e-01 7.620800000000000907e-01 4.154894999999999783e+01 1.921710000000000036e+03
6.400000000000000133e-02 1.203680000000000028e-01 2.932339999999999947e+00 4.679879999999999995e+01 1.923115000000000009e+03
6.500000000000000222e-02 1.205025000000000124e-01 5.406532499999999963e+00 5.264170000000000016e+01 1.924815000000000055e+03
6.600000000000000311e-02 1.206554999999999989e-01 8.105525000000000091e+00 5.888824999999999932e+01 1.926759999999999991e+03
6.700000000000000400e-02 1.208224999999999993e-01 1.094603999999999999e+01 6.534510000000000218e+01 1.928884999999999991e+03
6.800000000000000488e-02 1.209979999999999944e-01 1.384597499999999926e+01 7.182819999999999538e+01 1.931135000000000218e+03
6.900000000000000577e-02 1.211770000000000069e-01 1.672824999999999918e+01 7.817369999999999663e+01 1.933440000000000055e+03
7.000000000000000666e-02 1.213550000000000045e-01 1.952470000000000283e+01 8.424590000000000600e+01 1.935750000000000000e+03
7.100000000000000755e-02 1.215285000000000115e-01 2.217790000000000106e+01 8.994100000000000250e+01 1.938005000000000109e+03
7.200000000000000844e-02 1.216944999999999971e-01 2.464294999999999902e+01 9.518919999999999959e+01 1.940174999999999955e+03
7.300000000000000933e-02 1.218509999999999871e-01 2.688810000000000144e+01 9.995179999999999154e+01 1.942224999999999909e+03
7.399999999999999634e-02 1.219955000000000067e-01 2.889470000000000027e+01 1.042225999999999999e+02 1.944130000000000109e+03
7.499999999999999722e-02 1.221280000000000143e-01 3.065735000000000099e+01 1.080210000000000008e+02 1.945884999999999991e+03
7.599999999999999811e-02 1.222484999999999961e-01 3.218325000000000102e+01 1.113924999999999983e+02 1.947490000000000009e+03
7.699999999999999900e-02 1.223579999999999945e-01 3.349099999999999966e+01 1.144025000000000034e+02 1.948950000000000045e+03
7.799999999999999989e-02 1.224574999999999969e-01 3.460939999999999372e+01 1.171349999999999909e+02 1.950289999999999964e+03
7.900000000000000078e-02 1.225495000000000057e-01 3.557515000000000072e+01 1.196854999999999905e+02 1.951525000000000091e+03
8.000000000000000167e-02 1.226364999999999955e-01 3.643040000000000589e+01 1.221560000000000059e+02 1.952690000000000055e+03
8.100000000000000255e-02 1.227199999999999958e-01 3.721975000000000477e+01 1.246495000000000033e+02 1.953809999999999945e+03
8.200000000000000344e-02 1.228029999999999955e-01 3.798740000000000094e+01 1.272614999999999981e+02 1.954929999999999836e+03
8.300000000000000433e-02 1.228879999999999972e-01 3.877349999999999852e+01 1.300734999999999957e+02 1.956075000000000045e+03
8.400000000000000522e-02 1.229775000000000035e-01 3.961175000000000068e+01 1.331499999999999773e+02 1.957269999999999982e+03
8.500000000000000611e-02 1.230735000000000023e-01 4.052665000000000362e+01 1.365280000000000200e+02 1.958549999999999955e+03
8.600000000000000699e-02 1.231759999999999938e-01 4.153225000000000477e+01 1.402189999999999941e+02 1.959920000000000073e+03
8.700000000000000788e-02 1.232864999999999933e-01 4.263080000000000069e+01 1.442049999999999841e+02 1.961389999999999873e+03
8.800000000000000877e-02 1.234040000000000137e-01 4.381329999999999814e+01 1.484420000000000073e+02 1.962960000000000036e+03
8.899999999999999578e-02 1.235275000000000123e-01 4.506024999999999636e+01 1.528620000000000232e+02 1.964610000000000127e+03
8.999999999999999667e-02 1.236565000000000025e-01 4.634309999999999974e+01 1.573785000000000025e+02 1.966329999999999927e+03
9.099999999999999756e-02 1.237879999999999953e-01 4.762675000000000125e+01 1.618919999999999959e+02 1.968085000000000036e+03
9.199999999999999845e-02 1.239194999999999880e-01 4.887189999999999657e+01 1.662980000000000018e+02 1.969849999999999909e+03
9.299999999999999933e-02 1.240479999999999916e-01 5.003764999999999930e+01 1.704925000000000068e+02 1.971585000000000036e+03
9.400000000000000022e-02 1.241714999999999902e-01 5.108409999999999940e+01 1.743795000000000073e+02 1.973255000000000109e+03
9.500000000000000111e-02 1.242879999999999957e-01 5.197469999999999857e+01 1.778745000000000118e+02 1.974829999999999927e+03
9.600000000000000200e-02 1.243944999999999912e-01 5.267759999999999820e+01 1.809074999999999989e+02 1.976269999999999982e+03
9.700000000000000289e-02 1.244885000000000019e-01 5.316799999999999926e+01 1.834295000000000186e+02 1.977549999999999955e+03
9.800000000000000377e-02 1.245694999999999997e-01 5.342824999999999847e+01 1.854085000000000036e+02 1.978660000000000082e+03
9.900000000000000466e-02 1.246354999999999963e-01 5.344920000000000471e+01 1.868340000000000032e+02 1.979579999999999927e+03
1.000000000000000056e-01 1.246869999999999923e-01 5.322995000000000232e+01 1.877135000000000105e+02 1.980295000000000073e+03
1.010000000000000064e-01 1.247235000000000010e-01 5.277779999999999916e+01 1.880749999999999886e+02 1.980809999999999945e+03
1.020000000000000073e-01 1.247459999999999958e-01 5.210774999999999579e+01 1.879585000000000150e+02 1.981130000000000109e+03
1.030000000000000082e-01 1.247544999999999904e-01 5.124125000000000085e+01 1.874200000000000159e+02 1.981264999999999873e+03
1.040000000000000091e-01 1.247505000000000003e-01 5.020564999999999856e+01 1.865244999999999891e+02 1.981235000000000127e+03
1.050000000000000100e-01 1.247359999999999997e-01 4.903240000000000265e+01 1.853444999999999823e+02 1.981059999999999945e+03
1.059999999999999970e-01 1.247130000000000044e-01 4.775560000000000116e+01 1.839549999999999841e+02 1.980759999999999991e+03
1.069999999999999979e-01 1.246829999999999883e-01 4.641094999999999970e+01 1.824345000000000141e+02 1.980364999999999782e+03
1.079999999999999988e-01 1.246480000000000088e-01 4.503350000000000364e+01 1.808550000000000182e+02 1.979900000000000091e+03
1.089999999999999997e-01 1.246099999999999985e-01 4.365685000000000571e+01 1.792855000000000132e+02 1.979394999999999982e+03
1.100000000000000006e-01 1.245699999999999863e-01 4.231159999999999854e+01 1.777860000000000014e+02 1.978865000000000009e+03
1.110000000000000014e-01 1.245314999999999894e-01 4.102414999999999878e+01 1.764054999999999893e+02 1.978345000000000027e+03
1.120000000000000023e-01 1.244949999999999946e-01 3.981600000000000250e+01 1.751839999999999975e+02 1.977845000000000027e+03
1.130000000000000032e-01 1.244615000000000027e-01 3.870315000000000083e+01 1.741454999999999984e+02 1.977389999999999873e+03
1.140000000000000041e-01 1.244320000000000009e-01 3.769549999999999557e+01 1.733035000000000139e+02 1.976985000000000127e+03
1.150000000000000050e-01 1.244065000000000032e-01 3.679710000000000036e+01 1.726569999999999823e+02 1.976634999999999991e+03
1.160000000000000059e-01 1.243859999999999966e-01 3.600605000000000189e+01 1.721940000000000168e+02 1.976349999999999909e+03
1.170000000000000068e-01 1.243699999999999944e-01 3.531524999999999892e+01 1.718909999999999911e+02 1.976125000000000000e+03
1.180000000000000077e-01 1.243579999999999963e-01 3.471280000000000143e+01 1.717160000000000082e+02 1.975954999999999927e+03
1.190000000000000085e-01 1.243499999999999883e-01 3.418299999999999983e+01 1.716285000000000025e+02 1.975829999999999927e+03
1.200000000000000094e-01 1.243434999999999957e-01 3.370720000000000027e+01 1.715854999999999961e+02 1.975740000000000009e+03
1.209999999999999964e-01 1.243390000000000051e-01 3.326510000000000389e+01 1.715405000000000086e+02 1.975670000000000073e+03
1.219999999999999973e-01 1.243340000000000001e-01 3.283545000000000158e+01 1.714470000000000027e+02 1.975599999999999909e+03
1.229999999999999982e-01 1.243289999999999951e-01 3.239759999999999707e+01 1.712609999999999957e+02 1.975519999999999982e+03
1.239999999999999991e-01 1.243209999999999871e-01 3.193204999999999671e+01 1.709424999999999955e+02 1.975410000000000082e+03
1.250000000000000000e-01 1.243105000000000043e-01 3.142154999999999987e+01 1.704590000000000032e+02 1.975264999999999873e+03
1.260000000000000009e-01 1.242955000000000032e-01 3.085215000000000174e+01 1.697855000000000132e+02 1.975065000000000055e+03
1.270000000000000018e-01 1.242764999999999981e-01 3.021324999999999861e+01 1.689039999999999964e+02 1.974799999999999955e+03
1.280000000000000027e-01 1.242515000000000008e-01 2.949875000000000114e+01 1.678104999999999905e+02 1.974465000000000146e+03
1.290000000000000036e-01 1.242209999999999981e-01 2.870685000000000286e+01 1.665070000000000050e+02 1.974059999999999945e+03
1.300000000000000044e-01 1.241849999999999898e-01 2.784029999999999916e+01 1.650074999999999932e+02 1.973579999999999927e+03
1.310000000000000053e-01 1.241440000000000043e-01 2.690610000000000213e+01 1.633354999999999961e+02 1.973025000000000091e+03
1.320000000000000062e-01 1.240980000000000139e-01 2.591535000000000011e+01 1.615215000000000032e+02 1.972410000000000082e+03
1.330000000000000071e-01 1.240475000000000050e-01 2.488250000000000028e+01 1.596039999999999850e+02 1.971744999999999891e+03
1.340000000000000080e-01 1.239945000000000075e-01 2.382475000000000165e+01 1.576250000000000000e+02 1.971030000000000200e+03
1.350000000000000089e-01 1.239389999999999936e-01 2.276120000000000232e+01 1.556314999999999884e+02 1.970289999999999964e+03
1.360000000000000098e-01 1.238825000000000065e-01 2.171189999999999998e+01 1.536694999999999993e+02 1.969539999999999964e+03
1.370000000000000107e-01 1.238270000000000065e-01 2.069699999999999918e+01 1.517855000000000132e+02 1.968789999999999964e+03
1.380000000000000115e-01 1.237725000000000075e-01 1.973584999999999923e+01 1.500210000000000150e+02 1.968059999999999945e+03
1.390000000000000124e-01 1.237209999999999976e-01 1.884609999999999985e+01 1.484144999999999754e+02 1.967365000000000009e+03
1.400000000000000133e-01 1.236735000000000056e-01 1.804299999999999926e+01 1.469970000000000141e+02 1.966724999999999909e+03
1.410000000000000142e-01 1.236305000000000043e-01 1.733885000000000076e+01 1.457920000000000016e+02 1.966144999999999982e+03
1.420000000000000151e-01 1.235924999999999940e-01 1.674230000000000018e+01 1.448154999999999859e+02 1.965630000000000109e+03
1.430000000000000160e-01 1.235610000000000042e-01 1.625849999999999795e+01 1.440745000000000005e+02 1.965199999999999818e+03
1.440000000000000169e-01 1.235354999999999925e-01 1.588870000000000005e+01 1.435664999999999907e+02 1.964849999999999909e+03
1.450000000000000178e-01 1.235165000000000013e-01 1.563025000000000020e+01 1.432824999999999989e+02 1.964585000000000036e+03
1.459999999999999909e-01 1.235035000000000160e-01 1.547719999999999985e+01 1.432049999999999841e+02 1.964400000000000091e+03
1.469999999999999918e-01 1.234964999999999952e-01 1.542040000000000077e+01 1.433104999999999905e+02 1.964295000000000073e+03
1.479999999999999927e-01 1.234945000000000070e-01 1.544815000000000005e+01 1.435710000000000264e+02 1.964255000000000109e+03
1.489999999999999936e-01 1.234965000000000090e-01 1.554659999999999798e+01 1.439544999999999959e+02 1.964285000000000082e+03
1.499999999999999944e-01 1.235030000000000017e-01 1.570080000000000098e+01 1.444275000000000091e+02 1.964360000000000127e+03
1.509999999999999953e-01 1.235124999999999973e-01 1.589480000000000004e+01 1.449549999999999841e+02 1.964474999999999909e+03
1.519999999999999962e-01 1.235235000000000083e-01 1.611294999999999789e+01 1.455045000000000073e+02 1.964625000000000000e+03
1.529999999999999971e-01 1.235364999999999935e-01 1.633975000000000222e+01 1.460450000000000159e+02 1.964784999999999854e+03
1.539999999999999980e-01 1.235495000000000065e-01 1.656105000000000160e+01 1.465484999999999900e+02 1.964950000000000045e+03
1.549999999999999989e-01 1.235620000000000052e-01 1.676435000000000031e+01 1.469920000000000186e+02 1.965115000000000009e+03
1.559999999999999998e-01 1.235735000000000028e-01 1.693890000000000029e+01 1.473559999999999945e+02 1.965269999999999982e+03
1.570000000000000007e-01 1.235829999999999984e-01 1.707629999999999981e+01 1.476270000000000095e+02 1.965400000000000091e+03
1.580000000000000016e-01 1.235904999999999920e-01 1.717049999999999699e+01 1.477969999999999970e+02 1.965500000000000000e+03
1.590000000000000024e-01 1.235954999999999970e-01 1.721780000000000044e+01 1.478629999999999995e+02 1.965574999999999818e+03
