# t [s], A [cm^2], U [cm/s], P [cPa], c [cm/s]
1.000000000000000021e-03 4.611134999999999540e-01 2.516799999999999593e-03 1.096334999999999980e+02 1.549505000000000109e+03
2.000000000000000042e-03 4.611119999999999663e-01 1.374384999999999843e-02 1.096175000000000068e+02 1.549494999999999891e+03
3.000000000000000062e-03 4.611705000000000387e-01 1.533883500000000066e-01 1.097624999999999886e+02 1.549539999999999964e+03
4.000000000000000083e-03 4.611935000000000340e-01 2.183994999999999964e-01 1.098400000000000034e+02 1.549565000000000055e+03
5.000000000000000104e-03 4.611505000000000187e-01 1.301580000000000237e-01 1.096779999999999973e+02 1.549529999999999973e+03
6.000000000000000125e-03 4.610914999999999875e-01 -7.632499999999986517e-03 1.093505000000000109e+02 1.549445000000000164e+03
7.000000000000000146e-03 4.610170000000000101e-01 -1.911399999999999766e-01 1.088780000000000001e+02 1.549325000000000045e+03
8.000000000000000167e-03 4.608845000000000303e-01 -5.227350000000000607e-01 1.081260000000000048e+02 1.549125000000000000e+03
9.000000000000001055e-03 4.606879999999999864e-01 -1.013169999999999904e+00 1.070250000000000057e+02 1.548835000000000036e+03
1.000000000000000194e-02 4.604230000000000267e-01 -1.652405000000000124e+00 1.055360000000000014e+02 1.548425000000000182e+03
1.099999999999999936e-02 4.600714999999999666e-01 -2.459295000000000009e+00 1.035886500000000012e+02 1.547875000000000000e+03
1.200000000000000025e-02 4.596354999999999746e-01 -3.397425000000000139e+00 1.011765000000000043e+02 1.547184999999999945e+03
1.300000000000000114e-02 4.591640000000000166e-01 -4.312145000000000117e+00 9.846009999999999707e+01 1.546375000000000000e+03
1.400000000000000203e-02 4.587315000000000142e-01 -4.984691500000000275e+00 9.574254999999999427e+01 1.545535000000000082e+03
1.499999999999999944e-02 4.583924999999999805e-01 -5.243678663999999934e+00 9.333189999999999031e+01 1.544740000000000009e+03
1.600000000000000033e-02 4.581609999999999849e-01 -5.037177999999999933e+00 9.141049999999999898e+01 1.544050000000000182e+03
1.700000000000000122e-02 4.580100000000000282e-01 -4.436729999999999841e+00 8.998314999999999486e+01 1.543474999999999909e+03
1.800000000000000211e-02 4.578889999999999905e-01 -3.593929499999999777e+00 8.889975000000001160e+01 1.543000000000000000e+03
1.900000000000000300e-02 4.577440000000000397e-01 -2.678021499999999833e+00 8.792779999999999063e+01 1.542555000000000064e+03
2.000000000000000042e-02 4.575399999999999467e-01 -1.817769999999999886e+00 8.684359999999999502e+01 1.542105000000000018e+03
2.100000000000000130e-02 4.572650000000000325e-01 -1.067549999999999777e+00 8.550610000000000355e+01 1.541595000000000027e+03
2.200000000000000219e-02 4.569354999999999944e-01 -4.095100000000000406e-01 8.388714999999999122e+01 1.541014999999999873e+03
2.299999999999999961e-02 4.565754999999999675e-01 2.137600000000001721e-01 8.205020000000000380e+01 1.540375000000000000e+03
2.400000000000000050e-02 4.562105000000000188e-01 8.559999999999998721e-01 8.009569999999999368e+01 1.539700000000000045e+03
2.500000000000000139e-02 4.558510000000000062e-01 1.533834999999999837e+00 7.810490000000000066e+01 1.538994999999999891e+03
2.600000000000000228e-02 4.554914999999999936e-01 2.213420000000000165e+00 7.610120000000000573e+01 1.538284999999999854e+03
2.700000000000000316e-02 4.551144999999999774e-01 2.816705000000000236e+00 7.403900000000000148e+01 1.537549999999999955e+03
2.800000000000000058e-02 4.546909999999999563e-01 3.241739999999999622e+00 7.181704999999999472e+01 1.536779999999999973e+03
2.900000000000000147e-02 4.541969999999999619e-01 3.389435000000000198e+00 6.930969999999999231e+01 1.535925000000000182e+03
3.000000000000000236e-02 4.536135000000000028e-01 3.190264999999999684e+00 6.640739999999999554e+01 1.534970000000000027e+03
3.099999999999999978e-02 4.529404999999999681e-01 2.623349999999999849e+00 6.305410000000000537e+01 1.533894999999999982e+03
3.200000000000000067e-02 4.521910000000000096e-01 1.724095000000000155e+00 5.927260000000000417e+01 1.532700000000000045e+03
3.300000000000000155e-02 4.513949999999999907e-01 5.781999999999998252e-01 5.517000000000000171e+01 1.531404999999999973e+03
3.400000000000000244e-02 4.505919999999999925e-01 -6.943000000000001393e-01 5.092510000000000048e+01 1.530055000000000064e+03
3.500000000000000333e-02 4.498265000000000180e-01 -1.959719999999999906e+00 4.676104999999999734e+01 1.528710000000000036e+03
3.600000000000000422e-02 4.491389999999999549e-01 -3.090555000000000163e+00 4.291385000000000360e+01 1.527440000000000055e+03
3.700000000000000511e-02 4.485645000000000326e-01 -3.979919999999999902e+00 3.960210000000000008e+01 1.526299999999999955e+03
3.799999999999999906e-02 4.481284999999999852e-01 -4.549820000000000420e+00 3.700384999999999991e+01 1.525355000000000018e+03
3.899999999999999994e-02 4.478449999999999931e-01 -4.753076500000000593e+00 3.524309999999999832e+01 1.524644999999999982e+03
4.000000000000000083e-02 4.477205000000000212e-01 -4.570204999999999629e+00 3.438559999999999661e+01 1.524199999999999818e+03
4.100000000000000172e-02 4.477514999999999690e-01 -4.003440000000000332e+00 3.444294999999999618e+01 1.524034999999999854e+03
4.200000000000000261e-02 4.479310000000000236e-01 -3.069883149999999894e+00 3.538264999999999816e+01 1.524154999999999973e+03
4.300000000000000350e-02 4.482460000000000333e-01 -1.795580000000000176e+00 3.714045000000000130e+01 1.524535000000000082e+03
4.400000000000000439e-02 4.486829999999999985e-01 -2.116150000000001086e-01 3.963179999999999836e+01 1.525164999999999964e+03
4.499999999999999833e-02 4.492264999999999731e-01 1.647334999999999994e+00 4.276084999999999781e+01 1.526019999999999982e+03
4.599999999999999922e-02 4.498590000000000089e-01 3.742549999999999599e+00 4.642539999999999623e+01 1.527070000000000164e+03
4.700000000000000011e-02 4.505635000000000057e-01 6.030295000000000627e+00 5.051970000000000027e+01 1.528279999999999973e+03
4.800000000000000100e-02 4.513215000000000421e-01 8.460755000000000692e+00 5.493520000000000181e+01 1.529619999999999891e+03
4.900000000000000189e-02 4.521140000000000159e-01 1.097845900000000086e+01 5.956104999999999450e+01 1.531049999999999955e+03
5.000000000000000278e-02 4.529194999999999749e-01 1.352407999999999966e+01 6.428624999999999545e+01 1.532539999999999964e+03
5.100000000000000366e-02 4.537214999999999998e-01 1.603725500000000181e+01 6.900270000000000437e+01 1.534054999999999836e+03
5.200000000000000455e-02 4.545009999999999883e-01 1.846061500000000066e+01 7.360994999999999777e+01 1.535570000000000164e+03
5.300000000000000544e-02 4.552439999999999820e-01 2.074324999999999974e+01 7.802030000000000598e+01 1.537039999999999964e+03
5.399999999999999939e-02 4.559394999999999420e-01 2.284430000000000049e+01 8.216374999999999318e+01 1.538454999999999927e+03
5.500000000000000028e-02 4.565810000000000146e-01 2.473505000000000109e+01 8.599200000000000443e+01 1.539789999999999964e+03
5.600000000000000117e-02 4.571650000000000436e-01 2.640019999999999811e+01 8.948089999999999122e+01 1.541029999999999973e+03
5.700000000000000205e-02 4.576949999999999630e-01 2.783719999999999928e+01 9.262940000000000396e+01 1.542174999999999955e+03
5.800000000000000294e-02 4.581739999999999702e-01 2.905550000000000210e+01 9.545910000000000650e+01 1.543220000000000027e+03
5.900000000000000383e-02 4.586109999999999909e-01 3.007404999999999973e+01 9.801095000000000823e+01 1.544184999999999945e+03
6.000000000000000472e-02 4.590170000000000083e-01 3.091900000000000404e+01 1.003395000000000010e+02 1.545075000000000045e+03
6.099999999999999867e-02 4.594010000000000038e-01 3.162134999999999962e+01 1.025068500000000000e+02 1.545904999999999973e+03
6.199999999999999956e-02 4.597755000000000036e-01 3.221470000000000056e+01 1.045815000000000055e+02 1.546700000000000045e+03
6.300000000000000044e-02 4.601505000000000178e-01 3.273329999999999984e+01 1.066304999999999978e+02 1.547474999999999909e+03
6.400000000000000133e-02 4.605369999999999742e-01 3.321059999999999945e+01 1.087154999999999916e+02 1.548255000000000109e+03
6.500000000000000222e-02 4.609429999999999916e-01 3.367775000000000318e+01 1.108940000000000055e+02 1.549045000000000073e+03
6.600000000000000311e-02 4.613764999999999672e-01 3.416249999999999432e+01 1.132120000000000033e+02 1.549875000000000000e+03
6.700000000000000400e-02 4.618419999999999748e-01 3.468765000000000498e+01 1.157034999999999911e+02 1.550750000000000000e+03
6.800000000000000488e-02 4.623430000000000040e-01 3.526989999999999981e+01 1.183905000000000030e+02 1.551679999999999836e+03
6.900000000000000577e-02 4.628794999999999993e-01 3.591880000000000450e+01 1.212794999999999987e+02 1.552675000000000182e+03
7.000000000000000666e-02 4.634489999999999998e-01 3.663580000000000325e+01 1.243615000000000066e+02 1.553724999999999909e+03
7.100000000000000755e-02 4.640469999999999873e-01 3.741389999999999816e+01 1.276115000000000066e+02 1.554825000000000045e+03
7.200000000000000844e-02 4.646649999999999947e-01 3.823794999999999789e+01 1.309900000000000091e+02 1.555974999999999909e+03
7.300000000000000933e-02 4.652924999999999978e-01 3.908579999999999899e+01 1.344435000000000002e+02 1.557150000000000091e+03
7.399999999999999634e-02 4.659189999999999721e-01 3.992934999999999945e+01 1.379085000000000036e+02 1.558335000000000036e+03
7.499999999999999722e-02 4.665320000000000578e-01 4.073695000000000022e+01 1.413154999999999859e+02 1.559514999999999873e+03
7.599999999999999811e-02 4.671174999999999633e-01 4.147549999999999670e+01 1.445919999999999845e+02 1.560664999999999964e+03
7.699999999999999900e-02 4.676649999999999974e-01 4.211234999999999928e+01 1.476664999999999850e+02 1.561755000000000109e+03
7.799999999999999989e-02 4.681629999999999958e-01 4.261785000000000423e+01 1.504755000000000109e+02 1.562775000000000091e+03
7.900000000000000078e-02 4.686025000000000329e-01 4.296679999999999922e+01 1.529624999999999773e+02 1.563695000000000164e+03
8.000000000000000167e-02 4.689774999999999916e-01 4.313989999999999725e+01 1.550865000000000009e+02 1.564505000000000109e+03
8.100000000000000255e-02 4.692844999999999933e-01 4.312484999999999502e+01 1.568195000000000050e+02 1.565199999999999818e+03
8.200000000000000344e-02 4.695205000000000073e-01 4.291635000000000133e+01 1.581480000000000246e+02 1.565755000000000109e+03
8.300000000000000433e-02 4.696879999999999944e-01 4.251650000000000063e+01 1.590769999999999982e+02 1.566190000000000055e+03
8.400000000000000522e-02 4.697904999999999998e-01 4.193415000000000248e+01 1.596225000000000023e+02 1.566490000000000009e+03
8.500000000000000611e-02 4.698330000000000561e-01 4.118444999999999823e+01 1.598165000000000191e+02 1.566670000000000073e+03
8.600000000000000699e-02 4.698240000000000194e-01 4.028775000000000261e+01 1.596990000000000123e+02 1.566740000000000009e+03
8.700000000000000788e-02 4.697715000000000085e-01 3.926855000000000473e+01 1.593209999999999980e+02 1.566715000000000146e+03
8.800000000000000877e-02 4.696845000000000048e-01 3.815449999999999875e+01 1.587359999999999900e+02 1.566610000000000127e+03
8.899999999999999578e-02 4.695739999999999914e-01 3.697494999999999976e+01 1.580035000000000025e+02 1.566440000000000055e+03
8.999999999999999667e-02 4.694494999999999640e-01 3.575985000000000014e+01 1.571804999999999950e+02 1.566230000000000018e+03
9.099999999999999756e-02 4.693195000000000006e-01 3.453840000000000288e+01 1.563230000000000075e+02 1.565994999999999891e+03
9.199999999999999845e-02 4.691929999999999712e-01 3.333800000000000097e+01 1.554825000000000159e+02 1.565744999999999891e+03
9.299999999999999933e-02 4.690779999999999950e-01 3.218290000000000362e+01 1.547040000000000077e+02 1.565505000000000109e+03
9.400000000000000022e-02 4.689794999999999936e-01 3.109349999999999881e+01 1.540244999999999891e+02 1.565284999999999854e+03
9.500000000000000111e-02 4.689029999999999587e-01 3.008565000000000111e+01 1.534699999999999989e+02 1.565089999999999918e+03
9.600000000000000200e-02 4.688499999999999890e-01 2.916980000000000217e+01 1.530584999999999809e+02 1.564940000000000055e+03
9.700000000000000289e-02 4.688209999999999877e-01 2.835105000000000075e+01 1.527975000000000136e+02 1.564824999999999818e+03
9.800000000000000377e-02 4.688164999999999694e-01 2.762944999999999851e+01 1.526840000000000259e+02 1.564759999999999991e+03
9.900000000000000466e-02 4.688329999999999997e-01 2.699965000000000259e+01 1.527049999999999841e+02 1.564735000000000127e+03
1.000000000000000056e-01 4.688669999999999782e-01 2.645204999999999984e+01 1.528410000000000082e+02 1.564744999999999891e+03
1.010000000000000064e-01 4.689134999999999831e-01 2.597334999999999994e+01 1.530654999999999859e+02 1.564784999999999854e+03
1.020000000000000073e-01 4.689674999999999816e-01 2.554729999999999990e+01 1.533455000000000155e+02 1.564849999999999909e+03
1.030000000000000082e-01 4.690225000000000088e-01 2.515589999999999904e+01 1.536480000000000246e+02 1.564929999999999836e+03
1.040000000000000091e-01 4.690729999999999622e-01 2.478030000000000044e+01 1.539370000000000118e+02 1.565009999999999991e+03
1.050000000000000100e-01 4.691120000000000290e-01 2.440169999999999817e+01 1.541775000000000091e+02 1.565074999999999818e+03
1.059999999999999970e-01 4.691355000000000386e-01 2.400244999999999962e+01 1.543369999999999891e+02 1.565125000000000000e+03
1.069999999999999979e-01 4.691389999999999727e-01 2.356670000000000087e+01 1.543884999999999934e+02 1.565144999999999982e+03
1.079999999999999988e-01 4.691180000000000350e-01 2.308135000000000048e+01 1.543095000000000141e+02 1.565125000000000000e+03
1.089999999999999997e-01 4.690710000000000157e-01 2.253645000000000209e+01 1.540840000000000032e+02 1.565065000000000055e+03
1.100000000000000006e-01 4.689969999999999972e-01 2.192565000000000097e+01 1.537024999999999864e+02 1.564954999999999927e+03
1.110000000000000014e-01 4.688950000000000617e-01 2.124654999999999916e+01 1.531645000000000039e+02 1.564800000000000182e+03
1.120000000000000023e-01 4.687680000000000180e-01 2.050049999999999883e+01 1.524749999999999943e+02 1.564595000000000027e+03
1.130000000000000032e-01 4.686175000000000201e-01 1.969284999999999997e+01 1.516475000000000080e+02 1.564345000000000027e+03
1.140000000000000041e-01 4.684475000000000167e-01 1.883245000000000147e+01 1.507010000000000218e+02 1.564049999999999955e+03
1.150000000000000050e-01 4.682620000000000116e-01 1.793115000000000236e+01 1.496595000000000084e+02 1.563724999999999909e+03
1.160000000000000059e-01 4.680674999999999697e-01 1.700370000000000203e+01 1.485525000000000091e+02 1.563369999999999891e+03
1.170000000000000068e-01 4.678680000000000616e-01 1.606649999999999778e+01 1.474110000000000014e+02 1.563005000000000109e+03
1.180000000000000077e-01 4.676700000000000301e-01 1.513715000000000011e+01 1.462690000000000055e+02 1.562630000000000109e+03
1.190000000000000085e-01 4.674800000000000066e-01 1.423365499999999884e+01 1.451599999999999966e+02 1.562259999999999991e+03
1.200000000000000094e-01 4.673019999999999952e-01 1.337360500000000130e+01 1.441159999999999854e+02 1.561900000000000091e+03
1.209999999999999964e-01 4.671419999999999462e-01 1.257333000000000034e+01 1.431670000000000016e+02 1.561570000000000164e+03
1.219999999999999973e-01 4.670039999999999747e-01 1.184703999999999979e+01 1.423369999999999891e+02 1.561269999999999982e+03
1.229999999999999982e-01 4.668910000000000005e-01 1.120657500000000084e+01 1.416465000000000032e+02 1.561009999999999991e+03
1.239999999999999991e-01 4.668050000000000255e-01 1.066047999999999973e+01 1.411109999999999900e+02 1.560799999999999955e+03
1.250000000000000000e-01 4.667474999999999818e-01 1.021410499999999999e+01 1.407375000000000114e+02 1.560634999999999991e+03
1.260000000000000009e-01 4.667180000000000217e-01 9.869219999999998549e+00 1.405285000000000082e+02 1.560525000000000091e+03
1.270000000000000018e-01 4.667155000000000054e-01 9.624085000000000889e+00 1.404780000000000086e+02 1.560465000000000146e+03
1.280000000000000027e-01 4.667374999999999718e-01 9.473784999999999457e+00 1.405754999999999768e+02 1.560450000000000045e+03
1.290000000000000036e-01 4.667820000000000302e-01 9.410489999999999355e+00 1.408054999999999950e+02 1.560485000000000127e+03
1.300000000000000044e-01 4.668444999999999956e-01 9.423904999999999532e+00 1.411479999999999961e+02 1.560559999999999945e+03
1.310000000000000053e-01 4.669214999999999893e-01 9.501809999999998979e+00 1.415810000000000173e+02 1.560670000000000073e+03
1.320000000000000062e-01 4.670075000000000198e-01 9.630710000000000548e+00 1.420774999999999864e+02 1.560800000000000182e+03
1.330000000000000071e-01 4.670995000000000008e-01 9.796405000000000030e+00 1.426134999999999877e+02 1.560950000000000045e+03
1.340000000000000080e-01 4.671925000000000106e-01 9.984560000000000102e+00 1.431634999999999991e+02 1.561115000000000009e+03
1.350000000000000089e-01 4.672830000000000039e-01 1.018130000000000024e+01 1.437030000000000030e+02 1.561279999999999973e+03
1.360000000000000098e-01 4.673665000000000180e-01 1.037379999999999924e+01 1.442115000000000009e+02 1.561440000000000055e+03
1.370000000000000107e-01 4.674409999999999954e-01 1.055039999999999978e+01 1.446709999999999923e+02 1.561590000000000146e+03
1.380000000000000115e-01 4.675044999999999895e-01 1.070145000000000124e+01 1.450654999999999859e+02 1.561724999999999909e+03
1.390000000000000124e-01 4.675539999999999696e-01 1.081895499999999899e+01 1.453854999999999791e+02 1.561835000000000036e+03
1.400000000000000133e-01 4.675899999999999501e-01 1.089730000000000132e+01 1.456229999999999905e+02 1.561929999999999836e+03
1.410000000000000142e-01 4.676115000000000133e-01 1.093292500000000089e+01 1.457760000000000105e+02 1.561994999999999891e+03
1.420000000000000151e-01 4.676184999999999370e-01 1.092446999999999946e+01 1.458449999999999989e+02 1.562035000000000082e+03
1.430000000000000160e-01 4.676124999999999865e-01 1.087262499999999932e+01 1.458354999999999961e+02 1.562049999999999955e+03
1.440000000000000169e-01 4.675954999999999973e-01 1.077986999999999895e+01 1.457540000000000191e+02 1.562039999999999964e+03
1.450000000000000178e-01 4.675679999999999836e-01 1.065035500000000113e+01 1.456105000000000018e+02 1.562014999999999873e+03
1.459999999999999909e-01 4.675329999999999764e-01 1.048957500000000032e+01 1.454170000000000016e+02 1.561969999999999800e+03
1.469999999999999918e-01 4.674920000000000186e-01 1.030392499999999956e+01 1.451864999999999952e+02 1.561904999999999973e+03
1.479999999999999927e-01 4.674485000000000445e-01 1.010064500000000010e+01 1.449320000000000164e+02 1.561835000000000036e+03
1.489999999999999936e-01 4.674034999999999718e-01 9.887094999999998635e+00 1.446669999999999732e+02 1.561759999999999991e+03
1.499999999999999944e-01 4.673604999999999565e-01 9.670700000000000074e+00 1.444044999999999845e+02 1.561674999999999955e+03
1.509999999999999953e-01 4.673194999999999988e-01 9.458470000000000155e+00 1.441560000000000059e+02 1.561599999999999909e+03
1.519999999999999962e-01 4.672840000000000327e-01 9.256795000000000329e+00 1.439309999999999832e+02 1.561529999999999973e+03
1.529999999999999971e-01 4.672545000000000170e-01 9.071189999999999642e+00 1.437375000000000114e+02 1.561465000000000146e+03
1.539999999999999980e-01 4.672310000000000074e-01 8.905984999999999374e+00 1.435815000000000055e+02 1.561410000000000082e+03
1.549999999999999989e-01 4.672149999999999914e-01 8.764424999999999244e+00 1.434660000000000082e+02 1.561369999999999891e+03
1.559999999999999998e-01 4.672064999999999690e-01 8.648369999999999891e+00 1.433919999999999959e+02 1.561335000000000036e+03
1.570000000000000007e-01 4.672045000000000226e-01 8.558495000000000630e+00 1.433590000000000089e+02 1.561315000000000055e+03
1.580000000000000016e-01 4.672085000000000266e-01 8.494165000000000632e+00 1.433629999999999995e+02 1.561309999999999945e+03
1.590000000000000024e-01 4.672180000000000222e-01 8.453699999999999548e+00 1.433994999999999891e+02 1.561309999999999945e+03
