# t [s], A [cm^2], U [cm/s], P [cPa], c [cm/s]
1.000000000000000021e-03 2.094175000000000064e-01 2.923139999999999628e-01 1.043084999999999951e+02 1.966575000000000045e+03
2.000000000000000042e-03 2.093710000000000016e-01 1.866381999999999763e+00 1.011270000000000095e+02 1.966240000000000009e+03
3.000000000000000062e-03 2.092224999999999779e-01 3.810910999999999937e+00 9.680424999999999613e+01 1.965230000000000018e+03
4.000000000000000083e-03 2.090075000000000127e-01 5.978851500000000208e+00 9.198384999999998968e+01 1.963799999999999955e+03
5.000000000000000104e-03 2.087669999999999804e-01 8.304455000000000808e+00 8.750695000000000334e+01 1.962210000000000036e+03
6.000000000000000125e-03 2.085279999999999911e-01 1.064651500000000084e+01 8.376169999999999050e+01 1.960644999999999982e+03
7.000000000000000146e-03 2.083015000000000005e-01 1.281056499999999865e+01 8.064285000000000991e+01 1.959190000000000055e+03
8.000000000000000167e-03 2.080914999999999848e-01 1.467547499999999872e+01 7.790805000000000291e+01 1.957855000000000018e+03
9.000000000000001055e-03 2.079030000000000045e-01 1.624105000000000132e+01 7.550954999999999018e+01 1.956674999999999955e+03
1.000000000000000194e-02 2.077399999999999802e-01 1.754404999999999859e+01 7.351444999999999652e+01 1.955674999999999955e+03
1.099999999999999936e-02 2.076040000000000108e-01 1.860565000000000069e+01 7.193575000000001296e+01 1.954845000000000027e+03
1.200000000000000025e-02 2.074944999999999984e-01 1.944010000000000105e+01 7.072964999999999236e+01 1.954184999999999945e+03
1.300000000000000114e-02 2.074079999999999813e-01 2.005845000000000056e+01 6.982634999999999081e+01 1.953674999999999955e+03
1.400000000000000203e-02 2.073399999999999965e-01 2.046710000000000207e+01 6.913015000000000043e+01 1.953279999999999973e+03
1.499999999999999944e-02 2.072865000000000124e-01 2.068959999999999866e+01 6.856434999999999036e+01 1.952974999999999909e+03
1.600000000000000033e-02 2.072450000000000125e-01 2.079500000000000171e+01 6.816179999999999950e+01 1.952755000000000109e+03
1.700000000000000122e-02 2.072219999999999895e-01 2.089549999999999841e+01 6.810374999999999091e+01 1.952634999999999991e+03
1.800000000000000211e-02 2.072235000000000049e-01 2.110579999999999856e+01 6.864289999999999736e+01 1.952664999999999964e+03
1.900000000000000300e-02 2.072575000000000112e-01 2.149134999999999707e+01 6.995619999999999550e+01 1.952884999999999991e+03
2.000000000000000042e-02 2.073260000000000103e-01 2.203800000000000026e+01 7.202360000000000184e+01 1.953309999999999945e+03
2.100000000000000130e-02 2.074225000000000096e-01 2.265794999999999959e+01 7.460114999999998986e+01 1.953909999999999854e+03
2.200000000000000219e-02 2.075349999999999973e-01 2.322424999999999784e+01 7.729120000000000346e+01 1.954610000000000127e+03
2.299999999999999961e-02 2.076479999999999992e-01 2.361500000000000199e+01 7.966944999999999766e+01 1.955324999999999818e+03
2.400000000000000050e-02 2.077470000000000150e-01 2.375055000000000049e+01 8.141065000000000396e+01 1.955949999999999818e+03
2.500000000000000139e-02 2.078214999999999923e-01 2.361164999999999736e+01 8.236969999999999459e+01 1.956440000000000055e+03
2.600000000000000228e-02 2.078685000000000116e-01 2.323529999999999873e+01 8.259610000000000696e+01 1.956755000000000109e+03
2.700000000000000316e-02 2.078904999999999781e-01 2.269424999999999670e+01 8.228679999999999950e+01 1.956909999999999854e+03
2.800000000000000058e-02 2.078935000000000088e-01 2.206844999999999857e+01 8.170125000000000171e+01 1.956944999999999936e+03
2.900000000000000147e-02 2.078860000000000152e-01 2.141995000000000005e+01 8.107235000000000014e+01 1.956910000000000082e+03
3.000000000000000236e-02 2.078745000000000176e-01 2.077839999999999776e+01 8.054285000000000139e+01 1.956845000000000027e+03
3.099999999999999978e-02 2.078630000000000200e-01 2.014025000000000176e+01 8.014300000000000068e+01 1.956775000000000091e+03
3.200000000000000067e-02 2.078514999999999946e-01 1.947899999999999920e+01 7.980835000000000434e+01 1.956704999999999927e+03
3.300000000000000155e-02 2.078375000000000083e-01 1.876180000000000092e+01 7.942570000000000618e+01 1.956619999999999891e+03
3.400000000000000244e-02 2.078174999999999883e-01 1.796649999999999991e+01 7.888859999999999673e+01 1.956505000000000109e+03
3.500000000000000333e-02 2.077904999999999891e-01 1.709434999999999860e+01 7.814609999999998990e+01 1.956345000000000027e+03
3.600000000000000422e-02 2.077559999999999962e-01 1.617535000000000167e+01 7.723000000000000398e+01 1.956130000000000109e+03
3.700000000000000511e-02 2.077154999999999974e-01 1.526429999999999865e+01 7.625569999999999027e+01 1.955889999999999873e+03
3.799999999999999906e-02 2.076759999999999995e-01 1.442934999999999945e+01 7.539660000000000650e+01 1.955644999999999982e+03
3.899999999999999994e-02 2.076434999999999809e-01 1.373719999999999963e+01 7.484069999999999823e+01 1.955440000000000055e+03
4.000000000000000083e-02 2.076259999999999772e-01 1.323750000000000071e+01 7.474259999999999593e+01 1.955324999999999818e+03
4.100000000000000172e-02 2.076274999999999926e-01 1.295159999999999911e+01 7.518379999999999086e+01 1.955320000000000164e+03
4.200000000000000261e-02 2.076509999999999745e-01 1.286824999999999974e+01 7.615149999999999864e+01 1.955449999999999818e+03
4.300000000000000350e-02 2.076945000000000041e-01 1.294599999999999973e+01 7.753929999999999723e+01 1.955710000000000036e+03
4.400000000000000439e-02 2.077529999999999932e-01 1.312095000000000056e+01 7.916759999999999309e+01 1.956065000000000055e+03
4.499999999999999833e-02 2.078210000000000057e-01 1.331830000000000069e+01 8.081645000000000323e+01 1.956474999999999909e+03
4.599999999999999922e-02 2.078880000000000172e-01 1.346330000000000027e+01 8.226269999999999527e+01 1.956885000000000218e+03
4.700000000000000011e-02 2.079469999999999930e-01 1.349160000000000004e+01 8.331329999999999814e+01 1.957250000000000000e+03
4.800000000000000100e-02 2.079890000000000072e-01 1.335534999999999961e+01 8.382890000000000441e+01 1.957514999999999873e+03
4.900000000000000189e-02 2.080089999999999995e-01 1.302645000000000053e+01 8.373510000000000275e+01 1.957650000000000091e+03
5.000000000000000278e-02 2.080039999999999945e-01 1.249600000000000044e+01 8.302195000000000391e+01 1.957630000000000109e+03
5.100000000000000366e-02 2.079734999999999778e-01 1.177125000000000021e+01 8.173349999999999227e+01 1.957449999999999818e+03
5.200000000000000455e-02 2.079185000000000061e-01 1.087126500000000107e+01 7.995189999999999486e+01 1.957114999999999782e+03
5.300000000000000544e-02 2.078415000000000123e-01 9.822824999999999918e+00 7.778024999999999523e+01 1.956639999999999873e+03
5.399999999999999939e-02 2.077459999999999862e-01 8.656359999999999388e+00 7.532744999999999891e+01 1.956059999999999945e+03
5.500000000000000028e-02 2.076370000000000160e-01 7.403575000000000017e+00 7.269755000000000678e+01 1.955384999999999991e+03
5.600000000000000117e-02 2.075184999999999946e-01 6.096344999999999459e+00 6.998420000000000130e+01 1.954654999999999973e+03
5.700000000000000205e-02 2.073935000000000084e-01 4.766345000000000276e+00 6.726984999999999104e+01 1.953884999999999991e+03
5.800000000000000294e-02 2.072674999999999934e-01 3.445534499999999944e+00 6.462774999999999181e+01 1.953099999999999909e+03
5.900000000000000383e-02 2.071429999999999938e-01 2.166636000000000006e+00 6.212584999999999980e+01 1.952329999999999927e+03
6.000000000000000472e-02 2.070230000000000126e-01 9.633599999999999941e-01 5.982999999999999829e+01 1.951585000000000036e+03
6.099999999999999867e-02 2.069124999999999992e-01 -1.298349999999999227e-01 5.780579999999999785e+01 1.950894999999999982e+03
6.199999999999999956e-02 2.068134999999999835e-01 -1.078605000000000036e+00 5.611889999999999645e+01 1.950275000000000091e+03
6.300000000000000044e-02 2.067299999999999971e-01 -1.850083499999999992e+00 5.483294999999999675e+01 1.949744999999999891e+03
6.400000000000000133e-02 2.066649999999999876e-01 -2.414649999999999963e+00 5.400600000000000023e+01 1.949329999999999927e+03
6.500000000000000222e-02 2.066199999999999981e-01 -2.747689999999999966e+00 5.368644999999999357e+01 1.949035000000000082e+03
6.600000000000000311e-02 2.065994999999999915e-01 -2.831290000000000084e+00 5.390815000000000623e+01 1.948894999999999982e+03
6.700000000000000400e-02 2.066034999999999955e-01 -2.655479999999999841e+00 5.468755000000000166e+01 1.948900000000000091e+03
6.800000000000000488e-02 2.066330000000000111e-01 -2.218995000000000051e+00 5.602110000000000412e+01 1.949065000000000055e+03
6.900000000000000577e-02 2.066884999999999972e-01 -1.529356999999999855e+00 5.788509999999999422e+01 1.949389999999999873e+03
7.000000000000000666e-02 2.067690000000000083e-01 -6.024250000000000993e-01 6.023645000000000493e+01 1.949869999999999891e+03
7.100000000000000755e-02 2.068725000000000147e-01 5.385649999999999604e-01 6.301585000000000036e+01 1.950490000000000009e+03
7.200000000000000844e-02 2.069964999999999999e-01 1.864414999999999933e+00 6.615130000000000621e+01 1.951244999999999891e+03
7.300000000000000933e-02 2.071379999999999888e-01 3.341568484999999811e+00 6.956260000000000332e+01 1.952105000000000018e+03
7.399999999999999634e-02 2.072935000000000194e-01 4.933889999999999887e+00 7.316634999999999422e+01 1.953059999999999945e+03
7.499999999999999722e-02 2.074595000000000189e-01 6.604414999999999480e+00 7.688034999999999286e+01 1.954079999999999927e+03
7.599999999999999811e-02 2.076320000000000110e-01 8.317129999999998802e+00 8.062794999999999845e+01 1.955155000000000200e+03
7.699999999999999900e-02 2.078085000000000071e-01 1.003839500000000129e+01 8.434180000000000632e+01 1.956244999999999891e+03
7.799999999999999989e-02 2.079845000000000166e-01 1.173822499999999991e+01 8.796630000000000393e+01 1.957345000000000027e+03
7.900000000000000078e-02 2.081585000000000241e-01 1.339150000000000063e+01 9.145980000000000132e+01 1.958430000000000064e+03
8.000000000000000167e-02 2.083284999999999998e-01 1.497814999999999941e+01 9.479495000000000005e+01 1.959494999999999891e+03
8.100000000000000255e-02 2.084924999999999973e-01 1.648379999999999868e+01 9.795964999999999634e+01 1.960525000000000091e+03
8.200000000000000344e-02 2.086500000000000021e-01 1.789945000000000164e+01 1.009533500000000004e+02 1.961519999999999982e+03
8.300000000000000433e-02 2.088005000000000000e-01 1.922095000000000198e+01 1.037871999999999986e+02 1.962470000000000027e+03
8.400000000000000522e-02 2.089449999999999918e-01 2.044855000000000089e+01 1.064809999999999945e+02 1.963390000000000100e+03
8.500000000000000611e-02 2.090835000000000055e-01 2.158559999999999945e+01 1.090594999999999999e+02 1.964269999999999982e+03
8.600000000000000699e-02 2.092169999999999863e-01 2.263774999999999693e+01 1.115494999999999948e+02 1.965119999999999891e+03
8.700000000000000788e-02 2.093460000000000043e-01 2.361209999999999809e+01 1.139774999999999920e+02 1.965944999999999936e+03
8.800000000000000877e-02 2.094730000000000203e-01 2.451579999999999870e+01 1.163660000000000139e+02 1.966755000000000109e+03
8.899999999999999578e-02 2.095980000000000065e-01 2.535565000000000069e+01 1.187339999999999947e+02 1.967549999999999955e+03
8.999999999999999667e-02 2.097209999999999908e-01 2.613725000000000165e+01 1.210919999999999987e+02 1.968335000000000036e+03
9.099999999999999756e-02 2.098440000000000027e-01 2.686469999999999914e+01 1.234449999999999932e+02 1.969119999999999891e+03
9.199999999999999845e-02 2.099659999999999860e-01 2.753989999999999938e+01 1.257909999999999968e+02 1.969900000000000091e+03
9.299999999999999933e-02 2.100870000000000237e-01 2.816329999999999956e+01 1.281204999999999927e+02 1.970675000000000182e+03
9.400000000000000022e-02 2.102074999999999916e-01 2.873295000000000243e+01 1.304194999999999993e+02 1.971445000000000164e+03
9.500000000000000111e-02 2.103260000000000129e-01 2.924549999999999983e+01 1.326680000000000064e+02 1.972204999999999927e+03
9.600000000000000200e-02 2.104415000000000036e-01 2.969620000000000104e+01 1.348445000000000107e+02 1.972945000000000164e+03
9.700000000000000289e-02 2.105540000000000189e-01 3.007900000000000063e+01 1.369250000000000114e+02 1.973664999999999964e+03
9.800000000000000377e-02 2.106620000000000159e-01 3.038749999999999929e+01 1.388840000000000146e+02 1.974355000000000018e+03
9.900000000000000466e-02 2.107634999999999925e-01 3.061489999999999867e+01 1.406970000000000027e+02 1.975005000000000109e+03
1.000000000000000056e-01 2.108585000000000043e-01 3.075444999999999851e+01 1.423410000000000082e+02 1.975615000000000009e+03
1.010000000000000064e-01 2.109449999999999936e-01 3.080010000000000048e+01 1.437950000000000159e+02 1.976180000000000064e+03
1.020000000000000073e-01 2.110230000000000161e-01 3.074650000000000105e+01 1.450430000000000064e+02 1.976679999999999836e+03
1.030000000000000082e-01 2.110910000000000009e-01 3.058990000000000009e+01 1.460705000000000098e+02 1.977125000000000000e+03
1.040000000000000091e-01 2.111485000000000167e-01 3.032775000000000176e+01 1.468684999999999832e+02 1.977500000000000000e+03
1.050000000000000100e-01 2.111949999999999938e-01 2.995945000000000036e+01 1.474329999999999927e+02 1.977804999999999836e+03
1.059999999999999970e-01 2.112304999999999877e-01 2.948639999999999972e+01 1.477655000000000030e+02 1.978039999999999964e+03
1.069999999999999979e-01 2.112550000000000261e-01 2.891210000000000235e+01 1.478704999999999927e+02 1.978204999999999927e+03
1.079999999999999988e-01 2.112680000000000113e-01 2.824224999999999852e+01 1.477605000000000075e+02 1.978299999999999955e+03
1.089999999999999997e-01 2.112709999999999866e-01 2.748440000000000083e+01 1.474505000000000052e+02 1.978325000000000045e+03
1.100000000000000006e-01 2.112634999999999930e-01 2.664804999999999779e+01 1.469600000000000080e+02 1.978289999999999964e+03
1.110000000000000014e-01 2.112474999999999770e-01 2.574425000000000097e+01 1.463125000000000000e+02 1.978194999999999936e+03
1.120000000000000023e-01 2.112235000000000085e-01 2.478524999999999778e+01 1.455339999999999918e+02 1.978049999999999955e+03
1.130000000000000032e-01 2.111925000000000052e-01 2.378415000000000035e+01 1.446504999999999939e+02 1.977855000000000018e+03
1.140000000000000041e-01 2.111554999999999960e-01 2.275430000000000064e+01 1.436904999999999859e+02 1.977630000000000109e+03
1.150000000000000050e-01 2.111144999999999827e-01 2.170909999999999940e+01 1.426795000000000186e+02 1.977375000000000000e+03
1.160000000000000059e-01 2.110704999999999942e-01 2.066120000000000090e+01 1.416425000000000125e+02 1.977094999999999800e+03
1.170000000000000068e-01 2.110245000000000037e-01 1.962259999999999849e+01 1.406024999999999920e+02 1.976804999999999836e+03
1.180000000000000077e-01 2.109774999999999845e-01 1.860369999999999990e+01 1.395774999999999864e+02 1.976505000000000109e+03
1.190000000000000085e-01 2.109305000000000208e-01 1.761349999999999838e+01 1.385835000000000150e+02 1.976204999999999927e+03
1.200000000000000094e-01 2.108835000000000015e-01 1.665919999999999845e+01 1.376315000000000168e+02 1.975905000000000200e+03
1.209999999999999964e-01 2.108384999999999843e-01 1.574595000000000056e+01 1.367270000000000039e+02 1.975619999999999891e+03
1.219999999999999973e-01 2.107950000000000101e-01 1.487705000000000055e+01 1.358729999999999905e+02 1.975340000000000146e+03
1.229999999999999982e-01 2.107529999999999959e-01 1.405379999999999896e+01 1.350685000000000002e+02 1.975065000000000055e+03
1.239999999999999991e-01 2.107129999999999836e-01 1.327554999999999907e+01 1.343070000000000164e+02 1.974809999999999945e+03
1.250000000000000000e-01 2.106744999999999868e-01 1.253989999999999938e+01 1.335794999999999959e+02 1.974565000000000055e+03
1.260000000000000009e-01 2.106370000000000187e-01 1.184314999999999962e+01 1.328760000000000048e+02 1.974319999999999936e+03
1.270000000000000018e-01 2.106010000000000104e-01 1.118026000000000053e+01 1.321820000000000164e+02 1.974085000000000036e+03
1.280000000000000027e-01 2.105644999999999878e-01 1.054520000000000124e+01 1.314825000000000159e+02 1.973849999999999909e+03
1.290000000000000036e-01 2.105279999999999929e-01 9.931530000000000413e+00 1.307630000000000052e+02 1.973619999999999891e+03
1.300000000000000044e-01 2.104904999999999970e-01 9.332489999999999952e+00 1.300090000000000146e+02 1.973375000000000000e+03
1.310000000000000053e-01 2.104520000000000002e-01 8.741514999999999702e+00 1.292065000000000055e+02 1.973119999999999891e+03
1.320000000000000062e-01 2.104105000000000003e-01 8.152480000000000615e+00 1.283444999999999823e+02 1.972855000000000018e+03
1.330000000000000071e-01 2.103665000000000118e-01 7.560105000000000075e+00 1.274124999999999943e+02 1.972575000000000045e+03
1.340000000000000080e-01 2.103190000000000059e-01 6.960174999999999557e+00 1.264050000000000011e+02 1.972275000000000091e+03
1.350000000000000089e-01 2.102684999999999971e-01 6.349785000000000679e+00 1.253185000000000002e+02 1.971954999999999927e+03
1.360000000000000098e-01 2.102140000000000120e-01 5.727524999999999977e+00 1.241550000000000011e+02 1.971605000000000018e+03
1.370000000000000107e-01 2.101564999999999961e-01 5.093574999999999520e+00 1.229180000000000064e+02 1.971240000000000009e+03
1.380000000000000115e-01 2.100950000000000040e-01 4.449735000000000440e+00 1.216165000000000020e+02 1.970855000000000018e+03
1.390000000000000124e-01 2.100309999999999955e-01 3.799369999999999692e+00 1.202614999999999981e+02 1.970444999999999936e+03
1.400000000000000133e-01 2.099640000000000117e-01 3.147255000000000358e+00 1.188679999999999950e+02 1.970019999999999982e+03
1.410000000000000142e-01 2.098955000000000126e-01 2.499416499999999708e+00 1.174544999999999959e+02 1.969590000000000146e+03
1.420000000000000151e-01 2.098254999999999981e-01 1.862820499999999990e+00 1.160384999999999991e+02 1.969150000000000091e+03
1.430000000000000160e-01 2.097559999999999980e-01 1.245099500000000026e+00 1.146415000000000077e+02 1.968704999999999927e+03
1.440000000000000169e-01 2.096864999999999979e-01 6.541800000000000948e-01 1.132820000000000107e+02 1.968264999999999873e+03
1.450000000000000178e-01 2.096195000000000142e-01 9.794999999999998153e-02 1.119805000000000064e+02 1.967839999999999918e+03
1.459999999999999909e-01 2.095540000000000180e-01 -4.160999999999999144e-01 1.107549999999999955e+02 1.967425000000000182e+03
1.469999999999999918e-01 2.094924999999999982e-01 -8.811915000000001275e-01 1.096200000000000045e+02 1.967025000000000091e+03
1.479999999999999927e-01 2.094344999999999957e-01 -1.291542100000000026e+00 1.085894999999999868e+02 1.966659999999999854e+03
1.489999999999999936e-01 2.093814999999999982e-01 -1.642582999999999904e+00 1.076719999999999970e+02 1.966320000000000164e+03
1.499999999999999944e-01 2.093335000000000057e-01 -1.931121500000000157e+00 1.068750000000000000e+02 1.966014999999999873e+03
1.509999999999999953e-01 2.092910000000000048e-01 -2.155444999999999833e+00 1.061999999999999886e+02 1.965740000000000009e+03
1.519999999999999962e-01 2.092545000000000099e-01 -2.315344999999999764e+00 1.056465000000000032e+02 1.965505000000000109e+03
1.529999999999999971e-01 2.092229999999999923e-01 -2.412080000000000002e+00 1.052100000000000080e+02 1.965299999999999955e+03
1.539999999999999980e-01 2.091974999999999807e-01 -2.448269999999999946e+00 1.048840000000000003e+02 1.965134999999999991e+03
1.549999999999999989e-01 2.091775000000000162e-01 -2.427775000000000016e+00 1.046589999999999918e+02 1.965000000000000000e+03
1.559999999999999998e-01 2.091620000000000146e-01 -2.355504999999999960e+00 1.045234999999999985e+02 1.964894999999999982e+03
1.570000000000000007e-01 2.091504999999999892e-01 -2.237214999999999954e+00 1.044639999999999986e+02 1.964819999999999936e+03
1.580000000000000016e-01 2.091434999999999822e-01 -2.079289999999999861e+00 1.044680000000000035e+02 1.964775000000000091e+03
1.590000000000000024e-01 2.091399999999999926e-01 -1.888495000000000035e+00 1.045204999999999984e+02 1.964739999999999782e+03
