# t [s], A [cm^2], U [cm/s], P [cPa], c [cm/s]
1.000000000000000021e-03 1.543795000000000028e-01 3.118495000000000017e-01 9.880395000000000039e+01 1.834220000000000027e+03
2.000000000000000042e-03 1.543494999999999728e-01 1.875640999999999892e+00 9.578745000000000687e+01 1.833910000000000082e+03
3.000000000000000062e-03 1.542419999999999902e-01 3.788185499999999539e+00 9.180285000000000650e+01 1.832865000000000009e+03
4.000000000000000083e-03 1.540825000000000111e-01 5.906297999999999604e+00 8.737090000000000600e+01 1.831355000000000018e+03
5.000000000000000104e-03 1.539004999999999956e-01 8.174759999999999138e+00 8.322634999999999650e+01 1.829634999999999991e+03
6.000000000000000125e-03 1.537164999999999782e-01 1.047814499999999960e+01 7.973310000000000741e+01 1.827910000000000082e+03
7.000000000000000146e-03 1.535394999999999954e-01 1.264806999999999881e+01 7.683145000000000380e+01 1.826285000000000082e+03
8.000000000000000167e-03 1.533734999999999959e-01 1.456122000000000050e+01 7.429519999999999413e+01 1.824779999999999973e+03
9.000000000000001055e-03 1.532215000000000105e-01 1.620025000000000048e+01 7.203270000000000550e+01 1.823420000000000073e+03
1.000000000000000194e-02 1.530865000000000142e-01 1.759769999999999968e+01 7.008930000000000859e+01 1.822224999999999909e+03
1.099999999999999936e-02 1.529705000000000092e-01 1.877604999999999791e+01 6.849125000000000796e+01 1.821210000000000036e+03
1.200000000000000025e-02 1.528730000000000089e-01 1.974709999999999965e+01 6.720969999999999800e+01 1.820365000000000009e+03
1.300000000000000114e-02 1.527930000000000121e-01 2.052309999999999945e+01 6.619809999999999661e+01 1.819679999999999836e+03
1.400000000000000203e-02 1.527279999999999749e-01 2.111229999999999762e+01 6.539615000000000578e+01 1.819134999999999991e+03
1.499999999999999944e-02 1.526750000000000052e-01 2.152355000000000018e+01 6.473210000000000264e+01 1.818690000000000055e+03
1.600000000000000033e-02 1.526305000000000023e-01 2.178885000000000005e+01 6.417395000000000493e+01 1.818340000000000146e+03
1.700000000000000122e-02 1.525965000000000238e-01 2.198035000000000139e+01 6.379220000000000113e+01 1.818069999999999936e+03
1.800000000000000211e-02 1.525765000000000038e-01 2.219774999999999920e+01 6.376265000000000072e+01 1.817920000000000073e+03
1.900000000000000300e-02 1.525759999999999894e-01 2.253110000000000213e+01 6.428645000000000209e+01 1.817930000000000064e+03
2.000000000000000042e-02 1.525984999999999980e-01 2.302125000000000199e+01 6.547705000000000553e+01 1.818139999999999873e+03
2.100000000000000130e-02 1.526454999999999895e-01 2.364189999999999969e+01 6.728135000000000332e+01 1.818555000000000064e+03
2.200000000000000219e-02 1.527115000000000000e-01 2.430830000000000268e+01 6.947284999999999400e+01 1.819139999999999873e+03
2.299999999999999961e-02 1.527890000000000081e-01 2.490690000000000026e+01 7.171420000000000528e+01 1.819825000000000045e+03
2.400000000000000050e-02 1.528670000000000029e-01 2.533119999999999905e+01 7.365614999999999668e+01 1.820525000000000091e+03
2.500000000000000139e-02 1.529349999999999876e-01 2.551149999999999807e+01 7.503310000000000457e+01 1.821144999999999982e+03
2.600000000000000228e-02 1.529864999999999975e-01 2.542974999999999852e+01 7.572505000000001019e+01 1.821615000000000009e+03
2.700000000000000316e-02 1.530170000000000141e-01 2.511735000000000184e+01 7.577094999999999914e+01 1.821914999999999964e+03
2.800000000000000058e-02 1.530290000000000261e-01 2.463960000000000150e+01 7.533440000000000225e+01 1.822045000000000073e+03
2.900000000000000147e-02 1.530275000000000107e-01 2.407225000000000037e+01 7.464060000000000628e+01 1.822045000000000073e+03
3.000000000000000236e-02 1.530170000000000141e-01 2.348029999999999973e+01 7.390479999999999450e+01 1.821965000000000146e+03
3.099999999999999978e-02 1.530030000000000001e-01 2.290285000000000082e+01 7.327780000000001337e+01 1.821855000000000018e+03
3.200000000000000067e-02 1.529900000000000149e-01 2.234915000000000163e+01 7.281829999999999359e+01 1.821744999999999891e+03
3.300000000000000155e-02 1.529785000000000172e-01 2.180369999999999919e+01 7.249795000000000300e+01 1.821644999999999982e+03
3.400000000000000244e-02 1.529689999999999939e-01 2.123774999999999835e+01 7.222944999999999993e+01 1.821559999999999945e+03
3.500000000000000333e-02 1.529579999999999829e-01 2.062330000000000041e+01 7.190749999999999886e+01 1.821464999999999918e+03
3.600000000000000422e-02 1.529435000000000100e-01 1.994539999999999935e+01 7.145009999999999195e+01 1.821340000000000146e+03
3.700000000000000511e-02 1.529240000000000044e-01 1.921005000000000251e+01 7.082859999999999445e+01 1.821175000000000182e+03
3.799999999999999906e-02 1.528994999999999937e-01 1.844594999999999985e+01 7.008164999999999623e+01 1.820974999999999909e+03
3.899999999999999994e-02 1.528725000000000223e-01 1.770029999999999859e+01 6.930940000000001078e+01 1.820735000000000127e+03
4.000000000000000083e-02 1.528459999999999819e-01 1.702915000000000134e+01 6.865100000000001046e+01 1.820505000000000109e+03
4.100000000000000172e-02 1.528249999999999886e-01 1.648570000000000135e+01 6.825169999999999959e+01 1.820315000000000055e+03
4.200000000000000261e-02 1.528134999999999910e-01 1.610885000000000034e+01 6.822854999999999848e+01 1.820210000000000036e+03
4.300000000000000350e-02 1.528144999999999920e-01 1.591489999999999938e+01 6.864224999999999000e+01 1.820210000000000036e+03
4.400000000000000439e-02 1.528309999999999946e-01 1.589405000000000001e+01 6.948224999999999341e+01 1.820335000000000036e+03
4.499999999999999833e-02 1.528605000000000103e-01 1.601210000000000022e+01 7.066700000000000159e+01 1.820585000000000036e+03
4.599999999999999922e-02 1.529015000000000235e-01 1.621584999999999965e+01 7.205754999999999200e+01 1.820934999999999945e+03
4.700000000000000011e-02 1.529495000000000160e-01 1.644150000000000134e+01 7.348059999999999548e+01 1.821345000000000027e+03
4.800000000000000100e-02 1.529979999999999951e-01 1.662364999999999782e+01 7.475520000000000209e+01 1.821769999999999982e+03
4.900000000000000189e-02 1.530420000000000114e-01 1.670335000000000036e+01 7.571799999999998931e+01 1.822154999999999973e+03
5.000000000000000278e-02 1.530755000000000032e-01 1.663410000000000011e+01 7.624299999999999500e+01 1.822460000000000036e+03
5.100000000000000366e-02 1.530949999999999811e-01 1.638550000000000040e+01 7.625260000000000105e+01 1.822630000000000109e+03
5.200000000000000455e-02 1.530965000000000242e-01 1.594365000000000165e+01 7.572069999999999368e+01 1.822659999999999854e+03
5.300000000000000544e-02 1.530799999999999939e-01 1.531020000000000181e+01 7.466814999999999714e+01 1.822519999999999982e+03
5.399999999999999939e-02 1.530445000000000000e-01 1.449924999999999997e+01 7.315264999999999418e+01 1.822214999999999918e+03
5.500000000000000028e-02 1.529915000000000025e-01 1.353375000000000128e+01 7.125630000000001019e+01 1.821759999999999991e+03
5.600000000000000117e-02 1.529240000000000044e-01 1.244224499999999978e+01 6.907330000000000325e+01 1.821175000000000182e+03
5.700000000000000205e-02 1.528444999999999943e-01 1.125617499999999893e+01 6.669950000000000045e+01 1.820480000000000018e+03
5.800000000000000294e-02 1.527565000000000173e-01 1.000756499999999960e+01 6.422560000000000002e+01 1.819710000000000036e+03
5.900000000000000383e-02 1.526629999999999932e-01 8.728379999999999583e+00 6.173335000000000150e+01 1.818884999999999991e+03
6.000000000000000472e-02 1.525664999999999938e-01 7.449869999999999770e+00 5.929514999999999958e+01 1.818045000000000073e+03
6.099999999999999867e-02 1.524699999999999944e-01 6.202949999999999520e+00 5.697520000000000095e+01 1.817195000000000164e+03
6.199999999999999956e-02 1.523769999999999847e-01 5.018035000000000245e+00 5.483214999999999861e+01 1.816369999999999891e+03
6.300000000000000044e-02 1.522890000000000077e-01 3.925339999999999829e+00 5.292079999999999984e+01 1.815595000000000027e+03
6.400000000000000133e-02 1.522089999999999832e-01 2.954509999999999970e+00 5.129359999999999786e+01 1.814884999999999991e+03
6.500000000000000222e-02 1.521390000000000242e-01 2.134035949999999904e+00 5.000095000000000312e+01 1.814264999999999873e+03
6.600000000000000311e-02 1.520819999999999950e-01 1.490260499999999988e+00 4.908934999999999604e+01 1.813750000000000000e+03
6.700000000000000400e-02 1.520385000000000209e-01 1.046212499999999990e+00 4.860000000000000142e+01 1.813355000000000018e+03
6.800000000000000488e-02 1.520110000000000072e-01 8.203394999999999992e-01 4.856530000000000058e+01 1.813105000000000018e+03
6.900000000000000577e-02 1.520015000000000116e-01 8.253725000000000644e-01 4.900655000000000427e+01 1.813000000000000000e+03
7.000000000000000666e-02 1.520104999999999928e-01 1.067447000000000035e+00 4.993155000000000143e+01 1.813065000000000055e+03
7.100000000000000755e-02 1.520384999999999931e-01 1.545607500000000023e+00 5.133270000000000266e+01 1.813284999999999854e+03
7.200000000000000844e-02 1.520854999999999846e-01 2.251764000000000099e+00 5.318755000000000166e+01 1.813679999999999836e+03
7.300000000000000933e-02 1.521500000000000075e-01 3.171105000000000285e+00 5.545895000000000152e+01 1.814230000000000018e+03
7.399999999999999634e-02 1.522314999999999918e-01 4.282860000000000333e+00 5.809740000000000038e+01 1.814929999999999836e+03
7.499999999999999722e-02 1.523289999999999922e-01 5.561399999999999899e+00 6.104359999999999786e+01 1.815769999999999982e+03
7.599999999999999811e-02 1.524389999999999912e-01 6.977565000000000239e+00 6.423175000000000523e+01 1.816724999999999909e+03
7.699999999999999900e-02 1.525604999999999878e-01 8.499905000000000044e+00 6.759345000000000425e+01 1.817785000000000082e+03
7.799999999999999989e-02 1.526899999999999924e-01 1.009633000000000003e+01 7.106040000000000134e+01 1.818914999999999964e+03
7.900000000000000078e-02 1.528255000000000030e-01 1.173511000000000060e+01 7.456804999999999950e+01 1.820105000000000018e+03
8.000000000000000167e-02 1.529639999999999889e-01 1.338633000000000095e+01 7.805814999999999770e+01 1.821329999999999927e+03
8.100000000000000255e-02 1.531040000000000179e-01 1.502280000000000015e+01 8.148075000000000045e+01 1.822569999999999936e+03
8.200000000000000344e-02 1.532429999999999903e-01 1.662105000000000032e+01 8.479605000000000814e+01 1.823799999999999955e+03
8.300000000000000433e-02 1.533795000000000019e-01 1.816154999999999831e+01 8.797505000000001019e+01 1.825014999999999873e+03
8.400000000000000522e-02 1.535124999999999962e-01 1.962965000000000160e+01 9.100000000000000000e+01 1.826200000000000045e+03
8.500000000000000611e-02 1.536405000000000132e-01 2.101534999999999798e+01 9.386419999999999675e+01 1.827345000000000027e+03
8.600000000000000699e-02 1.537629999999999830e-01 2.231325000000000003e+01 9.657094999999999629e+01 1.828450000000000045e+03
8.700000000000000788e-02 1.538809999999999900e-01 2.352230000000000132e+01 9.913194999999998913e+01 1.829509999999999991e+03
8.800000000000000877e-02 1.539929999999999910e-01 2.464495000000000147e+01 1.015664999999999907e+02 1.830525000000000091e+03
8.899999999999999578e-02 1.541009999999999880e-01 2.568674999999999997e+01 1.038967499999999973e+02 1.831494999999999891e+03
8.999999999999999667e-02 1.542044999999999944e-01 2.665530000000000044e+01 1.061500000000000057e+02 1.832440000000000055e+03
9.099999999999999756e-02 1.543054999999999843e-01 2.755940000000000012e+01 1.083504999999999967e+02 1.833355000000000018e+03
9.199999999999999845e-02 1.544039999999999857e-01 2.840814999999999912e+01 1.105240000000000009e+02 1.834250000000000000e+03
9.299999999999999933e-02 1.545009999999999994e-01 2.921039999999999992e+01 1.126899999999999977e+02 1.835139999999999873e+03
9.400000000000000022e-02 1.545980000000000132e-01 2.997364999999999924e+01 1.148635000000000019e+02 1.836015000000000100e+03
9.500000000000000111e-02 1.546945000000000126e-01 3.070385000000000275e+01 1.170540000000000020e+02 1.836889999999999873e+03
9.600000000000000200e-02 1.547910000000000119e-01 3.140480000000000160e+01 1.192639999999999958e+02 1.837769999999999982e+03
9.700000000000000289e-02 1.548884999999999845e-01 3.207804999999999751e+01 1.214900000000000091e+02 1.838654999999999973e+03
9.800000000000000377e-02 1.549854999999999983e-01 3.272285000000000110e+01 1.237220000000000084e+02 1.839539999999999964e+03
9.900000000000000466e-02 1.550825000000000120e-01 3.333639999999999759e+01 1.259455000000000098e+02 1.840430000000000064e+03
1.000000000000000056e-01 1.551794999999999980e-01 3.391365000000000407e+01 1.281405000000000030e+02 1.841309999999999945e+03
1.010000000000000064e-01 1.552749999999999964e-01 3.444835000000000491e+01 1.302835000000000036e+02 1.842179999999999836e+03
1.020000000000000073e-01 1.553685000000000205e-01 3.493265000000000242e+01 1.323505000000000109e+02 1.843029999999999973e+03
1.030000000000000082e-01 1.554584999999999995e-01 3.535835000000000150e+01 1.343160000000000025e+02 1.843855000000000018e+03
1.040000000000000091e-01 1.555449999999999888e-01 3.571675000000000466e+01 1.361554999999999893e+02 1.844644999999999982e+03
1.050000000000000100e-01 1.556265000000000009e-01 3.599934999999999974e+01 1.378444999999999823e+02 1.845394999999999982e+03
1.059999999999999970e-01 1.557024999999999937e-01 3.619834999999999781e+01 1.393625000000000114e+02 1.846090000000000146e+03
1.069999999999999979e-01 1.557709999999999928e-01 3.630689999999999884e+01 1.406920000000000073e+02 1.846724999999999909e+03
1.079999999999999988e-01 1.558329999999999993e-01 3.631924999999999670e+01 1.418190000000000168e+02 1.847295000000000073e+03
1.089999999999999997e-01 1.558864999999999834e-01 3.623154999999999859e+01 1.427340000000000089e+02 1.847795000000000073e+03
1.100000000000000006e-01 1.559315000000000007e-01 3.604155000000000086e+01 1.434304999999999950e+02 1.848215000000000146e+03
1.110000000000000014e-01 1.559685000000000099e-01 3.574895000000000067e+01 1.439089999999999918e+02 1.848559999999999945e+03
1.120000000000000023e-01 1.559960000000000235e-01 3.535545000000000471e+01 1.441730000000000018e+02 1.848819999999999936e+03
1.130000000000000032e-01 1.560150000000000148e-01 3.486475000000000080e+01 1.442305000000000064e+02 1.849005000000000109e+03
1.140000000000000041e-01 1.560259999999999980e-01 3.428260000000000218e+01 1.440939999999999941e+02 1.849115000000000009e+03
1.150000000000000050e-01 1.560285000000000144e-01 3.361639999999999873e+01 1.437794999999999845e+02 1.849144999999999982e+03
1.160000000000000059e-01 1.560230000000000228e-01 3.287525000000000119e+01 1.433060000000000116e+02 1.849110000000000127e+03
1.170000000000000068e-01 1.560114999999999974e-01 3.206945000000000334e+01 1.426949999999999932e+02 1.849014999999999873e+03
1.180000000000000077e-01 1.559935000000000072e-01 3.121020000000000039e+01 1.419689999999999941e+02 1.848859999999999900e+03
1.190000000000000085e-01 1.559699999999999975e-01 3.030954999999999799e+01 1.411525000000000034e+02 1.848650000000000091e+03
1.200000000000000094e-01 1.559429999999999983e-01 2.937944999999999851e+01 1.402690000000000055e+02 1.848409999999999854e+03
1.209999999999999964e-01 1.559115000000000084e-01 2.843209999999999837e+01 1.393425000000000011e+02 1.848134999999999991e+03
1.219999999999999973e-01 1.558785000000000032e-01 2.747885000000000133e+01 1.383930000000000007e+02 1.847829999999999927e+03
1.229999999999999982e-01 1.558435000000000237e-01 2.653024999999999878e+01 1.374410000000000025e+02 1.847514999999999873e+03
1.239999999999999991e-01 1.558074999999999877e-01 2.559595000000000198e+01 1.365029999999999859e+02 1.847190000000000055e+03
1.250000000000000000e-01 1.557709999999999928e-01 2.468400000000000105e+01 1.355925000000000011e+02 1.846860000000000127e+03
1.260000000000000009e-01 1.557354999999999989e-01 2.380095000000000027e+01 1.347185000000000059e+02 1.846535000000000082e+03
1.270000000000000018e-01 1.557000000000000051e-01 2.295175000000000054e+01 1.338890000000000100e+02 1.846210000000000036e+03
1.280000000000000027e-01 1.556659999999999988e-01 2.213954999999999984e+01 1.331059999999999945e+02 1.845900000000000091e+03
1.290000000000000036e-01 1.556335000000000079e-01 2.136585000000000178e+01 1.323695000000000164e+02 1.845605000000000018e+03
1.300000000000000044e-01 1.556025000000000047e-01 2.063040000000000163e+01 1.316754999999999995e+02 1.845315000000000055e+03
1.310000000000000053e-01 1.555725000000000025e-01 1.993149999999999977e+01 1.310180000000000007e+02 1.845039999999999964e+03
1.320000000000000062e-01 1.555439999999999878e-01 1.926610000000000156e+01 1.303870000000000005e+02 1.844775000000000091e+03
1.330000000000000071e-01 1.555165000000000020e-01 1.862985000000000113e+01 1.297725000000000080e+02 1.844519999999999982e+03
1.340000000000000080e-01 1.554889999999999883e-01 1.801774999999999949e+01 1.291625000000000227e+02 1.844264999999999873e+03
1.350000000000000089e-01 1.554619999999999891e-01 1.742389999999999972e+01 1.285424999999999898e+02 1.844014999999999873e+03
1.360000000000000098e-01 1.554345000000000032e-01 1.684224999999999994e+01 1.279014999999999986e+02 1.843764999999999873e+03
1.370000000000000107e-01 1.554059999999999886e-01 1.626655000000000229e+01 1.272254999999999967e+02 1.843505000000000109e+03
1.380000000000000115e-01 1.553765000000000007e-01 1.569085000000000107e+01 1.265024999999999977e+02 1.843235000000000127e+03
1.390000000000000124e-01 1.553454999999999975e-01 1.510960000000000036e+01 1.257239999999999895e+02 1.842945000000000164e+03
1.400000000000000133e-01 1.553120000000000056e-01 1.451810000000000045e+01 1.248804999999999978e+02 1.842644999999999982e+03
1.410000000000000142e-01 1.552760000000000251e-01 1.391249999999999964e+01 1.239660000000000082e+02 1.842315000000000055e+03
1.420000000000000151e-01 1.552379999999999871e-01 1.329015000000000057e+01 1.229784999999999968e+02 1.841965000000000146e+03
1.430000000000000160e-01 1.551970000000000016e-01 1.264969999999999928e+01 1.219180000000000064e+02 1.841594999999999800e+03
1.440000000000000169e-01 1.551524999999999987e-01 1.199112000000000045e+01 1.207865000000000038e+02 1.841195000000000164e+03
1.450000000000000178e-01 1.551059999999999939e-01 1.131575000000000131e+01 1.195904999999999916e+02 1.840769999999999982e+03
1.459999999999999909e-01 1.550564999999999860e-01 1.062640500000000010e+01 1.183389999999999986e+02 1.840324999999999818e+03
1.469999999999999918e-01 1.550044999999999895e-01 9.927150000000001029e+00 1.170434999999999945e+02 1.839859999999999900e+03
1.479999999999999927e-01 1.549510000000000054e-01 9.223169999999999646e+00 1.157175000000000011e+02 1.839375000000000000e+03
1.489999999999999936e-01 1.548959999999999781e-01 8.520604999999999762e+00 1.143764999999999930e+02 1.838880000000000109e+03
1.499999999999999944e-01 1.548410000000000064e-01 7.826410000000000977e+00 1.130379999999999967e+02 1.838375000000000000e+03
1.509999999999999953e-01 1.547850000000000059e-01 7.147854999999999848e+00 1.117175000000000011e+02 1.837869999999999891e+03
1.519999999999999962e-01 1.547295000000000198e-01 6.492560000000000109e+00 1.104334999999999951e+02 1.837369999999999891e+03
1.529999999999999971e-01 1.546755000000000213e-01 5.867974999999999497e+00 1.092025000000000006e+02 1.836880000000000109e+03
1.539999999999999980e-01 1.546230000000000104e-01 5.281190000000000495e+00 1.080399999999999920e+02 1.836404999999999973e+03
1.549999999999999989e-01 1.545734999999999748e-01 4.738674999999999748e+00 1.069590000000000032e+02 1.835949999999999818e+03
1.559999999999999998e-01 1.545259999999999967e-01 4.246055000000000135e+00 1.059714999999999918e+02 1.835525000000000091e+03
1.570000000000000007e-01 1.544825000000000226e-01 3.807929999999999815e+00 1.050854999999999961e+02 1.835130000000000109e+03
1.580000000000000016e-01 1.544424999999999826e-01 3.427694999999999936e+00 1.043085000000000093e+02 1.834764999999999873e+03
1.590000000000000024e-01 1.544070000000000165e-01 3.107524999999999871e+00 1.036430000000000007e+02 1.834440000000000055e+03
