# t [s], A [cm^2], U [cm/s], P [cPa], c [cm/s]
1.000000000000000021e-03 5.909115000000000339e-01 3.401000000000001244e-03 1.005660000000000025e+02 1.529579999999999927e+03
2.000000000000000042e-03 5.909039999999999848e-01 1.826085000000000295e-03 1.005455000000000041e+02 1.529575000000000045e+03
3.000000000000000062e-03 5.909590000000000121e-01 9.925900000000001389e-02 1.006420999999999992e+02 1.529605000000000018e+03
4.000000000000000083e-03 5.910044999999999327e-01 1.873748660000000010e-01 1.007498500000000092e+02 1.529630000000000109e+03
5.000000000000000104e-03 5.909824999999999662e-01 1.604316499999999812e-01 1.007000999999999920e+02 1.529619999999999891e+03
6.000000000000000125e-03 5.909240000000000048e-01 6.471150000000000513e-02 1.005014999999999930e+02 1.529579999999999927e+03
7.000000000000000146e-03 5.908664999999999612e-01 -3.650249999999999329e-02 1.002284999999999968e+02 1.529519999999999982e+03
8.000000000000000167e-03 5.907784999999999842e-01 -2.036100000000000687e-01 9.982124999999999204e+01 1.529424999999999955e+03
9.000000000000001055e-03 5.906299999999999883e-01 -4.909550000000000303e-01 9.919559999999999889e+01 1.529285000000000082e+03
1.000000000000000194e-02 5.904169999999999696e-01 -9.006800000000000361e-01 9.830949999999999989e+01 1.529075000000000045e+03
1.099999999999999936e-02 5.901274999999999160e-01 -1.442784999999999762e+00 9.711324999999999363e+01 1.528789999999999964e+03
1.200000000000000025e-02 5.897489999999999677e-01 -2.122424999999999784e+00 9.556235000000000923e+01 1.528414999999999964e+03
1.300000000000000114e-02 5.892984999999999474e-01 -2.885124999999999940e+00 9.368299999999999272e+01 1.527945000000000164e+03
1.400000000000000203e-02 5.888279999999999070e-01 -3.608100000000000307e+00 9.160880000000000223e+01 1.527414999999999964e+03
1.499999999999999944e-02 5.883964999999999890e-01 -4.150272000000000183e+00 8.953354999999999109e+01 1.526859999999999900e+03
1.600000000000000033e-02 5.880434999999999413e-01 -4.412260999999999989e+00 8.763360000000000127e+01 1.526329999999999927e+03
1.700000000000000122e-02 5.877745000000000886e-01 -4.366710999999999565e+00 8.600740000000000407e+01 1.525844999999999800e+03
1.800000000000000211e-02 5.875654999999999628e-01 -4.053999000000000130e+00 8.465770000000000550e+01 1.525409999999999854e+03
1.900000000000000300e-02 5.873804999999999721e-01 -3.556582000000000132e+00 8.350874999999999204e+01 1.525014999999999873e+03
2.000000000000000042e-02 5.871800000000000352e-01 -2.966416000000000164e+00 8.244429999999999836e+01 1.524644999999999982e+03
2.100000000000000130e-02 5.869389999999999885e-01 -2.355902000000000385e+00 8.135094999999999743e+01 1.524275000000000091e+03
2.200000000000000219e-02 5.866485000000000172e-01 -1.760679999999999801e+00 8.015385000000000559e+01 1.523880000000000109e+03
2.299999999999999961e-02 5.863169999999999771e-01 -1.178885000000000183e+00 7.883185000000000286e+01 1.523464999999999918e+03
2.400000000000000050e-02 5.859644999999999992e-01 -5.854600000000000914e-01 7.741049999999999898e+01 1.523019999999999982e+03
2.500000000000000139e-02 5.856080000000000174e-01 4.625999999999974577e-02 7.593774999999999409e+01 1.522559999999999945e+03
2.600000000000000228e-02 5.852574999999999861e-01 7.253899999999999793e-01 7.445519999999999072e+01 1.522099999999999909e+03
2.700000000000000316e-02 5.849109999999999587e-01 1.433120000000000172e+00 7.297634999999999650e+01 1.521635000000000218e+03
2.800000000000000058e-02 5.845525000000000304e-01 2.122720000000000162e+00 7.147630000000000905e+01 1.521159999999999854e+03
2.900000000000000147e-02 5.841615000000000002e-01 2.728304999999999758e+00 6.989580000000000837e+01 1.520670000000000073e+03
3.000000000000000236e-02 5.837124999999999675e-01 3.178815000000000168e+00 6.815479999999999450e+01 1.520140000000000100e+03
3.099999999999999978e-02 5.831874999999999698e-01 3.413754999999999651e+00 6.617340000000000089e+01 1.519559999999999945e+03
3.200000000000000067e-02 5.825765000000000526e-01 3.396870000000000278e+00 6.389410000000000167e+01 1.518904999999999973e+03
3.300000000000000155e-02 5.818845000000000267e-01 3.124639999999999862e+00 6.129970000000000141e+01 1.518179999999999836e+03
3.400000000000000244e-02 5.811284999999999368e-01 2.627630000000000354e+00 5.842300000000000182e+01 1.517384999999999991e+03
3.500000000000000333e-02 5.803374999999999506e-01 1.964509999999999756e+00 5.534510000000000218e+01 1.516539999999999964e+03
3.600000000000000422e-02 5.795464999999999645e-01 1.211100000000000065e+00 5.218475000000000108e+01 1.515660000000000082e+03
3.700000000000000511e-02 5.787909999999999444e-01 4.481450000000002376e-01 4.908115000000000094e+01 1.514784999999999854e+03
3.799999999999999906e-02 5.781024999999999636e-01 -2.499750000000000583e-01 4.617575000000000074e+01 1.513954999999999927e+03
3.899999999999999994e-02 5.775079999999999103e-01 -8.224699999999995903e-01 4.359620000000000317e+01 1.513190000000000055e+03
4.000000000000000083e-02 5.770250000000000101e-01 -1.225814999999999877e+00 4.144519999999999982e+01 1.512529999999999973e+03
4.100000000000000172e-02 5.766634999999999955e-01 -1.433559999999999723e+00 3.979455000000000098e+01 1.511990000000000009e+03
4.200000000000000261e-02 5.764274999999999816e-01 -1.433595000000000175e+00 3.868460000000000321e+01 1.511590000000000146e+03
4.300000000000000350e-02 5.763169999999999682e-01 -1.224075000000000024e+00 3.812810000000000343e+01 1.511340000000000146e+03
4.400000000000000439e-02 5.763264999999999638e-01 -8.091854999999998910e-01 3.811590000000000344e+01 1.511235000000000127e+03
4.499999999999999833e-02 5.764510000000000467e-01 -1.957550000000000123e-01 3.862409999999999854e+01 1.511275000000000091e+03
4.599999999999999922e-02 5.766824999999999868e-01 6.086450000000001026e-01 3.961995000000000289e+01 1.511460000000000036e+03
4.700000000000000011e-02 5.770144999999999857e-01 1.596009999999999929e+00 4.106575000000000131e+01 1.511775000000000091e+03
4.800000000000000100e-02 5.774390000000000356e-01 2.757000000000000561e+00 4.292130000000000223e+01 1.512215000000000146e+03
4.900000000000000189e-02 5.779465000000000297e-01 4.079304999999999737e+00 4.514400000000000546e+01 1.512755000000000109e+03
5.000000000000000278e-02 5.785264999999999436e-01 5.546265000000000001e+00 4.768774999999999409e+01 1.513400000000000091e+03
5.100000000000000366e-02 5.791684999999999750e-01 7.135919999999999597e+00 5.050254999999999939e+01 1.514134999999999991e+03
5.200000000000000455e-02 5.798575000000000257e-01 8.821111000000000146e+00 5.353395000000000437e+01 1.514934999999999945e+03
5.300000000000000544e-02 5.805814999999999726e-01 1.057049999999999912e+01 5.672380000000000422e+01 1.515795000000000073e+03
5.399999999999999939e-02 5.813239999999999519e-01 1.235050999999999988e+01 6.001210000000000377e+01 1.516695000000000164e+03
5.500000000000000028e-02 5.820714999999999639e-01 1.412719499999999861e+01 6.333934999999999604e+01 1.517619999999999891e+03
5.600000000000000117e-02 5.828124999999999556e-01 1.586864999999999881e+01 6.664985000000000070e+01 1.518555000000000064e+03
5.700000000000000205e-02 5.835354999999999848e-01 1.754690000000000083e+01 6.989430000000000121e+01 1.519480000000000018e+03
5.800000000000000294e-02 5.842319999999999736e-01 1.913939999999999841e+01 7.303270000000000550e+01 1.520394999999999982e+03
5.900000000000000383e-02 5.848979999999999180e-01 2.062964999999999804e+01 7.603569999999999141e+01 1.521279999999999973e+03
6.000000000000000472e-02 5.855295000000000361e-01 2.200764999999999816e+01 7.888559999999999661e+01 1.522134999999999991e+03
6.099999999999999867e-02 5.861279999999999824e-01 2.326930000000000121e+01 8.157620000000000005e+01 1.522950000000000045e+03
6.199999999999999956e-02 5.866955000000000364e-01 2.441600000000000037e+01 8.411199999999999477e+01 1.523730000000000018e+03
6.300000000000000044e-02 5.872344999999999926e-01 2.545354999999999990e+01 8.650614999999999100e+01 1.524470000000000027e+03
6.400000000000000133e-02 5.877509999999999124e-01 2.639119999999999777e+01 8.877909999999999968e+01 1.525180000000000064e+03
6.500000000000000222e-02 5.882509999999999684e-01 2.724065000000000225e+01 9.095600000000000307e+01 1.525860000000000127e+03
6.600000000000000311e-02 5.887404999999999999e-01 2.801489999999999725e+01 9.306475000000000364e+01 1.526519999999999982e+03
6.700000000000000400e-02 5.892260000000000275e-01 2.872755000000000081e+01 9.513370000000000459e+01 1.527175000000000182e+03
6.800000000000000488e-02 5.897135000000000016e-01 2.939189999999999969e+01 9.718965000000000032e+01 1.527815000000000055e+03
6.900000000000000577e-02 5.902070000000000372e-01 3.001989999999999981e+01 9.925665000000000759e+01 1.528449999999999818e+03
7.000000000000000666e-02 5.907100000000000684e-01 3.062180000000000035e+01 1.013530999999999977e+02 1.529099999999999909e+03
7.100000000000000755e-02 5.912250000000000005e-01 3.120530000000000115e+01 1.034923500000000018e+02 1.529755000000000109e+03
7.200000000000000844e-02 5.917525000000000146e-01 3.177520000000000167e+01 1.056804999999999950e+02 1.530414999999999964e+03
7.300000000000000933e-02 5.922914999999999708e-01 3.233285000000000053e+01 1.079155000000000086e+02 1.531095000000000027e+03
7.399999999999999634e-02 5.928390000000000049e-01 3.287659999999999627e+01 1.101895000000000095e+02 1.531784999999999854e+03
7.499999999999999722e-02 5.933910000000000018e-01 3.340155000000000030e+01 1.124859999999999900e+02 1.532474999999999909e+03
7.599999999999999811e-02 5.939410000000000522e-01 3.390030000000000143e+01 1.147849999999999966e+02 1.533174999999999955e+03
7.699999999999999900e-02 5.944840000000000124e-01 3.436339999999999861e+01 1.170589999999999975e+02 1.533865000000000009e+03
7.799999999999999989e-02 5.950124999999999442e-01 3.478005000000000280e+01 1.192800000000000011e+02 1.534539999999999964e+03
7.900000000000000078e-02 5.955194999999999794e-01 3.513899999999999579e+01 1.214184999999999945e+02 1.535199999999999818e+03
8.000000000000000167e-02 5.959980000000000278e-01 3.542914999999999992e+01 1.234429999999999978e+02 1.535824999999999818e+03
8.100000000000000255e-02 5.964430000000000565e-01 3.564024999999999466e+01 1.253275000000000006e+02 1.536420000000000073e+03
8.200000000000000344e-02 5.968479999999999341e-01 3.576380000000000337e+01 1.270460000000000065e+02 1.536964999999999918e+03
8.300000000000000433e-02 5.972100000000000186e-01 3.579299999999999926e+01 1.285805000000000007e+02 1.537470000000000027e+03
8.400000000000000522e-02 5.975245000000000140e-01 3.572364999999999924e+01 1.299149999999999920e+02 1.537909999999999854e+03
8.500000000000000611e-02 5.977919999999999900e-01 3.555380000000000251e+01 1.310409999999999968e+02 1.538295000000000073e+03
8.600000000000000699e-02 5.980110000000000703e-01 3.528430000000000177e+01 1.319560000000000173e+02 1.538625000000000000e+03
8.700000000000000788e-02 5.981825000000000614e-01 3.491844999999999999e+01 1.326634999999999991e+02 1.538889999999999873e+03
8.800000000000000877e-02 5.983089999999999797e-01 3.446200000000000330e+01 1.331709999999999923e+02 1.539099999999999909e+03
8.899999999999999578e-02 5.983944999999999403e-01 3.392295000000000016e+01 1.334925000000000068e+02 1.539250000000000000e+03
8.999999999999999667e-02 5.984414999999999596e-01 3.331110000000000326e+01 1.336449999999999818e+02 1.539349999999999909e+03
9.099999999999999756e-02 5.984560000000000990e-01 3.263774999999999693e+01 1.336494999999999891e+02 1.539400000000000091e+03
9.199999999999999845e-02 5.984435000000000171e-01 3.191535000000000011e+01 1.335295000000000130e+02 1.539414999999999964e+03
9.299999999999999933e-02 5.984085000000000099e-01 3.115695000000000192e+01 1.333089999999999975e+02 1.539394999999999982e+03
9.400000000000000022e-02 5.983579999999999455e-01 3.037570000000000192e+01 1.330140000000000100e+02 1.539349999999999909e+03
9.500000000000000111e-02 5.982965000000000089e-01 2.958455000000000013e+01 1.326680000000000064e+02 1.539279999999999973e+03
9.600000000000000200e-02 5.982285000000000519e-01 2.879550000000000054e+01 1.322944999999999993e+02 1.539194999999999936e+03
9.700000000000000289e-02 5.981600000000000250e-01 2.801944999999999908e+01 1.319149999999999920e+02 1.539099999999999909e+03
9.800000000000000377e-02 5.980935000000000556e-01 2.726559999999999917e+01 1.315455000000000041e+02 1.539005000000000109e+03
9.900000000000000466e-02 5.980324999999999669e-01 2.654129999999999967e+01 1.312009999999999934e+02 1.538914999999999964e+03
1.000000000000000056e-01 5.979784999999999684e-01 2.585170000000000101e+01 1.308919999999999959e+02 1.538825000000000045e+03
1.010000000000000064e-01 5.979324999999999779e-01 2.519979999999999976e+01 1.306245000000000118e+02 1.538744999999999891e+03
1.020000000000000073e-01 5.978954999999999131e-01 2.458644999999999925e+01 1.304000000000000057e+02 1.538674999999999955e+03
1.030000000000000082e-01 5.978665000000000784e-01 2.401020000000000110e+01 1.302169999999999845e+02 1.538615000000000009e+03
1.040000000000000091e-01 5.978430000000000133e-01 2.346770000000000067e+01 1.300685000000000002e+02 1.538565000000000055e+03
1.050000000000000100e-01 5.978240000000000220e-01 2.295410000000000039e+01 1.299464999999999861e+02 1.538519999999999982e+03
1.059999999999999970e-01 5.978054999999999897e-01 2.246320000000000050e+01 1.298405000000000200e+02 1.538474999999999909e+03
1.069999999999999979e-01 5.977860000000000396e-01 2.198780000000000001e+01 1.297359999999999900e+02 1.538444999999999936e+03
1.079999999999999988e-01 5.977609999999999868e-01 2.152024999999999721e+01 1.296200000000000045e+02 1.538400000000000091e+03
1.089999999999999997e-01 5.977284999999999959e-01 2.105290000000000106e+01 1.294784999999999968e+02 1.538355000000000018e+03
1.100000000000000006e-01 5.976850000000000218e-01 2.057825000000000060e+01 1.292975000000000136e+02 1.538299999999999955e+03
1.110000000000000014e-01 5.976285000000000069e-01 2.008954999999999913e+01 1.290660000000000025e+02 1.538230000000000018e+03
1.120000000000000023e-01 5.975559999999999761e-01 1.958109999999999928e+01 1.287724999999999795e+02 1.538144999999999982e+03
1.130000000000000032e-01 5.974669999999999703e-01 1.904834999999999923e+01 1.284110000000000014e+02 1.538050000000000182e+03
1.140000000000000041e-01 5.973604999999999610e-01 1.848835000000000051e+01 1.279749999999999943e+02 1.537925000000000182e+03
1.150000000000000050e-01 5.972359999999999891e-01 1.789979999999999905e+01 1.274645000000000010e+02 1.537784999999999854e+03
1.160000000000000059e-01 5.970950000000000424e-01 1.728294999999999959e+01 1.268795000000000073e+02 1.537625000000000000e+03
1.170000000000000068e-01 5.969385000000000385e-01 1.664005000000000223e+01 1.262259999999999991e+02 1.537445000000000164e+03
1.180000000000000077e-01 5.967685000000000350e-01 1.597475000000000023e+01 1.255109999999999957e+02 1.537244999999999891e+03
1.190000000000000085e-01 5.965875000000000483e-01 1.529234999999999900e+01 1.247459999999999951e+02 1.537030000000000200e+03
1.200000000000000094e-01 5.963994999999999713e-01 1.459946000000000055e+01 1.239429999999999978e+02 1.536805000000000064e+03
1.209999999999999964e-01 5.962070000000000425e-01 1.390359499999999926e+01 1.231175000000000068e+02 1.536570000000000164e+03
1.219999999999999973e-01 5.960145000000000026e-01 1.321327499999999944e+01 1.222854999999999990e+02 1.536335000000000036e+03
1.229999999999999982e-01 5.958255000000000079e-01 1.253720500000000015e+01 1.214629999999999939e+02 1.536095000000000027e+03
1.239999999999999991e-01 5.956439999999999513e-01 1.188427000000000078e+01 1.206670000000000016e+02 1.535860000000000127e+03
1.250000000000000000e-01 5.954739999999999478e-01 1.126308500000000024e+01 1.199145000000000039e+02 1.535634999999999991e+03
1.260000000000000009e-01 5.953180000000000138e-01 1.068150499999999958e+01 1.192189999999999941e+02 1.535420000000000073e+03
1.270000000000000018e-01 5.951794999999999725e-01 1.014663499999999985e+01 1.185945000000000107e+02 1.535230000000000018e+03
1.280000000000000027e-01 5.950600000000000334e-01 9.664194999999999425e+00 1.180510000000000019e+02 1.535054999999999836e+03
1.290000000000000036e-01 5.949609999999999621e-01 9.238649999999999807e+00 1.175960000000000036e+02 1.534900000000000091e+03
1.300000000000000044e-01 5.948849999999999971e-01 8.872749999999999915e+00 1.172355000000000018e+02 1.534779999999999973e+03
1.310000000000000053e-01 5.948299999999999699e-01 8.567740000000000578e+00 1.169710000000000036e+02 1.534674999999999955e+03
1.320000000000000062e-01 5.947959999999999914e-01 8.323254999999999626e+00 1.168010000000000019e+02 1.534605000000000018e+03
1.330000000000000071e-01 5.947830000000000616e-01 8.137294999999999945e+00 1.167224999999999966e+02 1.534559999999999945e+03
1.340000000000000080e-01 5.947885000000000533e-01 8.006574999999999775e+00 1.167284999999999968e+02 1.534535000000000082e+03
1.350000000000000089e-01 5.948099999999999499e-01 7.926544999999999952e+00 1.168100000000000023e+02 1.534534999999999854e+03
1.360000000000000098e-01 5.948459999999999859e-01 7.891690000000000538e+00 1.169569999999999936e+02 1.534555000000000064e+03
1.370000000000000107e-01 5.948934999999999640e-01 7.895780000000000243e+00 1.171585000000000036e+02 1.534594999999999800e+03
1.380000000000000115e-01 5.949489999999999501e-01 7.932140000000000413e+00 1.174014999999999986e+02 1.534644999999999982e+03
1.390000000000000124e-01 5.950104999999999977e-01 7.993880000000000763e+00 1.176744999999999948e+02 1.534704999999999927e+03
1.400000000000000133e-01 5.950750000000000206e-01 8.074194999999999567e+00 1.179645000000000010e+02 1.534775000000000091e+03
1.410000000000000142e-01 5.951400000000000023e-01 8.166525000000000034e+00 1.182614999999999981e+02 1.534849999999999909e+03
1.420000000000000151e-01 5.952039999999999553e-01 8.264794999999999447e+00 1.185550000000000068e+02 1.534930000000000064e+03
1.430000000000000160e-01 5.952644999999999742e-01 8.363550000000000040e+00 1.188354999999999961e+02 1.535005000000000109e+03
1.440000000000000169e-01 5.953199999999999603e-01 8.458079999999998932e+00 1.190969999999999942e+02 1.535079999999999927e+03
1.450000000000000178e-01 5.953699999999999548e-01 8.544480000000000075e+00 1.193340000000000032e+02 1.535144999999999982e+03
1.459999999999999909e-01 5.954135000000000399e-01 8.619735000000000369e+00 1.195430000000000064e+02 1.535204999999999927e+03
1.469999999999999918e-01 5.954504999999999937e-01 8.681675000000000253e+00 1.197214999999999918e+02 1.535259999999999991e+03
1.479999999999999927e-01 5.954805000000000792e-01 8.728989999999999583e+00 1.198689999999999998e+02 1.535305000000000064e+03
1.489999999999999936e-01 5.955034999999999634e-01 8.761169999999999902e+00 1.199865000000000066e+02 1.535345000000000027e+03
1.499999999999999944e-01 5.955219999999999958e-01 8.778439999999999799e+00 1.200769999999999982e+02 1.535375000000000000e+03
1.509999999999999953e-01 5.955344999999999667e-01 8.781625000000000014e+00 1.201430000000000007e+02 1.535400000000000091e+03
1.519999999999999962e-01 5.955429999999999335e-01 8.772159999999999513e+00 1.201885000000000048e+02 1.535420000000000073e+03
1.529999999999999971e-01 5.955485000000000362e-01 8.751820000000000377e+00 1.202170000000000130e+02 1.535434999999999945e+03
1.539999999999999980e-01 5.955525000000000402e-01 8.722699999999999676e+00 1.202344999999999970e+02 1.535449999999999818e+03
1.549999999999999989e-01 5.955550000000000566e-01 8.687030000000000030e+00 1.202450000000000045e+02 1.535454999999999927e+03
1.559999999999999998e-01 5.955580000000000318e-01 8.647225000000000605e+00 1.202530000000000001e+02 1.535460000000000036e+03
1.570000000000000007e-01 5.955614999999999659e-01 8.605460000000000775e+00 1.202625000000000028e+02 1.535465000000000146e+03
1.580000000000000016e-01 5.955664999999999987e-01 8.563855000000000217e+00 1.202770000000000010e+02 1.535474999999999909e+03
1.590000000000000024e-01 5.955740000000000478e-01 8.524235000000000895e+00 1.202994999999999948e+02 1.535485000000000127e+03
