# t [s], A [cm^2], U [cm/s], P [cPa], c [cm/s]
1.000000000000000021e-03 1.350895000000000012e-01 2.027760000000000118e-01 8.640784999999999627e+01 1.822454999999999927e+03
2.000000000000000042e-03 1.350744999999999862e-01 1.421067500000000150e+00 8.402524999999999977e+01 1.822275000000000091e+03
3.000000000000000062e-03 1.350060000000000149e-01 2.933815499999999687e+00 8.093495000000000061e+01 1.821514999999999873e+03
4.000000000000000083e-03 1.349005000000000065e-01 4.613565200000000033e+00 7.740470000000000539e+01 1.820349999999999909e+03
5.000000000000000104e-03 1.347750000000000059e-01 6.421019999999999506e+00 7.397435000000000116e+01 1.818980000000000018e+03
6.000000000000000125e-03 1.346434999999999993e-01 8.288864999999999483e+00 7.098624999999999829e+01 1.817565000000000055e+03
7.000000000000000146e-03 1.345149999999999957e-01 1.010277500000000117e+01 6.848529999999999518e+01 1.816195000000000164e+03
8.000000000000000167e-03 1.343929999999999847e-01 1.175253000000000014e+01 6.632609999999999673e+01 1.814904999999999973e+03
9.000000000000001055e-03 1.342784999999999951e-01 1.319378000000000029e+01 6.438989999999999725e+01 1.813710000000000036e+03
1.000000000000000194e-02 1.341740000000000155e-01 1.443932500000000019e+01 6.267730000000000246e+01 1.812644999999999982e+03
1.099999999999999936e-02 1.340819999999999790e-01 1.551020000000000110e+01 6.122504999999999598e+01 1.811704999999999927e+03
1.200000000000000025e-02 1.340024999999999966e-01 1.641624999999999801e+01 6.003314999999999202e+01 1.810909999999999854e+03
1.300000000000000114e-02 1.339354999999999851e-01 1.716264999999999930e+01 5.907000000000000028e+01 1.810240000000000009e+03
1.400000000000000203e-02 1.338794999999999846e-01 1.775225000000000009e+01 5.828879999999999484e+01 1.809690000000000055e+03
1.499999999999999944e-02 1.338325000000000209e-01 1.818700000000000117e+01 5.763150000000000261e+01 1.809235000000000127e+03
1.600000000000000033e-02 1.337929999999999953e-01 1.847765000000000057e+01 5.704900000000000659e+01 1.808860000000000127e+03
1.700000000000000122e-02 1.337590000000000168e-01 1.865944999999999965e+01 5.654395000000000238e+01 1.808545000000000073e+03
1.800000000000000211e-02 1.337324999999999764e-01 1.879479999999999862e+01 5.619845000000000113e+01 1.808305000000000064e+03
1.900000000000000300e-02 1.337165000000000159e-01 1.895870000000000033e+01 5.615520000000000067e+01 1.808154999999999973e+03
2.000000000000000042e-02 1.337134999999999851e-01 1.921239999999999881e+01 5.655599999999999739e+01 1.808144999999999982e+03
2.100000000000000130e-02 1.337265000000000259e-01 1.958140000000000214e+01 5.747225000000000250e+01 1.808289999999999964e+03
2.200000000000000219e-02 1.337569999999999870e-01 2.004680000000000106e+01 5.886280000000000001e+01 1.808595000000000027e+03
2.299999999999999961e-02 1.338004999999999889e-01 2.055320000000000036e+01 6.057559999999999434e+01 1.809045000000000073e+03
2.400000000000000050e-02 1.338535000000000141e-01 2.102680000000000149e+01 6.238754999999999740e+01 1.809585000000000036e+03
2.500000000000000139e-02 1.339090000000000003e-01 2.139669999999999916e+01 6.406314999999999316e+01 1.810160000000000082e+03
2.600000000000000228e-02 1.339615000000000111e-01 2.161234999999999928e+01 6.541145000000000209e+01 1.810704999999999927e+03
2.700000000000000316e-02 1.340054999999999996e-01 2.165310000000000201e+01 6.632415000000000305e+01 1.811174999999999955e+03
2.800000000000000058e-02 1.340395000000000059e-01 2.152799999999999869e+01 6.678790000000000759e+01 1.811534999999999854e+03
2.900000000000000147e-02 1.340620000000000145e-01 2.126845000000000141e+01 6.687049999999999272e+01 1.811779999999999973e+03
3.000000000000000236e-02 1.340744999999999854e-01 2.091604999999999848e+01 6.668890000000000384e+01 1.811924999999999955e+03
3.099999999999999978e-02 1.340795000000000181e-01 2.051024999999999920e+01 6.637065000000001191e+01 1.811985000000000127e+03
3.200000000000000067e-02 1.340794999999999904e-01 2.007905000000000229e+01 6.601984999999999104e+01 1.812000000000000000e+03
3.300000000000000155e-02 1.340770000000000017e-01 1.963450000000000273e+01 6.569589999999999463e+01 1.811980000000000018e+03
3.400000000000000244e-02 1.340729999999999977e-01 1.917399999999999949e+01 6.540874999999999773e+01 1.811944999999999936e+03
3.500000000000000333e-02 1.340680000000000205e-01 1.868509999999999849e+01 6.512869999999999493e+01 1.811894999999999982e+03
3.600000000000000422e-02 1.340609999999999857e-01 1.815305000000000035e+01 6.480580000000000496e+01 1.811829999999999927e+03
3.700000000000000511e-02 1.340510000000000035e-01 1.756844999999999857e+01 6.439279999999999404e+01 1.811735000000000127e+03
3.799999999999999906e-02 1.340374999999999761e-01 1.693220000000000169e+01 6.386514999999999986e+01 1.811605000000000018e+03
3.899999999999999994e-02 1.340204999999999869e-01 1.625894999999999868e+01 6.323369999999999891e+01 1.811434999999999945e+03
4.000000000000000083e-02 1.340005000000000224e-01 1.557574999999999932e+01 6.254735000000000156e+01 1.811240000000000009e+03
4.100000000000000172e-02 1.339795000000000014e-01 1.491835000000000022e+01 6.188569999999999993e+01 1.811025000000000091e+03
4.200000000000000261e-02 1.339595000000000091e-01 1.432485000000000142e+01 6.134364999999999668e+01 1.810829999999999927e+03
4.300000000000000350e-02 1.339434999999999931e-01 1.382884999999999920e+01 6.101194999999999879e+01 1.810664999999999964e+03
4.400000000000000439e-02 1.339339999999999975e-01 1.345364999999999966e+01 6.095860000000000412e+01 1.810565000000000055e+03
4.499999999999999833e-02 1.339329999999999965e-01 1.320775000000000077e+01 6.121479999999999677e+01 1.810545000000000073e+03
4.599999999999999922e-02 1.339404999999999901e-01 1.308409999999999940e+01 6.176845000000000141e+01 1.810615000000000009e+03
4.700000000000000011e-02 1.339569999999999927e-01 1.306119999999999948e+01 6.256584999999999752e+01 1.810769999999999982e+03
4.800000000000000100e-02 1.339805000000000024e-01 1.310679999999999978e+01 6.352035000000000053e+01 1.811000000000000000e+03
4.900000000000000189e-02 1.340085000000000026e-01 1.318244999999999933e+01 6.452549999999999386e+01 1.811279999999999973e+03
5.000000000000000278e-02 1.340385000000000049e-01 1.324875000000000114e+01 6.547039999999999793e+01 1.811579999999999927e+03
5.100000000000000366e-02 1.340679999999999927e-01 1.326954999999999885e+01 6.625324999999999420e+01 1.811869999999999891e+03
5.200000000000000455e-02 1.340925000000000034e-01 1.321545000000000059e+01 6.679240000000000066e+01 1.812119999999999891e+03
5.300000000000000544e-02 1.341100000000000070e-01 1.306530000000000058e+01 6.703274999999999295e+01 1.812304999999999836e+03
5.399999999999999939e-02 1.341195000000000026e-01 1.280705000000000027e+01 6.694764999999999588e+01 1.812400000000000091e+03
5.500000000000000028e-02 1.341189999999999882e-01 1.243684999999999974e+01 6.653669999999999618e+01 1.812400000000000091e+03
5.600000000000000117e-02 1.341084999999999916e-01 1.195769999999999911e+01 6.582099999999999795e+01 1.812299999999999955e+03
5.700000000000000205e-02 1.340879999999999850e-01 1.137778499999999937e+01 6.483679999999999666e+01 1.812099999999999909e+03
5.800000000000000294e-02 1.340589999999999837e-01 1.070868000000000109e+01 6.362900000000000489e+01 1.811804999999999836e+03
5.900000000000000383e-02 1.340220000000000022e-01 9.964145000000000252e+00 6.224585000000000434e+01 1.811434999999999945e+03
6.000000000000000472e-02 1.339779999999999860e-01 9.159140000000000725e+00 6.073530000000000229e+01 1.810994999999999891e+03
6.099999999999999867e-02 1.339285000000000059e-01 8.309564999999999202e+00 5.914305000000000234e+01 1.810500000000000000e+03
6.199999999999999956e-02 1.338754999999999806e-01 7.432135000000000602e+00 5.751189999999999714e+01 1.809960000000000036e+03
6.300000000000000044e-02 1.338199999999999945e-01 6.544515000000000526e+00 5.588284999999999769e+01 1.809404999999999973e+03
6.400000000000000133e-02 1.337639999999999940e-01 5.665625000000000355e+00 5.429614999999999725e+01 1.808825000000000045e+03
6.500000000000000222e-02 1.337079999999999935e-01 4.815665000000000084e+00 5.279255000000000564e+01 1.808259999999999991e+03
6.600000000000000311e-02 1.336539999999999950e-01 4.016090000000000160e+00 5.141424999999999557e+01 1.807710000000000036e+03
6.700000000000000400e-02 1.336034999999999862e-01 3.289210000000000189e+00 5.020459999999999923e+01 1.807200000000000045e+03
6.800000000000000488e-02 1.335580000000000100e-01 2.657593000000000316e+00 4.920779999999999887e+01 1.806735000000000127e+03
6.900000000000000577e-02 1.335199999999999998e-01 2.143259500000000095e+00 4.846715000000000373e+01 1.806335000000000036e+03
7.000000000000000666e-02 1.334895000000000109e-01 1.766715500000000105e+00 4.802309999999999945e+01 1.806025000000000091e+03
7.100000000000000755e-02 1.334690000000000043e-01 1.546000000000000041e+00 4.791114999999999924e+01 1.805804999999999836e+03
7.200000000000000844e-02 1.334600000000000231e-01 1.495749999999999913e+00 4.815950000000000131e+01 1.805699999999999818e+03
7.300000000000000933e-02 1.334624999999999839e-01 1.626479999999999926e+00 4.878750000000000142e+01 1.805710000000000036e+03
7.399999999999999634e-02 1.334774999999999989e-01 1.944010000000000016e+00 4.980395000000000039e+01 1.805859999999999900e+03
7.499999999999999722e-02 1.335065000000000002e-01 2.449230000000000018e+00 5.120655000000000001e+01 1.806134999999999991e+03
7.599999999999999811e-02 1.335490000000000010e-01 3.138084999999999791e+00 5.298219999999999885e+01 1.806549999999999955e+03
7.699999999999999900e-02 1.336045000000000149e-01 4.001820000000000377e+00 5.510745000000000005e+01 1.807095000000000027e+03
7.799999999999999989e-02 1.336724999999999997e-01 5.027484999999999538e+00 5.755010000000000048e+01 1.807769999999999982e+03
7.900000000000000078e-02 1.337519999999999820e-01 6.198615000000000208e+00 6.027079999999999416e+01 1.808565000000000055e+03
8.000000000000000167e-02 1.338420000000000165e-01 7.496005000000000251e+00 6.322514999999999930e+01 1.809469999999999800e+03
8.100000000000000255e-02 1.339414999999999911e-01 8.898634999999998740e+00 6.636624999999999375e+01 1.810470000000000027e+03
8.200000000000000344e-02 1.340484999999999871e-01 1.038445500000000088e+01 6.964660000000000650e+01 1.811549999999999955e+03
8.300000000000000433e-02 1.341610000000000025e-01 1.193154499999999985e+01 7.302070000000000505e+01 1.812690000000000055e+03
8.400000000000000522e-02 1.342789999999999817e-01 1.351855000000000118e+01 7.644644999999999868e+01 1.813889999999999873e+03
8.500000000000000611e-02 1.343999999999999917e-01 1.512565000000000026e+01 7.988694999999999879e+01 1.815119999999999891e+03
8.600000000000000699e-02 1.345224999999999893e-01 1.673495000000000132e+01 8.331139999999999191e+01 1.816375000000000000e+03
8.700000000000000788e-02 1.346459999999999879e-01 1.833105000000000118e+01 8.669599999999999795e+01 1.817639999999999873e+03
8.800000000000000877e-02 1.347694999999999865e-01 1.990095000000000169e+01 9.002349999999999852e+01 1.818909999999999854e+03
8.899999999999999578e-02 1.348920000000000119e-01 2.143430000000000035e+01 9.328334999999999866e+01 1.820174999999999955e+03
8.999999999999999667e-02 1.350129999999999941e-01 2.292330000000000112e+01 9.647095000000000198e+01 1.821429999999999836e+03
9.099999999999999756e-02 1.351324999999999887e-01 2.436230000000000118e+01 9.958590000000000941e+01 1.822664999999999964e+03
9.199999999999999845e-02 1.352500000000000091e-01 2.574749999999999872e+01 1.026311499999999910e+02 1.823889999999999873e+03
9.299999999999999933e-02 1.353654999999999997e-01 2.707659999999999911e+01 1.056135500000000036e+02 1.825090000000000146e+03
9.400000000000000022e-02 1.354794999999999749e-01 2.834850000000000136e+01 1.085380000000000109e+02 1.826279999999999973e+03
9.500000000000000111e-02 1.355914999999999759e-01 2.956260000000000332e+01 1.114115000000000038e+02 1.827449999999999818e+03
9.600000000000000200e-02 1.357019999999999893e-01 3.071869999999999834e+01 1.142390000000000043e+02 1.828605000000000018e+03
9.700000000000000289e-02 1.358110000000000150e-01 3.181664999999999921e+01 1.170229999999999961e+02 1.829744999999999891e+03
9.800000000000000377e-02 1.359180000000000110e-01 3.285609999999999786e+01 1.197644999999999982e+02 1.830875000000000000e+03
9.900000000000000466e-02 1.360240000000000060e-01 3.383635000000000304e+01 1.224615000000000009e+02 1.831985000000000127e+03
1.000000000000000056e-01 1.361284999999999856e-01 3.475624999999999432e+01 1.251110000000000042e+02 1.833085000000000036e+03
1.010000000000000064e-01 1.362309999999999910e-01 3.561424999999999841e+01 1.277050000000000125e+02 1.834164999999999964e+03
1.020000000000000073e-01 1.363320000000000087e-01 3.640829999999999700e+01 1.302370000000000232e+02 1.835230000000000018e+03
1.030000000000000082e-01 1.364299999999999957e-01 3.713600000000000279e+01 1.326959999999999980e+02 1.836264999999999873e+03
1.040000000000000091e-01 1.365259999999999807e-01 3.779465000000000430e+01 1.350710000000000264e+02 1.837284999999999854e+03
1.050000000000000100e-01 1.366189999999999904e-01 3.838134999999999764e+01 1.373514999999999873e+02 1.838269999999999982e+03
1.059999999999999970e-01 1.367085000000000106e-01 3.889314999999999856e+01 1.395254999999999939e+02 1.839224999999999909e+03
1.069999999999999979e-01 1.367944999999999856e-01 3.932704999999999984e+01 1.415810000000000173e+02 1.840134999999999991e+03
1.079999999999999988e-01 1.368765000000000120e-01 3.968014999999999759e+01 1.435080000000000098e+02 1.841009999999999991e+03
1.089999999999999997e-01 1.369535000000000058e-01 3.995000000000000284e+01 1.452950000000000159e+02 1.841829999999999927e+03
1.100000000000000006e-01 1.370259999999999811e-01 4.013429999999999609e+01 1.469345000000000141e+02 1.842610000000000127e+03
1.110000000000000014e-01 1.370934999999999793e-01 4.023134999999999906e+01 1.484175000000000182e+02 1.843324999999999818e+03
1.120000000000000023e-01 1.371549999999999991e-01 4.024009999999999820e+01 1.497384999999999877e+02 1.843990000000000009e+03
1.130000000000000032e-01 1.372114999999999863e-01 4.016009999999999991e+01 1.508930000000000007e+02 1.844594999999999800e+03
1.140000000000000041e-01 1.372614999999999807e-01 3.999195000000000277e+01 1.518785000000000025e+02 1.845130000000000109e+03
1.150000000000000050e-01 1.373050000000000104e-01 3.973689999999999856e+01 1.526945000000000050e+02 1.845609999999999900e+03
1.160000000000000059e-01 1.373425000000000062e-01 3.939750000000000085e+01 1.533445000000000107e+02 1.846015000000000100e+03
1.170000000000000068e-01 1.373745000000000105e-01 3.897710000000000008e+01 1.538319999999999936e+02 1.846365000000000009e+03
1.180000000000000077e-01 1.374004999999999810e-01 3.848019999999999641e+01 1.541639999999999873e+02 1.846644999999999982e+03
1.190000000000000085e-01 1.374199999999999866e-01 3.791219999999999857e+01 1.543505000000000109e+02 1.846865000000000009e+03
1.200000000000000094e-01 1.374350000000000016e-01 3.727955000000000041e+01 1.544010000000000105e+02 1.847030000000000200e+03
1.209999999999999964e-01 1.374440000000000106e-01 3.658930000000000149e+01 1.543300000000000125e+02 1.847140000000000100e+03
1.219999999999999973e-01 1.374485000000000012e-01 3.584909999999999997e+01 1.541500000000000057e+02 1.847194999999999936e+03
1.229999999999999982e-01 1.374485000000000012e-01 3.506709999999999638e+01 1.538765000000000214e+02 1.847204999999999927e+03
1.239999999999999991e-01 1.374454999999999982e-01 3.425159999999999627e+01 1.535250000000000057e+02 1.847175000000000182e+03
1.250000000000000000e-01 1.374380000000000046e-01 3.341075000000000017e+01 1.531105000000000018e+02 1.847105000000000018e+03
1.260000000000000009e-01 1.374285000000000090e-01 3.255275000000000318e+01 1.526469999999999914e+02 1.847009999999999991e+03
1.270000000000000018e-01 1.374164999999999970e-01 3.168505000000000038e+01 1.521475000000000080e+02 1.846880000000000109e+03
1.280000000000000027e-01 1.374024999999999830e-01 3.081465000000000032e+01 1.516245000000000118e+02 1.846740000000000009e+03
1.290000000000000036e-01 1.373869999999999814e-01 2.994780000000000086e+01 1.510875000000000057e+02 1.846579999999999927e+03
1.300000000000000044e-01 1.373705000000000065e-01 2.908979999999999677e+01 1.505450000000000159e+02 1.846404999999999973e+03
1.310000000000000053e-01 1.373530000000000029e-01 2.824504999999999910e+01 1.500029999999999859e+02 1.846224999999999909e+03
1.320000000000000062e-01 1.373360000000000136e-01 2.741680000000000206e+01 1.494655000000000200e+02 1.846034999999999854e+03
1.330000000000000071e-01 1.373175000000000090e-01 2.660754999999999981e+01 1.489339999999999975e+02 1.845845000000000027e+03
1.340000000000000080e-01 1.372990000000000044e-01 2.581850000000000023e+01 1.484099999999999966e+02 1.845650000000000091e+03
1.350000000000000089e-01 1.372809999999999864e-01 2.505019999999999669e+01 1.478894999999999982e+02 1.845454999999999927e+03
1.360000000000000098e-01 1.372630000000000239e-01 2.430205000000000126e+01 1.473710000000000093e+02 1.845259999999999991e+03
1.370000000000000107e-01 1.372439999999999771e-01 2.357289999999999708e+01 1.468499999999999943e+02 1.845059999999999945e+03
1.380000000000000115e-01 1.372255000000000003e-01 2.286100000000000065e+01 1.463199999999999932e+02 1.844855000000000018e+03
1.390000000000000124e-01 1.372055000000000080e-01 2.216385000000000005e+01 1.457754999999999939e+02 1.844644999999999982e+03
1.400000000000000133e-01 1.371860000000000024e-01 2.147890000000000299e+01 1.452110000000000127e+02 1.844429999999999836e+03
1.410000000000000142e-01 1.371649999999999814e-01 2.080310000000000059e+01 1.446179999999999950e+02 1.844215000000000146e+03
1.420000000000000151e-01 1.371430000000000149e-01 2.013349999999999795e+01 1.439925000000000068e+02 1.843980000000000018e+03
1.430000000000000160e-01 1.371199999999999919e-01 1.946719999999999828e+01 1.433274999999999864e+02 1.843730000000000018e+03
1.440000000000000169e-01 1.370959999999999956e-01 1.880145000000000266e+01 1.426184999999999832e+02 1.843470000000000027e+03
1.450000000000000178e-01 1.370699999999999974e-01 1.813390000000000057e+01 1.418614999999999782e+02 1.843195000000000164e+03
1.459999999999999909e-01 1.370419999999999972e-01 1.746245000000000047e+01 1.410540000000000020e+02 1.842904999999999973e+03
1.469999999999999918e-01 1.370129999999999959e-01 1.678569999999999851e+01 1.401940000000000168e+02 1.842590000000000146e+03
1.479999999999999927e-01 1.369814999999999783e-01 1.610285000000000011e+01 1.392824999999999989e+02 1.842260000000000218e+03
1.489999999999999936e-01 1.369485000000000008e-01 1.541355000000000075e+01 1.383199999999999932e+02 1.841909999999999854e+03
1.499999999999999944e-01 1.369134999999999935e-01 1.471849999999999881e+01 1.373100000000000023e+02 1.841539999999999964e+03
1.509999999999999953e-01 1.368765000000000120e-01 1.401869999999999905e+01 1.362565000000000168e+02 1.841159999999999854e+03
1.519999999999999962e-01 1.368389999999999884e-01 1.331599999999999895e+01 1.351665000000000134e+02 1.840755000000000109e+03
1.529999999999999971e-01 1.367990000000000039e-01 1.261299999999999955e+01 1.340455000000000041e+02 1.840335000000000036e+03
1.539999999999999980e-01 1.367585000000000051e-01 1.191257000000000055e+01 1.329025000000000034e+02 1.839904999999999973e+03
1.549999999999999989e-01 1.367170000000000052e-01 1.121827500000000022e+01 1.317464999999999975e+02 1.839465000000000146e+03
1.559999999999999998e-01 1.366740000000000177e-01 1.053391500000000036e+01 1.305869999999999891e+02 1.839019999999999982e+03
1.570000000000000007e-01 1.366315000000000168e-01 9.863630000000000564e+00 1.294335000000000093e+02 1.838569999999999936e+03
1.580000000000000016e-01 1.365885000000000016e-01 9.211579999999999657e+00 1.282969999999999970e+02 1.838119999999999891e+03
1.590000000000000024e-01 1.365465000000000151e-01 8.581939999999999458e+00 1.271854999999999905e+02 1.837675000000000182e+03
