# t [s], A [cm^2], U [cm/s], P [cPa], c [cm/s]
1.000000000000000021e-03 5.085564999999999669e-01 2.679000000000000825e-03 9.055174999999999841e+01 1.447519999999999982e+03
2.000000000000000042e-03 5.085499999999999465e-01 -6.167800000000001493e-04 9.053735000000000355e+01 1.447514999999999873e+03
3.000000000000000062e-03 5.085724999999999829e-01 4.263355000000000616e-02 9.057455000000000211e+01 1.447530000000000200e+03
4.000000000000000083e-03 5.086154999999999982e-01 1.246042000000000122e-01 9.066904999999999859e+01 1.447554999999999836e+03
5.000000000000000104e-03 5.086289999999999978e-01 1.545806999999999876e-01 9.070820000000000505e+01 1.447575000000000045e+03
6.000000000000000125e-03 5.086045000000000149e-01 1.139857999999999982e-01 9.064305000000000234e+01 1.447559999999999945e+03
7.000000000000000146e-03 5.085699999999999665e-01 5.077750000000000319e-02 9.050964999999999350e+01 1.447525000000000091e+03
8.000000000000000167e-03 5.085374999999999757e-01 -1.235399999999997611e-02 9.033804999999999552e+01 1.447480000000000018e+03
9.000000000000001055e-03 5.084874999999999812e-01 -1.143899999999999362e-01 9.009180000000000632e+01 1.447420000000000073e+03
1.000000000000000194e-02 5.084054999999999547e-01 -2.876469999999999860e-01 8.972450000000000614e+01 1.447320000000000164e+03
1.099999999999999936e-02 5.082854999999999457e-01 -5.408899999999999819e-01 8.920629999999999882e+01 1.447184999999999945e+03
1.200000000000000025e-02 5.081210000000000448e-01 -8.840649999999999897e-01 8.850454999999999472e+01 1.446990000000000009e+03
1.300000000000000114e-02 5.079024999999999235e-01 -1.324314999999999909e+00 8.758754999999999313e+01 1.446744999999999891e+03
1.400000000000000203e-02 5.076349999999999474e-01 -1.841009999999999813e+00 8.645390000000000441e+01 1.446424999999999955e+03
1.499999999999999944e-02 5.073404999999999720e-01 -2.376570000000000071e+00 8.515180000000000859e+01 1.446049999999999955e+03
1.600000000000000033e-02 5.070474999999999843e-01 -2.853685000000000027e+00 8.376805000000000234e+01 1.445639999999999873e+03
1.700000000000000122e-02 5.067814999999999959e-01 -3.203269999999999840e+00 8.239754999999999541e+01 1.445215000000000146e+03
1.800000000000000211e-02 5.065539999999999488e-01 -3.384701999999999877e+00 8.111365000000000691e+01 1.444804999999999836e+03
1.900000000000000300e-02 5.063640000000000363e-01 -3.391558499999999921e+00 7.995224999999999227e+01 1.444409999999999854e+03
2.000000000000000042e-02 5.061995000000000244e-01 -3.245576950000000238e+00 7.891094999999999970e+01 1.444039999999999964e+03
2.100000000000000130e-02 5.060434999999999794e-01 -2.984633550000000302e+00 7.795820000000000505e+01 1.443690000000000055e+03
2.200000000000000219e-02 5.058804999999999552e-01 -2.649721500000000063e+00 7.704834999999999923e+01 1.443340000000000146e+03
2.299999999999999961e-02 5.056994999999999685e-01 -2.274242999999999792e+00 7.613660000000000139e+01 1.442994999999999891e+03
2.400000000000000050e-02 5.054965000000000153e-01 -1.877560000000000340e+00 7.519095000000000084e+01 1.442639999999999873e+03
2.500000000000000139e-02 5.052735000000000420e-01 -1.463935000000000208e+00 7.419859999999999900e+01 1.442275000000000091e+03
2.600000000000000228e-02 5.050379999999999869e-01 -1.026460000000000150e+00 7.316505000000000791e+01 1.441900000000000091e+03
2.700000000000000316e-02 5.047970000000000512e-01 -5.541799999999998949e-01 7.210779999999999745e+01 1.441510000000000218e+03
2.800000000000000058e-02 5.045585000000000209e-01 -3.976500000000005031e-02 7.104699999999999704e+01 1.441125000000000000e+03
2.900000000000000147e-02 5.043235000000000356e-01 5.146100000000000119e-01 6.999635000000000673e+01 1.440735000000000127e+03
3.000000000000000236e-02 5.040894999999999682e-01 1.094654999999999712e+00 6.895709999999999695e+01 1.440349999999999909e+03
3.099999999999999978e-02 5.038510000000000488e-01 1.674825000000000008e+00 6.791550000000000864e+01 1.439960000000000036e+03
3.200000000000000067e-02 5.035969999999999613e-01 2.221919999999999895e+00 6.684499999999999886e+01 1.439565000000000055e+03
3.300000000000000155e-02 5.033180000000000431e-01 2.700540000000000163e+00 6.571134999999999593e+01 1.439150000000000091e+03
3.400000000000000244e-02 5.030054999999999943e-01 3.079089999999999883e+00 6.447995000000000232e+01 1.438714999999999918e+03
3.500000000000000333e-02 5.026550000000000740e-01 3.335215000000000263e+00 6.312359999999999616e+01 1.438250000000000000e+03
3.600000000000000422e-02 5.022664999999999491e-01 3.459559999999999746e+00 6.162919999999999732e+01 1.437750000000000000e+03
3.700000000000000511e-02 5.018460000000000143e-01 3.457139999999999880e+00 6.000215000000000032e+01 1.437210000000000036e+03
3.799999999999999906e-02 5.014030000000000431e-01 3.346280000000000143e+00 5.826724999999999710e+01 1.436639999999999873e+03
3.899999999999999994e-02 5.009509999999999241e-01 3.155259999999999732e+00 5.646649999999999636e+01 1.436055000000000064e+03
4.000000000000000083e-02 5.005060000000000064e-01 2.917839999999999989e+00 5.465395000000000181e+01 1.435454999999999927e+03
4.100000000000000172e-02 5.000820000000000265e-01 2.668855000000000199e+00 5.288970000000000482e+01 1.434875000000000000e+03
4.200000000000000261e-02 4.996924999999999839e-01 2.440185000000000493e+00 5.123375000000000057e+01 1.434309999999999945e+03
4.300000000000000350e-02 4.993484999999999729e-01 2.258394999999999708e+00 4.974089999999999634e+01 1.433800000000000182e+03
4.400000000000000439e-02 4.990580000000000016e-01 2.143694999999999684e+00 4.845694999999999908e+01 1.433344999999999800e+03
4.499999999999999833e-02 4.988259999999999916e-01 2.110050000000000203e+00 4.741729999999999734e+01 1.432960000000000036e+03
4.599999999999999922e-02 4.986565000000000580e-01 2.166290000000000049e+00 4.664645000000000152e+01 1.432650000000000091e+03
4.700000000000000011e-02 4.985505000000000075e-01 2.317598000000000269e+00 4.615914999999999679e+01 1.432429999999999836e+03
4.800000000000000100e-02 4.985074999999999923e-01 2.567084999999999617e+00 4.596255000000000024e+01 1.432300000000000182e+03
4.900000000000000189e-02 4.985289999999999999e-01 2.917030000000000012e+00 4.605774999999999864e+01 1.432269999999999982e+03
5.000000000000000278e-02 4.986134999999999873e-01 3.369645000000000223e+00 4.644204999999999472e+01 1.432325000000000045e+03
5.100000000000000366e-02 4.987594999999999668e-01 3.927230000000000221e+00 4.711015000000000441e+01 1.432480000000000018e+03
5.200000000000000455e-02 4.989675000000000082e-01 4.591764999999999652e+00 4.805480000000000018e+01 1.432720000000000027e+03
5.300000000000000544e-02 4.992349999999999843e-01 5.364219999999999544e+00 4.926675000000000182e+01 1.433055000000000064e+03
5.399999999999999939e-02 4.995600000000000041e-01 6.243675000000000530e+00 5.073449999999999704e+01 1.433474999999999909e+03
5.500000000000000028e-02 4.999390000000000223e-01 7.226555000000000284e+00 5.244355000000000189e+01 1.433974999999999909e+03
5.600000000000000117e-02 5.003680000000000350e-01 8.306169999999999831e+00 5.437595000000000312e+01 1.434554999999999836e+03
5.700000000000000205e-02 5.008409999999999807e-01 9.472570000000001045e+00 5.650990000000000180e+01 1.435204999999999927e+03
5.800000000000000294e-02 5.013524999999999787e-01 1.071277999999999864e+01 5.882005000000000194e+01 1.435920000000000073e+03
5.900000000000000383e-02 5.018949999999999800e-01 1.201144999999999996e+01 6.127785000000000082e+01 1.436690000000000055e+03
6.000000000000000472e-02 5.024615000000000054e-01 1.335164999999999935e+01 6.385259999999999536e+01 1.437505000000000109e+03
6.099999999999999867e-02 5.030445000000000055e-01 1.471576499999999932e+01 6.651269999999999527e+01 1.438355000000000018e+03
6.199999999999999956e-02 5.036374999999999602e-01 1.608657499999999985e+01 6.922684999999999889e+01 1.439239999999999782e+03
6.300000000000000044e-02 5.042335000000000012e-01 1.744783999999999935e+01 7.196545000000000414e+01 1.440130000000000109e+03
6.400000000000000133e-02 5.048280000000000545e-01 1.878519999999999968e+01 7.470180000000000575e+01 1.441039999999999964e+03
6.500000000000000222e-02 5.054155000000000175e-01 2.008644999999999925e+01 7.741290000000000759e+01 1.441944999999999936e+03
6.600000000000000311e-02 5.059930000000000261e-01 2.134194999999999709e+01 8.008015000000000327e+01 1.442844999999999800e+03
6.700000000000000400e-02 5.065585000000000226e-01 2.254435000000000144e+01 8.268965000000000032e+01 1.443740000000000009e+03
6.800000000000000488e-02 5.071099999999999497e-01 2.368880000000000052e+01 8.523205000000000098e+01 1.444615000000000009e+03
6.900000000000000577e-02 5.076475000000000293e-01 2.477244999999999919e+01 8.770224999999999227e+01 1.445474999999999909e+03
7.000000000000000666e-02 5.081714999999999982e-01 2.579404999999999859e+01 9.009890000000000043e+01 1.446315000000000055e+03
7.100000000000000755e-02 5.086815000000000087e-01 2.675390000000000157e+01 9.242334999999999923e+01 1.447135000000000218e+03
7.200000000000000844e-02 5.091790000000000482e-01 2.765305000000000035e+01 9.468025000000000091e+01 1.447934999999999945e+03
7.300000000000000933e-02 5.096654999999999935e-01 2.849324999999999974e+01 9.687360000000001037e+01 1.448715000000000146e+03
7.399999999999999634e-02 5.101419999999999844e-01 2.927639999999999887e+01 9.900995000000000346e+01 1.449474999999999909e+03
7.499999999999999722e-02 5.106094999999999384e-01 3.000435000000000230e+01 1.010950500000000005e+02 1.450220000000000027e+03
7.599999999999999811e-02 5.110684999999999256e-01 3.067869999999999919e+01 1.031333999999999946e+02 1.450954999999999927e+03
7.699999999999999900e-02 5.115195000000000158e-01 3.130059999999999931e+01 1.051280000000000001e+02 1.451670000000000073e+03
7.799999999999999989e-02 5.119624999999999870e-01 3.187049999999999983e+01 1.070809999999999889e+02 1.452375000000000000e+03
7.900000000000000078e-02 5.123969999999999914e-01 3.238830000000000098e+01 1.089925000000000068e+02 1.453059999999999945e+03
8.000000000000000167e-02 5.128224999999999589e-01 3.285320000000000107e+01 1.108599999999999994e+02 1.453740000000000009e+03
8.100000000000000255e-02 5.132375000000000131e-01 3.326399999999999579e+01 1.126790000000000020e+02 1.454400000000000091e+03
8.200000000000000344e-02 5.136404999999999443e-01 3.361899999999999977e+01 1.144445000000000050e+02 1.455039999999999964e+03
8.300000000000000433e-02 5.140295000000000281e-01 3.391625000000000512e+01 1.161484999999999985e+02 1.455664999999999964e+03
8.400000000000000522e-02 5.144024999999999848e-01 3.415380000000000393e+01 1.177835000000000036e+02 1.456269999999999982e+03
8.500000000000000611e-02 5.147580000000000489e-01 3.432979999999999876e+01 1.193414999999999964e+02 1.456845000000000027e+03
8.600000000000000699e-02 5.150949999999999696e-01 3.444254999999999711e+01 1.208139999999999930e+02 1.457394999999999982e+03
8.700000000000000788e-02 5.154109999999999525e-01 3.449080000000000013e+01 1.221930000000000121e+02 1.457909999999999854e+03
8.800000000000000877e-02 5.157039999999999402e-01 3.447390000000000043e+01 1.234710000000000036e+02 1.458400000000000091e+03
8.899999999999999578e-02 5.159730000000000150e-01 3.439164999999999850e+01 1.246419999999999959e+02 1.458849999999999909e+03
8.999999999999999667e-02 5.162174999999999958e-01 3.424450000000000216e+01 1.257019999999999982e+02 1.459259999999999991e+03
9.099999999999999756e-02 5.164370000000000349e-01 3.403365000000000151e+01 1.266469999999999914e+02 1.459639999999999873e+03
9.199999999999999845e-02 5.166314999999999102e-01 3.376069999999999993e+01 1.274759999999999991e+02 1.459974999999999909e+03
9.299999999999999933e-02 5.167994999999999672e-01 3.342810000000000059e+01 1.281875000000000000e+02 1.460264999999999873e+03
9.400000000000000022e-02 5.169425000000000825e-01 3.303894999999999982e+01 1.287835000000000036e+02 1.460525000000000091e+03
9.500000000000000111e-02 5.170609999999999928e-01 3.259675000000000011e+01 1.292665000000000077e+02 1.460740000000000009e+03
9.600000000000000200e-02 5.171565000000000190e-01 3.210564999999999714e+01 1.296410000000000196e+02 1.460914999999999964e+03
9.700000000000000289e-02 5.172289999999999388e-01 3.157030000000000314e+01 1.299130000000000109e+02 1.461059999999999945e+03
9.800000000000000377e-02 5.172799999999999621e-01 3.099595000000000056e+01 1.300879999999999939e+02 1.461164999999999964e+03
9.900000000000000466e-02 5.173125000000000639e-01 3.038799999999999812e+01 1.301744999999999948e+02 1.461235000000000127e+03
1.000000000000000056e-01 5.173274999999999402e-01 2.975225000000000009e+01 1.301810000000000116e+02 1.461280000000000200e+03
1.010000000000000064e-01 5.173269999999999813e-01 2.909479999999999933e+01 1.301154999999999973e+02 1.461295000000000073e+03
1.020000000000000073e-01 5.173130000000000228e-01 2.842170000000000130e+01 1.299894999999999925e+02 1.461284999999999854e+03
1.030000000000000082e-01 5.172875000000000112e-01 2.773879999999999768e+01 1.298114999999999952e+02 1.461255000000000109e+03
1.040000000000000091e-01 5.172535000000000327e-01 2.705215000000000103e+01 1.295919999999999845e+02 1.461204999999999927e+03
1.050000000000000100e-01 5.172120000000000051e-01 2.636700000000000088e+01 1.293394999999999868e+02 1.461144999999999982e+03
1.059999999999999970e-01 5.171649999999999858e-01 2.568834999999999980e+01 1.290634999999999764e+02 1.461069999999999936e+03
1.069999999999999979e-01 5.171144999999999214e-01 2.502040000000000219e+01 1.287724999999999795e+02 1.460985000000000127e+03
1.079999999999999988e-01 5.170615000000000627e-01 2.436655000000000015e+01 1.284730000000000132e+02 1.460889999999999873e+03
1.089999999999999997e-01 5.170074999999999532e-01 2.372959999999999781e+01 1.281715000000000089e+02 1.460795000000000073e+03
1.100000000000000006e-01 5.169529999999999959e-01 2.311120000000000019e+01 1.278710000000000093e+02 1.460700000000000045e+03
1.110000000000000014e-01 5.168984999999999275e-01 2.251205000000000211e+01 1.275755000000000052e+02 1.460599999999999909e+03
1.120000000000000023e-01 5.168439999999999701e-01 2.193215000000000003e+01 1.272860000000000014e+02 1.460500000000000000e+03
1.130000000000000032e-01 5.167899999999999716e-01 2.137064999999999770e+01 1.270035000000000025e+02 1.460404999999999973e+03
1.140000000000000041e-01 5.167355000000000143e-01 2.082580000000000098e+01 1.267259999999999991e+02 1.460304999999999836e+03
1.150000000000000050e-01 5.166804999999999870e-01 2.029545000000000243e+01 1.264519999999999982e+02 1.460204999999999927e+03
1.160000000000000059e-01 5.166245000000000420e-01 1.977684999999999960e+01 1.261784999999999997e+02 1.460110000000000127e+03
1.170000000000000068e-01 5.165659999999999696e-01 1.926699999999999946e+01 1.259014999999999986e+02 1.460005000000000109e+03
1.180000000000000077e-01 5.165045000000000330e-01 1.876270000000000238e+01 1.256174999999999926e+02 1.459905000000000200e+03
1.190000000000000085e-01 5.164385000000000225e-01 1.826069999999999993e+01 1.253220000000000027e+02 1.459795000000000073e+03
1.200000000000000094e-01 5.163689999999999669e-01 1.775795000000000101e+01 1.250120000000000005e+02 1.459690000000000055e+03
1.209999999999999964e-01 5.162934999999999608e-01 1.725159999999999982e+01 1.246825000000000045e+02 1.459575000000000045e+03
1.219999999999999973e-01 5.162130000000000329e-01 1.673900000000000077e+01 1.243319999999999936e+02 1.459454999999999927e+03
1.229999999999999982e-01 5.161255000000000148e-01 1.621819999999999951e+01 1.239569999999999936e+02 1.459324999999999818e+03
1.239999999999999991e-01 5.160325000000000051e-01 1.568750000000000000e+01 1.235564999999999998e+02 1.459190000000000055e+03
1.250000000000000000e-01 5.159325000000000161e-01 1.514600000000000080e+01 1.231295000000000073e+02 1.459045000000000073e+03
1.260000000000000009e-01 5.158270000000000355e-01 1.459309999999999974e+01 1.226769999999999925e+02 1.458889999999999873e+03
1.270000000000000018e-01 5.157159999999999522e-01 1.402907000000000082e+01 1.222000000000000028e+02 1.458730000000000018e+03
1.280000000000000027e-01 5.156000000000000583e-01 1.345466500000000032e+01 1.217009999999999934e+02 1.458565000000000055e+03
1.290000000000000036e-01 5.154800000000000493e-01 1.287121999999999922e+01 1.211825000000000045e+02 1.458384999999999991e+03
1.300000000000000044e-01 5.153575000000000239e-01 1.228065999999999924e+01 1.206494999999999891e+02 1.458210000000000036e+03
1.310000000000000053e-01 5.152324999999999822e-01 1.168536500000000089e+01 1.201059999999999945e+02 1.458025000000000091e+03
1.320000000000000062e-01 5.151075000000000514e-01 1.108809499999999915e+01 1.195575000000000045e+02 1.457839999999999918e+03
1.330000000000000071e-01 5.149825000000000097e-01 1.049202000000000012e+01 1.190099999999999909e+02 1.457654999999999973e+03
1.340000000000000080e-01 5.148605000000000542e-01 9.900615000000000165e+00 1.184695000000000107e+02 1.457465000000000146e+03
1.350000000000000089e-01 5.147420000000000329e-01 9.317280000000000229e+00 1.179410000000000025e+02 1.457284999999999854e+03
1.360000000000000098e-01 5.146279999999999744e-01 8.745725000000000193e+00 1.174325000000000045e+02 1.457110000000000127e+03
1.370000000000000107e-01 5.145204999999999362e-01 8.189389999999999503e+00 1.169484999999999957e+02 1.456945000000000164e+03
1.380000000000000115e-01 5.144205000000000583e-01 7.651734999999999509e+00 1.164945000000000022e+02 1.456779999999999973e+03
1.390000000000000124e-01 5.143290000000000362e-01 7.135819999999998942e+00 1.160755000000000052e+02 1.456630000000000109e+03
1.400000000000000133e-01 5.142459999999999809e-01 6.644420000000000215e+00 1.156955000000000098e+02 1.456490000000000009e+03
1.410000000000000142e-01 5.141735000000000610e-01 6.179874999999999119e+00 1.153580000000000041e+02 1.456365000000000009e+03
1.420000000000000151e-01 5.141109999999999847e-01 5.744035000000000224e+00 1.150660000000000025e+02 1.456255000000000109e+03
1.430000000000000160e-01 5.140584999999999738e-01 5.338205000000000311e+00 1.148195000000000050e+02 1.456154999999999973e+03
1.440000000000000169e-01 5.140169999999999462e-01 4.963165000000000049e+00 1.146195000000000022e+02 1.456074999999999818e+03
1.450000000000000178e-01 5.139860000000000539e-01 4.619105000000000238e+00 1.144660000000000082e+02 1.456005000000000109e+03
1.459999999999999909e-01 5.139645000000000463e-01 4.305690000000000239e+00 1.143569999999999993e+02 1.455954999999999927e+03
1.469999999999999918e-01 5.139525000000000343e-01 4.022075000000000067e+00 1.142895000000000039e+02 1.455914999999999964e+03
1.479999999999999927e-01 5.139485000000000303e-01 3.766969999999999708e+00 1.142605000000000075e+02 1.455889999999999873e+03
1.489999999999999936e-01 5.139515000000000056e-01 3.538664999999999949e+00 1.142665000000000077e+02 1.455880000000000109e+03
1.499999999999999944e-01 5.139620000000000299e-01 3.335150000000000059e+00 1.143029999999999973e+02 1.455875000000000000e+03
1.509999999999999953e-01 5.139770000000000172e-01 3.154169999999999696e+00 1.143650000000000091e+02 1.455884999999999991e+03
1.519999999999999962e-01 5.139964999999999673e-01 2.993294999999999817e+00 1.144474999999999909e+02 1.455900000000000091e+03
1.529999999999999971e-01 5.140190000000000037e-01 2.850014999999999965e+00 1.145455000000000041e+02 1.455924999999999955e+03
1.539999999999999980e-01 5.140434999999999865e-01 2.721789999999999932e+00 1.146539999999999964e+02 1.455949999999999818e+03
1.549999999999999989e-01 5.140689999999999982e-01 2.606125000000000025e+00 1.147684999999999889e+02 1.455980000000000018e+03
1.559999999999999998e-01 5.140945000000000098e-01 2.500625000000000320e+00 1.148845000000000027e+02 1.456009999999999991e+03
1.570000000000000007e-01 5.141195000000000626e-01 2.403014999999999901e+00 1.149980000000000047e+02 1.456045000000000073e+03
1.580000000000000016e-01 5.141430000000000167e-01 2.311225000000000307e+00 1.151055000000000064e+02 1.456074999999999818e+03
1.590000000000000024e-01 5.141640000000000654e-01 2.223360000000000003e+00 1.152030000000000030e+02 1.456105000000000018e+03
