# t [s], A [cm^2], U [cm/s], P [cPa], c [cm/s]
1.000000000000000021e-03 1.266440000000000066e-01 4.527875000000000094e-01 8.730185000000000173e+01 1.867175000000000182e+03
2.000000000000000042e-03 1.266140000000000043e-01 2.025285499999999850e+00 8.401269999999999527e+01 1.866815000000000055e+03
3.000000000000000062e-03 1.265259999999999996e-01 3.874290500000000304e+00 7.984929999999999950e+01 1.865789999999999964e+03
4.000000000000000083e-03 1.264025000000000010e-01 5.905051499999999898e+00 7.560195000000000221e+01 1.864375000000000000e+03
5.000000000000000104e-03 1.262674999999999770e-01 8.052664999999999296e+00 7.198019999999999641e+01 1.862840000000000146e+03
6.000000000000000125e-03 1.261349999999999971e-01 1.015923000000000087e+01 6.911450000000000671e+01 1.861345000000000027e+03
7.000000000000000146e-03 1.260089999999999821e-01 1.205414999999999992e+01 6.672185000000000343e+01 1.859949999999999818e+03
8.000000000000000167e-03 1.258914999999999895e-01 1.367947999999999986e+01 6.457939999999999259e+01 1.858664999999999964e+03
9.000000000000001055e-03 1.257849999999999802e-01 1.507045000000000101e+01 6.270685000000000286e+01 1.857525000000000091e+03
1.000000000000000194e-02 1.256924999999999848e-01 1.625574999999999903e+01 6.115174999999999272e+01 1.856534999999999854e+03
1.099999999999999936e-02 1.256140000000000034e-01 1.724145000000000039e+01 5.987375000000000114e+01 1.855700000000000045e+03
1.200000000000000025e-02 1.255470000000000197e-01 1.803580000000000183e+01 5.881060000000000088e+01 1.855000000000000000e+03
1.300000000000000114e-02 1.254910000000000192e-01 1.864914999999999878e+01 5.790680000000000405e+01 1.854420000000000073e+03
1.400000000000000203e-02 1.254425000000000123e-01 1.909315000000000140e+01 5.710394999999999754e+01 1.853929999999999836e+03
1.499999999999999944e-02 1.254019999999999857e-01 1.940404999999999802e+01 5.638924999999999699e+01 1.853519999999999982e+03
1.600000000000000033e-02 1.253680000000000072e-01 1.966414999999999935e+01 5.587279999999999802e+01 1.853190000000000055e+03
1.700000000000000122e-02 1.253464999999999996e-01 1.998570000000000135e+01 5.578605000000000302e+01 1.852974999999999909e+03
1.800000000000000211e-02 1.253410000000000080e-01 2.046289999999999765e+01 5.636889999999999645e+01 1.852934999999999945e+03
1.900000000000000300e-02 1.253564999999999818e-01 2.112349999999999994e+01 5.771875000000000000e+01 1.853110000000000127e+03
2.000000000000000042e-02 1.253925000000000178e-01 2.191140000000000043e+01 5.970145000000000124e+01 1.853494999999999891e+03
2.100000000000000130e-02 1.254445000000000143e-01 2.270575000000000188e+01 6.197084999999999866e+01 1.854055000000000064e+03
2.200000000000000219e-02 1.255034999999999901e-01 2.336370000000000147e+01 6.407900000000000773e+01 1.854684999999999945e+03
2.299999999999999961e-02 1.255580000000000029e-01 2.376740000000000208e+01 6.561875000000000568e+01 1.855279999999999973e+03
2.400000000000000050e-02 1.256005000000000038e-01 2.385644999999999882e+01 6.634165000000000134e+01 1.855744999999999891e+03
2.500000000000000139e-02 1.256240000000000134e-01 2.363875000000000171e+01 6.621274999999999977e+01 1.856025000000000091e+03
2.600000000000000228e-02 1.256289999999999907e-01 2.317804999999999893e+01 6.539234999999999332e+01 1.856099999999999909e+03
2.700000000000000316e-02 1.256180000000000074e-01 2.256709999999999994e+01 6.415989999999999327e+01 1.856005000000000109e+03
2.800000000000000058e-02 1.255959999999999854e-01 2.189654999999999774e+01 6.281429999999999580e+01 1.855784999999999854e+03
2.900000000000000147e-02 1.255700000000000149e-01 2.123140000000000072e+01 6.158695000000000164e+01 1.855514999999999873e+03
3.000000000000000236e-02 1.255435000000000023e-01 2.060004999999999953e+01 6.059234999999999616e+01 1.855240000000000009e+03
3.099999999999999978e-02 1.255195000000000061e-01 1.999759999999999849e+01 5.982524999999999693e+01 1.854985000000000127e+03
3.200000000000000067e-02 1.254979999999999984e-01 1.939860000000000184e+01 5.919480000000000075e+01 1.854755000000000109e+03
3.300000000000000155e-02 1.254770000000000052e-01 1.877449999999999974e+01 5.857904999999999518e+01 1.854534999999999854e+03
3.400000000000000244e-02 1.254554999999999976e-01 1.810880000000000223e+01 5.787915000000000276e+01 1.854315000000000055e+03
3.500000000000000333e-02 1.254315000000000013e-01 1.740755000000000052e+01 5.705980000000000274e+01 1.854059999999999945e+03
3.600000000000000422e-02 1.254055000000000031e-01 1.670155000000000101e+01 5.616509999999999536e+01 1.853784999999999854e+03
3.700000000000000511e-02 1.253785000000000038e-01 1.604090000000000060e+01 5.530904999999999916e+01 1.853505000000000109e+03
3.799999999999999906e-02 1.253535000000000066e-01 1.548335000000000150e+01 5.464449999999999363e+01 1.853240000000000009e+03
3.899999999999999994e-02 1.253345000000000153e-01 1.508034999999999926e+01 5.432079999999999842e+01 1.853029999999999973e+03
4.000000000000000083e-02 1.253250000000000197e-01 1.486394999999999911e+01 5.444190000000000396e+01 1.852920000000000073e+03
4.100000000000000172e-02 1.253269999999999940e-01 1.483810000000000073e+01 5.503610000000000468e+01 1.852929999999999836e+03
4.200000000000000261e-02 1.253404999999999936e-01 1.497660000000000124e+01 5.604404999999999859e+01 1.853069999999999936e+03
4.300000000000000350e-02 1.253650000000000042e-01 1.522650000000000148e+01 5.732679999999999865e+01 1.853319999999999936e+03
4.400000000000000439e-02 1.253970000000000085e-01 1.551679999999999993e+01 5.868949999999999534e+01 1.853650000000000091e+03
4.499999999999999833e-02 1.254315000000000013e-01 1.576954999999999885e+01 5.991459999999999297e+01 1.854005000000000109e+03
4.599999999999999922e-02 1.254629999999999912e-01 1.591055000000000064e+01 6.079635000000000389e+01 1.854340000000000146e+03
4.700000000000000011e-02 1.254865000000000008e-01 1.587860000000000049e+01 6.116920000000000357e+01 1.854595000000000027e+03
4.800000000000000100e-02 1.254979999999999984e-01 1.563140000000000107e+01 6.092680000000000007e+01 1.854710000000000036e+03
4.900000000000000189e-02 1.254929999999999934e-01 1.514805000000000135e+01 6.002875000000000227e+01 1.854664999999999964e+03
5.000000000000000278e-02 1.254704999999999848e-01 1.442820000000000036e+01 5.849719999999999942e+01 1.854434999999999945e+03
5.100000000000000366e-02 1.254309999999999869e-01 1.348925000000000018e+01 5.640534999999999854e+01 1.854019999999999982e+03
5.200000000000000455e-02 1.253744999999999998e-01 1.236209000000000024e+01 5.386159999999999570e+01 1.853430000000000064e+03
5.300000000000000544e-02 1.253044999999999853e-01 1.108674500000000052e+01 5.099360000000000070e+01 1.852690000000000055e+03
5.399999999999999939e-02 1.252230000000000010e-01 9.708605000000000373e+00 4.793480000000000274e+01 1.851835000000000036e+03
5.500000000000000028e-02 1.251345000000000096e-01 8.275595000000000923e+00 4.481479999999999819e+01 1.850894999999999982e+03
5.600000000000000117e-02 1.250414999999999999e-01 6.836159999999999570e+00 4.175395000000000323e+01 1.849914999999999964e+03
5.700000000000000205e-02 1.249480000000000035e-01 5.438349999999999795e+00 3.886189999999999856e+01 1.848920000000000073e+03
5.800000000000000294e-02 1.248569999999999958e-01 4.129210999999999743e+00 3.623794999999999789e+01 1.847954999999999927e+03
5.900000000000000383e-02 1.247715000000000074e-01 2.954324999999999868e+00 3.397299999999999898e+01 1.847049999999999955e+03
6.000000000000000472e-02 1.246960000000000013e-01 1.957240000000000091e+00 3.215015000000000356e+01 1.846240000000000009e+03
6.099999999999999867e-02 1.246314999999999923e-01 1.178520000000000234e+00 3.084530000000000172e+01 1.845549999999999955e+03
6.199999999999999956e-02 1.245814999999999978e-01 6.545214999999999783e-01 3.012515000000000143e+01 1.845015000000000100e+03
6.300000000000000044e-02 1.245485000000000064e-01 4.158634999999999970e-01 3.004510000000000147e+01 1.844650000000000091e+03
6.400000000000000133e-02 1.245340000000000058e-01 4.858310000000000128e-01 3.064545000000000030e+01 1.844480000000000018e+03
6.500000000000000222e-02 1.245404999999999984e-01 8.789720000000000866e-01 3.194819999999999993e+01 1.844529999999999973e+03
6.600000000000000311e-02 1.245674999999999977e-01 1.600021499999999985e+00 3.395459999999999923e+01 1.844795000000000073e+03
6.700000000000000400e-02 1.246160000000000045e-01 2.643416499999999836e+00 3.664314999999999856e+01 1.845295000000000073e+03
6.800000000000000488e-02 1.246865000000000057e-01 3.993439999999999657e+00 3.997039999999999793e+01 1.846025000000000091e+03
6.900000000000000577e-02 1.247780000000000000e-01 5.624995000000000189e+00 4.387255000000000393e+01 1.846970000000000027e+03
7.000000000000000666e-02 1.248874999999999985e-01 7.504970000000000141e+00 4.826910000000000167e+01 1.848119999999999891e+03
7.100000000000000755e-02 1.250145000000000006e-01 9.593965000000000742e+00 5.306749999999999545e+01 1.849449999999999818e+03
7.200000000000000844e-02 1.251555000000000029e-01 1.184836999999999918e+01 5.816799999999999926e+01 1.850940000000000055e+03
7.300000000000000933e-02 1.253084999999999893e-01 1.422248500000000071e+01 6.346949999999999648e+01 1.852554999999999836e+03
7.399999999999999634e-02 1.254704999999999848e-01 1.667044999999999888e+01 6.887409999999999854e+01 1.854275000000000091e+03
7.499999999999999722e-02 1.256375000000000131e-01 1.914825000000000088e+01 7.429169999999999163e+01 1.856059999999999945e+03
7.599999999999999811e-02 1.258080000000000032e-01 2.161540000000000106e+01 7.964345000000000141e+01 1.857884999999999991e+03
7.699999999999999900e-02 1.259794999999999943e-01 2.403614999999999924e+01 8.486450000000000671e+01 1.859720000000000027e+03
7.799999999999999989e-02 1.261490000000000111e-01 2.638080000000000069e+01 8.990569999999999595e+01 1.861550000000000182e+03
7.900000000000000078e-02 1.263154999999999972e-01 2.862630000000000052e+01 9.473439999999999372e+01 1.863345000000000027e+03
8.000000000000000167e-02 1.264775000000000205e-01 3.075665000000000049e+01 9.933514999999999873e+01 1.865099999999999909e+03
8.100000000000000255e-02 1.266339999999999966e-01 3.276295000000000357e+01 1.037075000000000102e+02 1.866799999999999955e+03
8.200000000000000344e-02 1.267840000000000078e-01 3.464315000000000566e+01 1.078650000000000091e+02 1.868444999999999936e+03
8.300000000000000433e-02 1.269295000000000007e-01 3.640099999999999625e+01 1.118335000000000008e+02 1.870029999999999973e+03
8.400000000000000522e-02 1.270685000000000009e-01 3.804524999999999579e+01 1.156469999999999914e+02 1.871559999999999945e+03
8.500000000000000611e-02 1.272034999999999971e-01 3.958859999999999957e+01 1.193445000000000107e+02 1.873039999999999964e+03
8.600000000000000699e-02 1.273350000000000037e-01 4.104585000000000150e+01 1.229679999999999893e+02 1.874484999999999900e+03
8.700000000000000788e-02 1.274639999999999940e-01 4.243280000000000030e+01 1.265554999999999950e+02 1.875905000000000200e+03
8.800000000000000877e-02 1.275904999999999956e-01 4.376470000000000482e+01 1.301424999999999841e+02 1.877305000000000064e+03
8.899999999999999578e-02 1.277169999999999972e-01 4.505504999999999427e+01 1.337554999999999836e+02 1.878700000000000045e+03
8.999999999999999667e-02 1.278434999999999988e-01 4.631459999999999866e+01 1.374119999999999777e+02 1.880099999999999909e+03
9.099999999999999756e-02 1.279710000000000014e-01 4.755049999999999955e+01 1.411189999999999998e+02 1.881509999999999991e+03
9.199999999999999845e-02 1.280995000000000050e-01 4.876590000000000202e+01 1.448729999999999905e+02 1.882924999999999955e+03
9.299999999999999933e-02 1.282285000000000230e-01 4.995985000000000298e+01 1.486594999999999800e+02 1.884349999999999909e+03
9.400000000000000022e-02 1.283579999999999999e-01 5.112754999999999939e+01 1.524540000000000077e+02 1.885784999999999854e+03
9.500000000000000111e-02 1.284875000000000045e-01 5.226035000000000252e+01 1.562244999999999777e+02 1.887224999999999909e+03
9.600000000000000200e-02 1.286164999999999947e-01 5.334685000000000343e+01 1.599334999999999809e+02 1.888654999999999973e+03
9.700000000000000289e-02 1.287429999999999963e-01 5.437340000000000373e+01 1.635395000000000039e+02 1.890059999999999945e+03
9.800000000000000377e-02 1.288670000000000093e-01 5.532495000000000118e+01 1.669989999999999952e+02 1.891445000000000164e+03
9.900000000000000466e-02 1.289870000000000183e-01 5.618610000000000326e+01 1.702710000000000150e+02 1.892775000000000091e+03
1.000000000000000056e-01 1.291009999999999935e-01 5.694174999999999898e+01 1.733160000000000025e+02 1.894054999999999836e+03
1.010000000000000064e-01 1.292085000000000039e-01 5.757800000000000296e+01 1.760980000000000132e+02 1.895255000000000109e+03
1.020000000000000073e-01 1.293084999999999929e-01 5.808280000000000598e+01 1.785894999999999868e+02 1.896375000000000000e+03
1.030000000000000082e-01 1.293995000000000006e-01 5.844669999999999987e+01 1.807674999999999841e+02 1.897400000000000091e+03
1.040000000000000091e-01 1.294810000000000128e-01 5.866304999999999836e+01 1.826189999999999998e+02 1.898315000000000055e+03
1.050000000000000100e-01 1.295525000000000149e-01 5.872825000000000273e+01 1.841355000000000075e+02 1.899125000000000000e+03
1.059999999999999970e-01 1.296134999999999926e-01 5.864235000000000042e+01 1.853204999999999814e+02 1.899824999999999818e+03
1.069999999999999979e-01 1.296644999999999881e-01 5.840845000000000198e+01 1.861804999999999950e+02 1.900400000000000091e+03
1.079999999999999988e-01 1.297049999999999870e-01 5.803314999999999912e+01 1.867330000000000041e+02 1.900865000000000009e+03
1.089999999999999997e-01 1.297355000000000036e-01 5.752590000000000003e+01 1.870000000000000000e+02 1.901220000000000027e+03
1.100000000000000006e-01 1.297564999999999968e-01 5.689889999999999759e+01 1.870084999999999980e+02 1.901465000000000146e+03
1.110000000000000014e-01 1.297685000000000088e-01 5.616639999999999588e+01 1.867889999999999873e+02 1.901615000000000009e+03
1.120000000000000023e-01 1.297725000000000128e-01 5.534444999999999482e+01 1.863770000000000095e+02 1.901674999999999955e+03
1.130000000000000032e-01 1.297699999999999965e-01 5.445009999999999906e+01 1.858079999999999927e+02 1.901655000000000200e+03
1.140000000000000041e-01 1.297615000000000018e-01 5.350090000000000146e+01 1.851184999999999832e+02 1.901570000000000164e+03
1.150000000000000050e-01 1.297480000000000022e-01 5.251440000000000197e+01 1.843430000000000177e+02 1.901420000000000073e+03
1.160000000000000059e-01 1.297304999999999986e-01 5.150735000000000241e+01 1.835149999999999864e+02 1.901235000000000127e+03
1.170000000000000068e-01 1.297105000000000063e-01 5.049530000000000030e+01 1.826639999999999873e+02 1.901009999999999991e+03
1.180000000000000077e-01 1.296879999999999977e-01 4.949214999999999520e+01 1.818170000000000073e+02 1.900769999999999982e+03
1.190000000000000085e-01 1.296650000000000025e-01 4.850974999999999682e+01 1.809929999999999950e+02 1.900514999999999873e+03
1.200000000000000094e-01 1.296410000000000062e-01 4.755754999999999910e+01 1.802094999999999914e+02 1.900250000000000000e+03
1.209999999999999964e-01 1.296184999999999976e-01 4.664249999999999829e+01 1.794764999999999873e+02 1.899994999999999891e+03
1.219999999999999973e-01 1.295955000000000024e-01 4.576890000000000214e+01 1.787980000000000018e+02 1.899744999999999891e+03
1.229999999999999982e-01 1.295745000000000091e-01 4.493864999999999554e+01 1.781740000000000066e+02 1.899500000000000000e+03
1.239999999999999991e-01 1.295540000000000025e-01 4.415095000000000169e+01 1.776005000000000109e+02 1.899264999999999873e+03
1.250000000000000000e-01 1.295344999999999969e-01 4.340295000000000414e+01 1.770659999999999741e+02 1.899049999999999955e+03
1.260000000000000009e-01 1.295165000000000066e-01 4.268980000000000530e+01 1.765579999999999927e+02 1.898839999999999918e+03
1.270000000000000018e-01 1.294984999999999886e-01 4.200509999999999877e+01 1.760614999999999952e+02 1.898639999999999873e+03
1.280000000000000027e-01 1.294810000000000128e-01 4.134125000000000227e+01 1.755579999999999927e+02 1.898440000000000055e+03
1.290000000000000036e-01 1.294635000000000091e-01 4.068990000000000151e+01 1.750300000000000011e+02 1.898235000000000127e+03
1.300000000000000044e-01 1.294450000000000045e-01 4.004245000000000232e+01 1.744585000000000150e+02 1.898025000000000091e+03
1.310000000000000053e-01 1.294254999999999989e-01 3.939050000000000296e+01 1.738265000000000100e+02 1.897799999999999955e+03
1.320000000000000062e-01 1.294035000000000046e-01 3.872605000000000075e+01 1.731189999999999998e+02 1.897559999999999945e+03
1.330000000000000071e-01 1.293805000000000094e-01 3.804214999999999947e+01 1.723230000000000075e+02 1.897299999999999955e+03
1.340000000000000080e-01 1.293544999999999834e-01 3.733299999999999841e+01 1.714290000000000020e+02 1.897009999999999991e+03
1.350000000000000089e-01 1.293254999999999821e-01 3.659430000000000405e+01 1.704309999999999832e+02 1.896684999999999945e+03
1.360000000000000098e-01 1.292939999999999923e-01 3.582365000000000066e+01 1.693280000000000030e+02 1.896335000000000036e+03
1.370000000000000107e-01 1.292584999999999984e-01 3.502035000000000053e+01 1.681214999999999975e+02 1.895945000000000164e+03
1.380000000000000115e-01 1.292204999999999881e-01 3.418545000000000300e+01 1.668180000000000121e+02 1.895519999999999982e+03
1.390000000000000124e-01 1.291789999999999883e-01 3.332215000000000060e+01 1.654279999999999973e+02 1.895059999999999945e+03
1.400000000000000133e-01 1.291349999999999998e-01 3.243505000000000393e+01 1.639650000000000034e+02 1.894574999999999818e+03
1.410000000000000142e-01 1.290890000000000093e-01 3.153045000000000186e+01 1.624459999999999980e+02 1.894059999999999945e+03
1.420000000000000151e-01 1.290405000000000024e-01 3.061599999999999966e+01 1.608899999999999864e+02 1.893525000000000091e+03
1.430000000000000160e-01 1.289905000000000079e-01 2.970000000000000284e+01 1.593179999999999836e+02 1.892974999999999909e+03
1.440000000000000169e-01 1.289399999999999991e-01 2.879169999999999874e+01 1.577510000000000048e+02 1.892410000000000082e+03
1.450000000000000178e-01 1.288890000000000036e-01 2.790034999999999954e+01 1.562105000000000246e+02 1.891845000000000027e+03
1.459999999999999909e-01 1.288384999999999947e-01 2.703509999999999991e+01 1.547175000000000011e+02 1.891284999999999854e+03
1.469999999999999918e-01 1.287889999999999868e-01 2.620475000000000065e+01 1.532905000000000086e+02 1.890735000000000127e+03
1.479999999999999927e-01 1.287415000000000087e-01 2.541714999999999947e+01 1.519460000000000264e+02 1.890204999999999927e+03
1.489999999999999936e-01 1.286955000000000182e-01 2.467905000000000015e+01 1.506980000000000075e+02 1.889695000000000164e+03
1.499999999999999944e-01 1.286525000000000030e-01 2.399584999999999724e+01 1.495564999999999998e+02 1.889210000000000036e+03
1.509999999999999953e-01 1.286125000000000185e-01 2.337169999999999703e+01 1.485294999999999845e+02 1.888765000000000100e+03
1.519999999999999962e-01 1.285755000000000092e-01 2.280874999999999986e+01 1.476194999999999879e+02 1.888349999999999909e+03
1.529999999999999971e-01 1.285419999999999896e-01 2.230794999999999817e+01 1.468265000000000100e+02 1.887980000000000018e+03
1.539999999999999980e-01 1.285120000000000151e-01 2.186849999999999739e+01 1.461469999999999914e+02 1.887644999999999982e+03
1.549999999999999989e-01 1.284855000000000025e-01 2.148829999999999885e+01 1.455749999999999886e+02 1.887345000000000027e+03
1.559999999999999998e-01 1.284625000000000072e-01 2.116389999999999816e+01 1.451019999999999754e+02 1.887085000000000036e+03
1.570000000000000007e-01 1.284425000000000150e-01 2.089085000000000036e+01 1.447180000000000177e+02 1.886860000000000127e+03
1.580000000000000016e-01 1.284254999999999980e-01 2.066389999999999816e+01 1.444089999999999918e+02 1.886664999999999964e+03
1.590000000000000024e-01 1.284109999999999974e-01 2.047704999999999842e+01 1.441645000000000039e+02 1.886505000000000109e+03
