# t [s], A [cm^2], U [cm/s], P [cPa], c [cm/s]
1.000000000000000021e-03 1.683139999999999914e-01 3.260064499999999477e-01 1.019608000000000061e+02 2.284835000000000036e+03
2.000000000000000042e-03 1.682595000000000063e-01 1.929494000000000042e+00 9.811789999999999168e+01 2.284279999999999745e+03
3.000000000000000062e-03 1.681269999999999987e-01 3.942386499999999572e+00 9.266129999999999711e+01 2.282989999999999782e+03
4.000000000000000083e-03 1.679545000000000066e-01 6.239462999999999759e+00 8.686590000000001055e+01 2.281329999999999927e+03
5.000000000000000104e-03 1.677790000000000115e-01 8.704200000000000159e+00 8.186260000000000048e+01 2.279649999999999636e+03
6.000000000000000125e-03 1.676154999999999728e-01 1.105637499999999918e+01 7.780689999999999884e+01 2.278114999999999782e+03
7.000000000000000146e-03 1.674640000000000017e-01 1.303871000000000180e+01 7.422890000000001010e+01 2.276724999999999909e+03
8.000000000000000167e-03 1.673290000000000055e-01 1.464329999999999998e+01 7.102875000000000227e+01 2.275505000000000109e+03
9.000000000000001055e-03 1.672155000000000169e-01 1.593914999999999971e+01 6.838819999999999766e+01 2.274500000000000000e+03
1.000000000000000194e-02 1.671249999999999958e-01 1.695640000000000214e+01 6.633174999999999955e+01 2.273704999999999927e+03
1.099999999999999936e-02 1.670544999999999947e-01 1.772425000000000139e+01 6.479900000000000659e+01 2.273090000000000146e+03
1.200000000000000025e-02 1.670010000000000105e-01 1.825239999999999796e+01 6.366114999999999924e+01 2.272635000000000218e+03
1.300000000000000114e-02 1.669589999999999963e-01 1.854010000000000247e+01 6.270499999999999829e+01 2.272284999999999854e+03
1.400000000000000203e-02 1.669240000000000168e-01 1.867060000000000031e+01 6.189334999999999809e+01 2.272010000000000218e+03
1.499999999999999944e-02 1.669049999999999978e-01 1.885014999999999930e+01 6.160559999999999548e+01 2.271855000000000018e+03
1.600000000000000033e-02 1.669134999999999924e-01 1.930454999999999899e+01 6.245579999999999643e+01 2.271940000000000055e+03
1.700000000000000122e-02 1.669594999999999829e-01 2.012384999999999735e+01 6.480140000000000100e+01 2.272344999999999800e+03
1.800000000000000211e-02 1.670395000000000074e-01 2.118909999999999982e+01 6.837794999999999845e+01 2.273054999999999836e+03
1.900000000000000300e-02 1.671389999999999820e-01 2.222739999999999938e+01 7.233195000000000618e+01 2.273944999999999709e+03
2.000000000000000042e-02 1.672335000000000071e-01 2.294539999999999935e+01 7.559459999999999980e+01 2.274805000000000291e+03
2.100000000000000130e-02 1.673005000000000186e-01 2.315925000000000011e+01 7.734964999999999691e+01 2.275444999999999709e+03
2.200000000000000219e-02 1.673295000000000199e-01 2.286059999999999803e+01 7.735020000000000095e+01 2.275744999999999891e+03
2.299999999999999961e-02 1.673215000000000119e-01 2.219640000000000057e+01 7.595289999999999964e+01 2.275710000000000036e+03
2.400000000000000050e-02 1.672894999999999799e-01 2.138504999999999967e+01 7.388769999999999527e+01 2.275439999999999600e+03
2.500000000000000139e-02 1.672480000000000078e-01 2.061495000000000033e+01 7.190274999999999750e+01 2.275074999999999818e+03
2.600000000000000228e-02 1.672109999999999985e-01 1.997439999999999927e+01 7.046029999999998950e+01 2.274735000000000127e+03
2.700000000000000316e-02 1.671834999999999849e-01 1.943599999999999994e+01 6.960540000000000305e+01 2.274480000000000018e+03
2.800000000000000058e-02 1.671619999999999773e-01 1.889229999999999876e+01 6.902909999999999968e+01 2.274279999999999745e+03
2.900000000000000147e-02 1.671384999999999954e-01 1.821959999999999980e+01 6.826789999999999736e+01 2.274069999999999709e+03
3.000000000000000236e-02 1.671054999999999902e-01 1.734384999999999977e+01 6.694544999999999391e+01 2.273779999999999745e+03
3.099999999999999978e-02 1.670564999999999967e-01 1.628389999999999915e+01 6.496330000000000382e+01 2.273350000000000364e+03
3.200000000000000067e-02 1.669960000000000055e-01 1.515704999999999991e+01 6.257290000000000418e+01 2.272814999999999600e+03
3.300000000000000155e-02 1.669329999999999981e-01 1.414485000000000170e+01 6.030264999999999986e+01 2.272250000000000000e+03
3.400000000000000244e-02 1.668824999999999892e-01 1.343224999999999980e+01 5.877195000000000391e+01 2.271779999999999745e+03
3.500000000000000333e-02 1.668560000000000043e-01 1.314610000000000056e+01 5.847025000000000006e+01 2.271524999999999636e+03
3.600000000000000422e-02 1.668640000000000123e-01 1.331479999999999997e+01 5.958670000000000044e+01 2.271565000000000055e+03
3.700000000000000511e-02 1.669049999999999978e-01 1.386149999999999949e+01 6.194845000000000113e+01 2.271900000000000091e+03
3.799999999999999906e-02 1.669714999999999949e-01 1.462754999999999939e+01 6.507339999999999236e+01 2.272479999999999563e+03
3.899999999999999994e-02 1.670504999999999907e-01 1.541444999999999865e+01 6.830490000000000350e+01 2.273184999999999945e+03
4.000000000000000083e-02 1.671259999999999968e-01 1.602919999999999945e+01 7.097540000000000759e+01 2.273864999999999782e+03
4.100000000000000172e-02 1.671829999999999983e-01 1.632119999999999749e+01 7.255004999999999882e+01 2.274385000000000218e+03
4.200000000000000261e-02 1.672095000000000109e-01 1.620279999999999987e+01 7.271795000000000186e+01 2.274644999999999982e+03
4.300000000000000350e-02 1.672005000000000019e-01 1.565315000000000012e+01 7.141610000000000014e+01 2.274585000000000036e+03
4.400000000000000439e-02 1.671549999999999980e-01 1.470664999999999978e+01 6.879505000000000337e+01 2.274199999999999818e+03
4.499999999999999833e-02 1.670774999999999899e-01 1.343384999999999962e+01 6.514535000000000764e+01 2.273519999999999982e+03
4.599999999999999922e-02 1.669754999999999989e-01 1.192074999999999996e+01 6.081255000000000166e+01 2.272609999999999673e+03
4.700000000000000011e-02 1.668554999999999899e-01 1.025247500000000045e+01 5.612680000000000291e+01 2.271545000000000073e+03
4.800000000000000100e-02 1.667264999999999997e-01 8.504889999999999617e+00 5.135994999999999777e+01 2.270385000000000218e+03
4.900000000000000189e-02 1.665939999999999921e-01 6.742784999999999584e+00 4.671484999999999843e+01 2.269194999999999709e+03
5.000000000000000278e-02 1.664645000000000152e-01 5.023810499999999735e+00 4.233849999999999625e+01 2.268019999999999982e+03
5.100000000000000366e-02 1.663410000000000166e-01 3.403304499999999955e+00 3.834749999999999659e+01 2.266909999999999854e+03
5.200000000000000455e-02 1.662285000000000013e-01 1.938855000000000217e+00 3.485285000000000366e+01 2.265880000000000109e+03
5.300000000000000544e-02 1.661294999999999855e-01 6.915999999999999925e-01 3.197630000000000194e+01 2.264980000000000018e+03
5.399999999999999939e-02 1.660490000000000022e-01 -2.757049999999998668e-01 2.985265000000000413e+01 2.264239999999999782e+03
5.500000000000000028e-02 1.659915000000000140e-01 -9.035085000000000477e-01 2.862040000000000362e+01 2.263694999999999709e+03
5.600000000000000117e-02 1.659594999999999820e-01 -1.141671500000000172e+00 2.840364999999999895e+01 2.263390000000000327e+03
5.700000000000000205e-02 1.659570000000000212e-01 -9.555059999999999665e-01 2.929194999999999993e+01 2.263335000000000036e+03
5.800000000000000294e-02 1.659864999999999813e-01 -3.301904999999999979e-01 3.132390000000000185e+01 2.263569999999999709e+03
5.900000000000000383e-02 1.660480000000000012e-01 7.272549999999998738e-01 3.447800000000000153e+01 2.264095000000000255e+03
6.000000000000000472e-02 1.661404999999999965e-01 2.188593000000000011e+00 3.867244999999999777e+01 2.264899999999999636e+03
6.099999999999999867e-02 1.662619999999999931e-01 4.007086000000000148e+00 4.377285000000000537e+01 2.265970000000000255e+03
6.199999999999999956e-02 1.664085000000000147e-01 6.121600000000000819e+00 4.960504999999999853e+01 2.267264999999999873e+03
6.300000000000000044e-02 1.665745000000000142e-01 8.461320000000000618e+00 5.597055000000000291e+01 2.268750000000000000e+03
6.400000000000000133e-02 1.667559999999999876e-01 1.095059000000000005e+01 6.266199999999999903e+01 2.270375000000000000e+03
6.500000000000000222e-02 1.669464999999999977e-01 1.351371999999999929e+01 6.947784999999998945e+01 2.272095000000000255e+03
6.600000000000000311e-02 1.671414999999999984e-01 1.607924999999999827e+01 7.623489999999999611e+01 2.273855000000000018e+03
6.700000000000000400e-02 1.673350000000000115e-01 1.858449999999999847e+01 8.277965000000000373e+01 2.275614999999999782e+03
6.800000000000000488e-02 1.675229999999999775e-01 2.097865000000000180e+01 8.899710000000000321e+01 2.277335000000000036e+03
6.900000000000000577e-02 1.677035000000000053e-01 2.322554999999999836e+01 9.481664999999999566e+01 2.278989999999999782e+03
7.000000000000000666e-02 1.678735000000000088e-01 2.530509999999999948e+01 1.002142000000000053e+02 2.280555000000000291e+03
7.100000000000000755e-02 1.680340000000000167e-01 2.721269999999999811e+01 1.052107500000000044e+02 2.282034999999999854e+03
7.200000000000000844e-02 1.681840000000000002e-01 2.895775000000000077e+01 1.098619999999999948e+02 2.283425000000000182e+03
7.300000000000000933e-02 1.683260000000000034e-01 3.056024999999999991e+01 1.142524999999999977e+02 2.284739999999999782e+03
7.399999999999999634e-02 1.684614999999999863e-01 3.204704999999999870e+01 1.184789999999999992e+02 2.286000000000000000e+03
7.499999999999999722e-02 1.685940000000000216e-01 3.344764999999999588e+01 1.226370000000000005e+02 2.287225000000000364e+03
7.599999999999999811e-02 1.687244999999999995e-01 3.479030000000000200e+01 1.268125000000000000e+02 2.288440000000000055e+03
7.699999999999999900e-02 1.688554999999999917e-01 3.609879999999999711e+01 1.310674999999999955e+02 2.289649999999999636e+03
7.799999999999999989e-02 1.689884999999999859e-01 3.739024999999999466e+01 1.354384999999999764e+02 2.290885000000000218e+03
7.900000000000000078e-02 1.691239999999999966e-01 3.867379999999999995e+01 1.399360000000000070e+02 2.292144999999999982e+03
8.000000000000000167e-02 1.692624999999999824e-01 3.995045000000000357e+01 1.445389999999999873e+02 2.293425000000000182e+03
8.100000000000000255e-02 1.694029999999999980e-01 4.121359999999999957e+01 1.492060000000000173e+02 2.294725000000000364e+03
8.200000000000000344e-02 1.695450000000000013e-01 4.244960000000000377e+01 1.538759999999999764e+02 2.296039999999999964e+03
8.300000000000000433e-02 1.696854999999999891e-01 4.364005000000000223e+01 1.584770000000000039e+02 2.297340000000000146e+03
8.400000000000000522e-02 1.698224999999999874e-01 4.476265000000000072e+01 1.629294999999999902e+02 2.298619999999999891e+03
8.500000000000000611e-02 1.699555000000000093e-01 4.579335000000000377e+01 1.671519999999999868e+02 2.299860000000000127e+03
8.600000000000000699e-02 1.700809999999999822e-01 4.670789999999999509e+01 1.710690000000000168e+02 2.301029999999999745e+03
8.700000000000000788e-02 1.701975000000000016e-01 4.748349999999999937e+01 1.746114999999999782e+02 2.302114999999999782e+03
8.800000000000000877e-02 1.703029999999999822e-01 4.810030000000000427e+01 1.777225000000000250e+02 2.303109999999999673e+03
8.899999999999999578e-02 1.703954999999999775e-01 4.854245000000000232e+01 1.803594999999999970e+02 2.303980000000000018e+03
8.999999999999999667e-02 1.704745000000000010e-01 4.879979999999999762e+01 1.824959999999999809e+02 2.304730000000000018e+03
9.099999999999999756e-02 1.705395000000000105e-01 4.886785000000000423e+01 1.841229999999999905e+02 2.305345000000000255e+03
9.199999999999999845e-02 1.705895000000000050e-01 4.874900000000000233e+01 1.852500000000000000e+02 2.305829999999999927e+03
9.299999999999999933e-02 1.706249999999999989e-01 4.845165000000000077e+01 1.859030000000000200e+02 2.306179999999999836e+03
9.400000000000000022e-02 1.706479999999999941e-01 4.799065000000000225e+01 1.861254999999999882e+02 2.306400000000000091e+03
9.500000000000000111e-02 1.706584999999999908e-01 4.738569999999999993e+01 1.859714999999999918e+02 2.306515000000000327e+03
9.600000000000000200e-02 1.706580000000000041e-01 4.666065000000000396e+01 1.855054999999999836e+02 2.306524999999999636e+03
9.700000000000000289e-02 1.706484999999999808e-01 4.584165000000000134e+01 1.847980000000000018e+02 2.306449999999999818e+03
9.800000000000000377e-02 1.706324999999999925e-01 4.495629999999999882e+01 1.839200000000000159e+02 2.306309999999999945e+03
9.900000000000000466e-02 1.706114999999999993e-01 4.403175000000000239e+01 1.829385000000000048e+02 2.306114999999999782e+03
1.000000000000000056e-01 1.705869999999999886e-01 4.309355000000000047e+01 1.819170000000000016e+02 2.305889999999999873e+03
1.010000000000000064e-01 1.705605000000000038e-01 4.216460000000000008e+01 1.809100000000000250e+02 2.305654999999999745e+03
1.020000000000000073e-01 1.705345000000000055e-01 4.126425000000000409e+01 1.799590000000000032e+02 2.305409999999999854e+03
1.030000000000000082e-01 1.705095000000000083e-01 4.040739999999999554e+01 1.790974999999999966e+02 2.305175000000000182e+03
1.040000000000000091e-01 1.704859999999999987e-01 3.960415000000000418e+01 1.783435000000000059e+02 2.304960000000000036e+03
1.050000000000000100e-01 1.704660000000000064e-01 3.885949999999999704e+01 1.777030000000000030e+02 2.304764999999999873e+03
1.059999999999999970e-01 1.704479999999999884e-01 3.817350000000000421e+01 1.771689999999999827e+02 2.304595000000000255e+03
1.069999999999999979e-01 1.704320000000000002e-01 3.754115000000000180e+01 1.767224999999999966e+02 2.304444999999999709e+03
1.079999999999999988e-01 1.704185000000000005e-01 3.695340000000000202e+01 1.763354999999999961e+02 2.304310000000000400e+03
1.089999999999999997e-01 1.704060000000000019e-01 3.639750000000000085e+01 1.759695000000000107e+02 2.304195000000000164e+03
1.100000000000000006e-01 1.703939999999999899e-01 3.585810000000000031e+01 1.755829999999999984e+02 2.304074999999999818e+03
1.110000000000000014e-01 1.703804999999999903e-01 3.531864999999999810e+01 1.751304999999999836e+02 2.303945000000000164e+03
1.120000000000000023e-01 1.703645000000000020e-01 3.476229999999999620e+01 1.745679999999999836e+02 2.303800000000000182e+03
1.130000000000000032e-01 1.703459999999999974e-01 3.417310000000000514e+01 1.738555000000000064e+02 2.303619999999999891e+03
1.140000000000000041e-01 1.703224999999999878e-01 3.353764999999999930e+01 1.729599999999999795e+02 2.303409999999999854e+03
1.150000000000000050e-01 1.702940000000000009e-01 3.284544999999999959e+01 1.718584999999999923e+02 2.303145000000000437e+03
1.160000000000000059e-01 1.702599999999999947e-01 3.208999999999999631e+01 1.705389999999999873e+02 2.302829999999999927e+03
1.170000000000000068e-01 1.702194999999999958e-01 3.126930000000000121e+01 1.690024999999999977e+02 2.302454999999999927e+03
1.180000000000000077e-01 1.701725000000000043e-01 3.038609999999999900e+01 1.672624999999999886e+02 2.302029999999999745e+03
1.190000000000000085e-01 1.701205000000000078e-01 2.944764999999999944e+01 1.653449999999999989e+02 2.301550000000000182e+03
1.200000000000000094e-01 1.700645000000000073e-01 2.846549999999999869e+01 1.632860000000000014e+02 2.301029999999999745e+03
1.209999999999999964e-01 1.700039999999999885e-01 2.745470000000000255e+01 1.611320000000000050e+02 2.300475000000000364e+03
1.219999999999999973e-01 1.699410000000000087e-01 2.643280000000000030e+01 1.589334999999999809e+02 2.299894999999999982e+03
1.229999999999999982e-01 1.698770000000000002e-01 2.541920000000000002e+01 1.567444999999999879e+02 2.299300000000000182e+03
1.239999999999999991e-01 1.698135000000000061e-01 2.443339999999999890e+01 1.546209999999999809e+02 2.298715000000000146e+03
1.250000000000000000e-01 1.697525000000000006e-01 2.349439999999999884e+01 1.526125000000000114e+02 2.298144999999999982e+03
1.260000000000000009e-01 1.696940000000000115e-01 2.261935000000000073e+01 1.507640000000000100e+02 2.297599999999999909e+03
1.270000000000000018e-01 1.696404999999999996e-01 2.182260000000000133e+01 1.491114999999999782e+02 2.297105000000000018e+03
1.280000000000000027e-01 1.695924999999999794e-01 2.111524999999999963e+01 1.476814999999999998e+02 2.296649999999999636e+03
1.290000000000000036e-01 1.695500000000000063e-01 2.050469999999999970e+01 1.464895000000000209e+02 2.296255000000000109e+03
1.300000000000000044e-01 1.695154999999999856e-01 1.999419999999999931e+01 1.455414999999999850e+02 2.295920000000000073e+03
1.310000000000000053e-01 1.694864999999999844e-01 1.958350000000000080e+01 1.448305000000000007e+02 2.295650000000000091e+03
1.320000000000000062e-01 1.694645000000000179e-01 1.926845000000000141e+01 1.443439999999999941e+02 2.295434999999999945e+03
1.330000000000000071e-01 1.694485000000000019e-01 1.904224999999999923e+01 1.440595000000000141e+02 2.295280000000000200e+03
1.340000000000000080e-01 1.694384999999999919e-01 1.889545000000000030e+01 1.439515000000000100e+02 2.295180000000000291e+03
1.350000000000000089e-01 1.694330000000000003e-01 1.881680000000000064e+01 1.439884999999999877e+02 2.295130000000000109e+03
1.360000000000000098e-01 1.694324999999999859e-01 1.879399999999999693e+01 1.441399999999999864e+02 2.295110000000000127e+03
1.370000000000000107e-01 1.694344999999999879e-01 1.881414999999999793e+01 1.443725000000000023e+02 2.295125000000000000e+03
1.380000000000000115e-01 1.694390000000000063e-01 1.886455000000000126e+01 1.446560000000000059e+02 2.295164999999999964e+03
1.390000000000000124e-01 1.694455000000000267e-01 1.893285000000000196e+01 1.449619999999999891e+02 2.295220000000000255e+03
1.400000000000000133e-01 1.694525000000000059e-01 1.900789999999999935e+01 1.452655000000000030e+02 2.295279999999999745e+03
1.410000000000000142e-01 1.694599999999999995e-01 1.907990000000000208e+01 1.455450000000000159e+02 2.295345000000000255e+03
1.420000000000000151e-01 1.694664999999999921e-01 1.914059999999999917e+01 1.457844999999999800e+02 2.295409999999999854e+03
1.430000000000000160e-01 1.694720000000000115e-01 1.918365000000000009e+01 1.459714999999999918e+02 2.295460000000000036e+03
1.440000000000000169e-01 1.694765000000000021e-01 1.920485000000000042e+01 1.460994999999999777e+02 2.295500000000000000e+03
1.450000000000000178e-01 1.694795000000000051e-01 1.920179999999999865e+01 1.461659999999999968e+02 2.295529999999999745e+03
1.459999999999999909e-01 1.694815000000000071e-01 1.917414999999999736e+01 1.461734999999999900e+02 2.295545000000000073e+03
1.469999999999999918e-01 1.694809999999999928e-01 1.912335000000000207e+01 1.461285000000000025e+02 2.295550000000000182e+03
1.479999999999999927e-01 1.694799999999999918e-01 1.905230000000000246e+01 1.460409999999999968e+02 2.295534999999999854e+03
1.489999999999999936e-01 1.694775000000000031e-01 1.896519999999999939e+01 1.459239999999999782e+02 2.295519999999999982e+03
1.499999999999999944e-01 1.694745000000000001e-01 1.886704999999999899e+01 1.457909999999999968e+02 2.295494999999999891e+03
1.509999999999999953e-01 1.694714999999999971e-01 1.876320000000000121e+01 1.456560000000000059e+02 2.295465000000000146e+03
1.519999999999999962e-01 1.694680000000000075e-01 1.865874999999999773e+01 1.455320000000000107e+02 2.295435000000000400e+03
1.529999999999999971e-01 1.694649999999999768e-01 1.855865000000000009e+01 1.454314999999999998e+02 2.295409999999999854e+03
1.539999999999999980e-01 1.694625000000000159e-01 1.846694999999999709e+01 1.453629999999999995e+02 2.295385000000000218e+03
1.549999999999999989e-01 1.694610000000000005e-01 1.838660000000000139e+01 1.453315000000000055e+02 2.295369999999999891e+03
1.559999999999999998e-01 1.694605000000000139e-01 1.831949999999999790e+01 1.453404999999999916e+02 2.295364999999999782e+03
1.570000000000000007e-01 1.694610000000000005e-01 1.826640000000000086e+01 1.453879999999999768e+02 2.295369999999999891e+03
1.580000000000000016e-01 1.694625000000000159e-01 1.822690000000000055e+01 1.454714999999999918e+02 2.295385000000000218e+03
1.590000000000000024e-01 1.694650000000000045e-01 1.819964999999999833e+01 1.455840000000000032e+02 2.295404999999999745e+03
