# t [s], A [cm^2], U [cm/s], P [cPa], c [cm/s]
1.000000000000000021e-03 7.845595000000000763e-01 8.276500000000006074e-03 1.060229999999999961e+02 1.787595000000000027e+03
2.000000000000000042e-03 7.845450000000000479e-01 -3.065085500000000115e-03 1.059815000000000111e+02 1.787585000000000036e+03
3.000000000000000062e-03 7.846225000000000005e-01 1.243210000000000148e-01 1.061345000000000027e+02 1.787619999999999891e+03
4.000000000000000083e-03 7.846684999999999910e-01 2.236958500000000016e-01 1.062545000000000073e+02 1.787650000000000091e+03
5.000000000000000104e-03 7.845929999999999849e-01 1.433015000000000261e-01 1.060674999999999955e+02 1.787605000000000018e+03
6.000000000000000125e-03 7.844980000000000286e-01 2.440649999999999764e-02 1.057220000000000084e+02 1.787530000000000200e+03
7.000000000000000146e-03 7.844094999999999818e-01 -9.887499999999993516e-02 1.053084999999999951e+02 1.787434999999999945e+03
8.000000000000000167e-03 7.842385000000000606e-01 -3.767149999999999110e-01 1.046299999999999955e+02 1.787285000000000082e+03
9.000000000000001055e-03 7.839845000000000841e-01 -8.135600000000000609e-01 1.036285000000000025e+02 1.787069999999999936e+03
1.000000000000000194e-02 7.836359999999999992e-01 -1.417510000000000048e+00 1.022426499999999976e+02 1.786759999999999991e+03
1.099999999999999936e-02 7.831525000000000292e-01 -2.233684999999999921e+00 1.003464999999999918e+02 1.786340000000000146e+03
1.200000000000000025e-02 7.825649999999999551e-01 -3.183599999999999763e+00 9.797655000000000314e+01 1.785799999999999955e+03
1.300000000000000114e-02 7.819929999999999382e-01 -4.034145500000000162e+00 9.542894999999998618e+01 1.785200000000000045e+03
1.400000000000000203e-02 7.815520000000000245e-01 -4.545288499999999843e+00 9.309010000000000673e+01 1.784625000000000000e+03
1.499999999999999944e-02 7.812780000000000280e-01 -4.609614999999999796e+00 9.120445000000000846e+01 1.784119999999999891e+03
1.600000000000000033e-02 7.811204999999999954e-01 -4.279625000000000234e+00 8.977799999999999159e+01 1.783704999999999927e+03
1.700000000000000122e-02 7.809844999999999704e-01 -3.710630000000000095e+00 8.862019999999999698e+01 1.783344999999999800e+03
1.800000000000000211e-02 7.807815000000000172e-01 -3.075415000000000454e+00 8.746035000000000537e+01 1.782984999999999900e+03
1.900000000000000300e-02 7.804625000000000590e-01 -2.490083849999999988e+00 8.607704999999999984e+01 1.782590000000000146e+03
2.000000000000000042e-02 7.800370000000000914e-01 -1.976884999999999781e+00 8.438675000000000637e+01 1.782130000000000109e+03
2.100000000000000130e-02 7.795549999999999979e-01 -1.476225000000000120e+00 8.245859999999998990e+01 1.781615000000000009e+03
2.200000000000000219e-02 7.790820000000000523e-01 -8.970900000000001651e-01 8.045579999999999643e+01 1.781079999999999927e+03
2.299999999999999961e-02 7.786604999999999777e-01 -1.758650000000003821e-01 7.854249999999998977e+01 1.780554999999999836e+03
2.400000000000000050e-02 7.782979999999999343e-01 6.844850000000000101e-01 7.680324999999999136e+01 1.780059999999999945e+03
2.500000000000000139e-02 7.779605000000000548e-01 1.605720000000000036e+00 7.520390000000000441e+01 1.779605000000000018e+03
2.600000000000000228e-02 7.775894999999999335e-01 2.452500000000000124e+00 7.359759999999999991e+01 1.779144999999999982e+03
2.700000000000000316e-02 7.771170000000000577e-01 3.068589999999999485e+00 7.176814999999999145e+01 1.778650000000000091e+03
2.800000000000000058e-02 7.764915000000000012e-01 3.321470000000000589e+00 6.949924999999998931e+01 1.778065000000000055e+03
2.900000000000000147e-02 7.756935000000000358e-01 3.142985000000000362e+00 6.664910000000000423e+01 1.777360000000000127e+03
3.000000000000000236e-02 7.747474999999999223e-01 2.551210000000000200e+00 6.320544999999999902e+01 1.776525000000000091e+03
3.099999999999999978e-02 7.737134999999999430e-01 1.643909999999999982e+00 5.929814999999999259e+01 1.775579999999999927e+03
3.200000000000000067e-02 7.726705000000000378e-01 5.669500000000002871e-01 5.516624999999999801e+01 1.774575000000000045e+03
3.300000000000000155e-02 7.716975000000000362e-01 -5.249100000000002098e-01 5.109900000000000375e+01 1.773570000000000164e+03
3.400000000000000244e-02 7.708544999999999980e-01 -1.500810000000000421e+00 4.737510000000000332e+01 1.772625000000000000e+03
3.500000000000000333e-02 7.701810000000000045e-01 -2.271199999999999442e+00 4.421784999999999854e+01 1.771795000000000073e+03
3.600000000000000422e-02 7.696914999999999729e-01 -2.790945000000000231e+00 4.177235000000000298e+01 1.771119999999999891e+03
3.700000000000000511e-02 7.693834999999999980e-01 -3.051946500000000118e+00 4.010285000000000366e+01 1.770625000000000000e+03
3.799999999999999906e-02 7.692425000000000512e-01 -3.069670000000000343e+00 3.920589999999999975e+01 1.770315000000000055e+03
3.899999999999999994e-02 7.692514999999999770e-01 -2.868109999999999715e+00 3.903354999999999819e+01 1.770184999999999945e+03
4.000000000000000083e-02 7.693935000000000635e-01 -2.467189999999999994e+00 3.951890000000000214e+01 1.770224999999999909e+03
4.100000000000000172e-02 7.696585000000000232e-01 -1.875820000000000043e+00 4.059699999999999420e+01 1.770425000000000182e+03
4.200000000000000261e-02 7.700405000000000166e-01 -1.092000000000000082e+00 4.221599999999999397e+01 1.770764999999999873e+03
4.300000000000000350e-02 7.705355000000000398e-01 -1.088700000000000223e-01 4.433700000000000330e+01 1.771235000000000127e+03
4.400000000000000439e-02 7.711394999999999778e-01 1.076645000000000074e+00 4.692560000000000286e+01 1.771835000000000036e+03
4.499999999999999833e-02 7.718430000000000568e-01 2.456090000000000106e+00 4.994060000000000343e+01 1.772545000000000073e+03
4.599999999999999922e-02 7.726290000000000102e-01 4.005340000000000344e+00 5.332515000000000072e+01 1.773355000000000018e+03
4.700000000000000011e-02 7.734775000000000400e-01 5.684820000000000206e+00 5.700300000000000011e+01 1.774244999999999891e+03
4.800000000000000100e-02 7.743614999999999249e-01 7.443344999999999878e+00 6.088034999999999286e+01 1.775195000000000164e+03
4.900000000000000189e-02 7.752554999999999863e-01 9.224387999999999366e+00 6.485320000000000107e+01 1.776184999999999945e+03
5.000000000000000278e-02 7.761335000000000317e-01 1.097267000000000081e+01 6.881709999999999638e+01 1.777184999999999945e+03
5.100000000000000366e-02 7.769760000000000000e-01 1.264015500000000003e+01 7.267725000000000080e+01 1.778170000000000073e+03
5.200000000000000455e-02 7.777695000000000025e-01 1.418982000000000099e+01 7.635710000000000264e+01 1.779125000000000000e+03
5.300000000000000544e-02 7.785050000000000026e-01 1.559748000000000090e+01 7.980355000000000132e+01 1.780039999999999964e+03
5.399999999999999939e-02 7.791810000000000125e-01 1.685139999999999816e+01 8.298845000000000027e+01 1.780894999999999982e+03
5.500000000000000028e-02 7.798000000000000487e-01 1.795045000000000002e+01 8.590675000000000239e+01 1.781684999999999945e+03
5.600000000000000117e-02 7.803685000000000205e-01 1.890165000000000006e+01 8.857339999999999236e+01 1.782414999999999964e+03
5.700000000000000205e-02 7.808950000000000058e-01 1.971770000000000067e+01 9.101770000000000493e+01 1.783094999999999800e+03
5.800000000000000294e-02 7.813894999999999591e-01 2.041505000000000081e+01 9.327915000000000134e+01 1.783724999999999909e+03
5.900000000000000383e-02 7.818614999999999871e-01 2.101219999999999999e+01 9.540240000000000009e+01 1.784320000000000164e+03
6.000000000000000472e-02 7.823204999999999742e-01 2.152805000000000035e+01 9.743295000000000528e+01 1.784884999999999991e+03
6.099999999999999867e-02 7.827759999999999163e-01 2.198079999999999856e+01 9.941374999999999318e+01 1.785434999999999945e+03
6.199999999999999956e-02 7.832339999999999858e-01 2.238625000000000043e+01 1.013800999999999988e+02 1.785980000000000018e+03
6.300000000000000044e-02 7.836990000000000345e-01 2.275654999999999717e+01 1.033585000000000065e+02 1.786514999999999873e+03
6.400000000000000133e-02 7.841724999999999390e-01 2.309895000000000209e+01 1.053624999999999972e+02 1.787059999999999945e+03
6.500000000000000222e-02 7.846524999999999750e-01 2.341525000000000034e+01 1.073915000000000077e+02 1.787605000000000018e+03
6.600000000000000311e-02 7.851330000000000808e-01 2.370190000000000197e+01 1.094300000000000068e+02 1.788150000000000091e+03
6.700000000000000400e-02 7.856075000000000141e-01 2.395069999999999766e+01 1.114519999999999982e+02 1.788694999999999936e+03
6.800000000000000488e-02 7.860650000000000137e-01 2.415019999999999811e+01 1.134210000000000065e+02 1.789224999999999909e+03
6.900000000000000577e-02 7.864965000000000428e-01 2.428715000000000046e+01 1.152944999999999993e+02 1.789735000000000127e+03
7.000000000000000666e-02 7.868919999999999249e-01 2.434850000000000136e+01 1.170289999999999964e+02 1.790210000000000036e+03
7.100000000000000755e-02 7.872425000000000672e-01 2.432220000000000226e+01 1.185835000000000008e+02 1.790644999999999982e+03
7.200000000000000844e-02 7.875415000000000054e-01 2.419910000000000139e+01 1.199224999999999994e+02 1.791029999999999973e+03
7.300000000000000933e-02 7.877825000000000522e-01 2.397290000000000276e+01 1.210174999999999983e+02 1.791345000000000027e+03
7.399999999999999634e-02 7.879629999999999690e-01 2.364090000000000202e+01 1.218495000000000061e+02 1.791605000000000018e+03
7.499999999999999722e-02 7.880825000000000191e-01 2.320414999999999850e+01 1.224104999999999990e+02 1.791789999999999964e+03
7.599999999999999811e-02 7.881415000000000504e-01 2.266710000000000136e+01 1.227005000000000052e+02 1.791909999999999854e+03
7.699999999999999900e-02 7.881445000000000256e-01 2.203744999999999976e+01 1.227305000000000064e+02 1.791960000000000036e+03
7.799999999999999989e-02 7.880944999999999201e-01 2.132590000000000074e+01 1.225190000000000055e+02 1.791945000000000164e+03
7.900000000000000078e-02 7.879985000000000461e-01 2.054570000000000007e+01 1.220919999999999987e+02 1.791869999999999891e+03
8.000000000000000167e-02 7.878640000000000088e-01 1.971195000000000164e+01 1.214795000000000016e+02 1.791744999999999891e+03
8.100000000000000255e-02 7.876989999999999270e-01 1.884145000000000181e+01 1.207189999999999941e+02 1.791574999999999818e+03
8.200000000000000344e-02 7.875125000000000597e-01 1.795150000000000290e+01 1.198460000000000036e+02 1.791375000000000000e+03
8.300000000000000433e-02 7.873114999999999419e-01 1.705955000000000155e+01 1.189000000000000057e+02 1.791150000000000091e+03
8.400000000000000522e-02 7.871055000000000135e-01 1.618219999999999814e+01 1.179184999999999945e+02 1.790905000000000200e+03
8.500000000000000611e-02 7.869010000000000726e-01 1.533440000000000047e+01 1.169350000000000023e+02 1.790654999999999973e+03
8.600000000000000699e-02 7.867045000000000288e-01 1.452873500000000107e+01 1.159814999999999969e+02 1.790409999999999854e+03
8.700000000000000788e-02 7.865210000000000257e-01 1.377488500000000116e+01 1.150809999999999889e+02 1.790174999999999955e+03
8.800000000000000877e-02 7.863534999999999275e-01 1.307916499999999971e+01 1.142520000000000095e+02 1.789950000000000045e+03
8.899999999999999578e-02 7.862035000000000551e-01 1.244422499999999943e+01 1.135060000000000002e+02 1.789744999999999891e+03
8.999999999999999667e-02 7.860709999999999642e-01 1.186916000000000082e+01 1.128460000000000036e+02 1.789555000000000064e+03
9.099999999999999756e-02 7.859540000000000415e-01 1.134987500000000082e+01 1.122690000000000055e+02 1.789394999999999982e+03
9.199999999999999845e-02 7.858509999999999662e-01 1.087937999999999938e+01 1.117655000000000030e+02 1.789250000000000000e+03
9.299999999999999933e-02 7.857574999999999976e-01 1.044832000000000072e+01 1.113214999999999861e+02 1.789115000000000009e+03
9.400000000000000022e-02 7.856689999999999507e-01 1.004570499999999988e+01 1.109170000000000016e+02 1.788994999999999891e+03
9.500000000000000111e-02 7.855814999999999326e-01 9.659575000000000244e+00 1.105330000000000013e+02 1.788880000000000109e+03
9.600000000000000200e-02 7.854889999999999928e-01 9.277540000000000120e+00 1.101469999999999914e+02 1.788769999999999982e+03
9.700000000000000289e-02 7.853885000000000449e-01 8.887705000000000410e+00 1.097365000000000066e+02 1.788654999999999973e+03
9.800000000000000377e-02 7.852744999999999864e-01 8.479189999999999117e+00 1.092820000000000107e+02 1.788534999999999854e+03
9.900000000000000466e-02 7.851434999999999942e-01 8.042944999999999567e+00 1.087674999999999983e+02 1.788400000000000091e+03
1.000000000000000056e-01 7.849949999999999983e-01 7.572219999999999729e+00 1.081794999999999902e+02 1.788250000000000000e+03
1.010000000000000064e-01 7.848275000000000112e-01 7.063195000000000334e+00 1.075120000000000005e+02 1.788079999999999927e+03
1.020000000000000073e-01 7.846425000000000205e-01 6.515235000000000554e+00 1.067644999999999982e+02 1.787894999999999982e+03
1.030000000000000082e-01 7.844405000000000960e-01 5.930925000000000225e+00 1.059420000000000073e+02 1.787684999999999945e+03
1.040000000000000091e-01 7.842259999999999787e-01 5.316055000000000419e+00 1.050564999999999998e+02 1.787460000000000036e+03
1.050000000000000100e-01 7.840044999999999931e-01 4.679240000000000066e+00 1.041253999999999991e+02 1.787224999999999909e+03
1.059999999999999970e-01 7.837809999999999500e-01 4.031414999999999971e+00 1.031724499999999978e+02 1.786985000000000127e+03
1.069999999999999979e-01 7.835615000000000219e-01 3.385164000000000062e+00 1.022220000000000084e+02 1.786740000000000009e+03
1.079999999999999988e-01 7.833529999999999660e-01 2.753982999999999848e+00 1.013031000000000006e+02 1.786505000000000109e+03
1.089999999999999997e-01 7.831615000000000659e-01 2.151453000000000060e+00 1.004425999999999988e+02 1.786279999999999973e+03
1.100000000000000006e-01 7.829924999999999802e-01 1.590465000000000018e+00 9.966720000000000823e+01 1.786070000000000164e+03
1.110000000000000014e-01 7.828509999999999636e-01 1.082501500000000005e+00 9.900045000000000073e+01 1.785890000000000100e+03
1.120000000000000023e-01 7.827409999999999091e-01 6.370074999999999488e-01 9.846094999999999686e+01 1.785740000000000009e+03
1.130000000000000032e-01 7.826649999999999441e-01 2.609224999999999461e-01 9.806270000000000664e+01 1.785619999999999891e+03
1.140000000000000041e-01 7.826230000000000686e-01 -4.162150000000000571e-02 9.781260000000000332e+01 1.785534999999999854e+03
1.150000000000000050e-01 7.826150000000000606e-01 -2.694199999999999928e-01 9.771205000000000496e+01 1.785490000000000009e+03
1.160000000000000059e-01 7.826390000000000846e-01 -4.241269999999999762e-01 9.775524999999998954e+01 1.785480000000000018e+03
1.170000000000000068e-01 7.826919999999999433e-01 -5.100310000000000121e-01 9.793164999999999054e+01 1.785500000000000000e+03
1.180000000000000077e-01 7.827690000000000481e-01 -5.336670000000000025e-01 9.822520000000000095e+01 1.785559999999999945e+03
1.190000000000000085e-01 7.828660000000000618e-01 -5.033885000000000165e-01 9.861654999999998950e+01 1.785644999999999982e+03
1.200000000000000094e-01 7.829779999999999518e-01 -4.288155000000000161e-01 9.908344999999999914e+01 1.785750000000000000e+03
1.209999999999999964e-01 7.830984999999999197e-01 -3.203249999999999709e-01 9.960265000000001123e+01 1.785865000000000009e+03
1.219999999999999973e-01 7.832240000000000313e-01 -1.885400000000000409e-01 1.001503999999999905e+02 1.785994999999999891e+03
1.229999999999999982e-01 7.833479999999999333e-01 -4.388999999999998458e-02 1.007040000000000077e+02 1.786130000000000109e+03
1.239999999999999991e-01 7.834664999999999546e-01 1.038050000000000361e-01 1.012435499999999990e+02 1.786264999999999873e+03
1.250000000000000000e-01 7.835765000000000091e-01 2.456319999999999615e-01 1.017494999999999976e+02 1.786394999999999982e+03
1.260000000000000009e-01 7.836739999999999817e-01 3.738114999999999633e-01 1.022069999999999936e+02 1.786514999999999873e+03
1.270000000000000018e-01 7.837564999999999671e-01 4.819189999999999863e-01 1.026034999999999968e+02 1.786619999999999891e+03
1.280000000000000027e-01 7.838239999999999652e-01 5.649514999999999398e-01 1.029314999999999998e+02 1.786710000000000036e+03
1.290000000000000036e-01 7.838739999999999597e-01 6.194220000000000281e-01 1.031844999999999999e+02 1.786780000000000200e+03
1.300000000000000044e-01 7.839069999999999094e-01 6.433290000000000397e-01 1.033610000000000042e+02 1.786839999999999918e+03
1.310000000000000053e-01 7.839230000000000365e-01 6.361475000000000879e-01 1.034609999999999985e+02 1.786875000000000000e+03
1.320000000000000062e-01 7.839234999999999953e-01 5.987134999999998985e-01 1.034885000000000019e+02 1.786889999999999873e+03
1.330000000000000071e-01 7.839104999999999546e-01 5.330915000000000514e-01 1.034484999999999957e+02 1.786889999999999873e+03
1.340000000000000080e-01 7.838849999999999429e-01 4.423896000000000495e-01 1.033499999999999943e+02 1.786875000000000000e+03
1.350000000000000089e-01 7.838490000000000180e-01 3.305345000000000089e-01 1.032005000000000052e+02 1.786845000000000027e+03
1.360000000000000098e-01 7.838050000000000850e-01 2.020165000000000155e-01 1.030100000000000051e+02 1.786805000000000064e+03
1.370000000000000107e-01 7.837560000000000082e-01 6.161749999999999172e-02 1.027874999999999943e+02 1.786759999999999991e+03
1.380000000000000115e-01 7.837030000000000385e-01 -8.587100000000003064e-02 1.025439999999999969e+02 1.786700000000000045e+03
1.390000000000000124e-01 7.836480000000000112e-01 -2.359094999999999942e-01 1.022874999999999943e+02 1.786634999999999991e+03
1.400000000000000133e-01 7.835924999999999141e-01 -3.844484999999999708e-01 1.020250000000000057e+02 1.786574999999999818e+03
1.410000000000000142e-01 7.835380000000000678e-01 -5.281195000000000750e-01 1.017630000000000052e+02 1.786509999999999991e+03
1.420000000000000151e-01 7.834849999999999870e-01 -6.643599999999999506e-01 1.015049999999999955e+02 1.786444999999999936e+03
1.430000000000000160e-01 7.834330000000000460e-01 -7.914915000000000145e-01 1.012524999999999977e+02 1.786380000000000109e+03
1.440000000000000169e-01 7.833820000000000228e-01 -9.086885000000000101e-01 1.010061000000000035e+02 1.786315000000000055e+03
1.450000000000000178e-01 7.833319999999999173e-01 -1.015923499999999979e+00 1.007643999999999949e+02 1.786250000000000000e+03
1.459999999999999909e-01 7.832820000000000338e-01 -1.113825000000000065e+00 1.005242499999999950e+02 1.786190000000000055e+03
1.469999999999999918e-01 7.832299999999999818e-01 -1.203485000000000138e+00 1.002810000000000059e+02 1.786119999999999891e+03
1.479999999999999927e-01 7.831760000000000943e-01 -1.286287500000000028e+00 1.000310000000000059e+02 1.786054999999999836e+03
1.489999999999999936e-01 7.831185000000000507e-01 -1.363669000000000020e+00 9.976930000000000121e+01 1.785985000000000127e+03
1.499999999999999944e-01 7.830570000000000030e-01 -1.436954999999999982e+00 9.949289999999999168e+01 1.785914999999999964e+03
1.509999999999999953e-01 7.829909999999999926e-01 -1.507220000000000004e+00 9.919819999999999993e+01 1.785840000000000146e+03
1.519999999999999962e-01 7.829194999999999904e-01 -1.575165000000000148e+00 9.888365000000000293e+01 1.785755000000000109e+03
1.529999999999999971e-01 7.828435000000000255e-01 -1.641094999999999970e+00 9.854874999999999829e+01 1.785670000000000073e+03
1.539999999999999980e-01 7.827630000000000976e-01 -1.704895000000000049e+00 9.819450000000000500e+01 1.785575000000000045e+03
1.549999999999999989e-01 7.826785000000000547e-01 -1.766090000000000160e+00 9.782309999999999661e+01 1.785480000000000018e+03
1.559999999999999998e-01 7.825910000000000366e-01 -1.823860000000000037e+00 9.743779999999999575e+01 1.785384999999999991e+03
1.570000000000000007e-01 7.825010000000000021e-01 -1.877124999999999932e+00 9.704285000000000139e+01 1.785280000000000200e+03
1.580000000000000016e-01 7.824100000000000499e-01 -1.924609999999999932e+00 9.664314999999999145e+01 1.785174999999999955e+03
1.590000000000000024e-01 7.823200000000000154e-01 -1.964865000000000084e+00 9.624420000000000641e+01 1.785070000000000164e+03
