# t [s], A [cm^2], U [cm/s], P [cPa], c [cm/s]
1.000000000000000021e-03 2.001625000000000210e-01 3.314416500000000321e-01 8.788700000000000045e+01 2.277605000000000018e+03
2.000000000000000042e-03 2.001034999999999897e-01 1.747138999999999776e+00 8.439855000000000018e+01 2.277135000000000218e+03
3.000000000000000062e-03 1.999640000000000029e-01 3.492561999999999944e+00 7.956020000000000891e+01 2.276050000000000182e+03
4.000000000000000083e-03 1.997855000000000047e-01 5.478289999999999438e+00 7.458934999999999604e+01 2.274684999999999945e+03
5.000000000000000104e-03 1.996070000000000066e-01 7.599239999999999995e+00 7.046914999999999907e+01 2.273329999999999927e+03
6.000000000000000125e-03 1.994420000000000082e-01 9.585435000000000372e+00 6.720600000000000307e+01 2.272095000000000255e+03
7.000000000000000146e-03 1.992895000000000083e-01 1.122167499999999940e+01 6.431329999999999814e+01 2.270989999999999782e+03
8.000000000000000167e-03 1.991549999999999987e-01 1.252847999999999828e+01 6.174690000000000367e+01 2.270030000000000200e+03
9.000000000000001055e-03 1.990439999999999987e-01 1.356974999999999909e+01 5.968009999999999593e+01 2.269239999999999782e+03
1.000000000000000194e-02 1.989555000000000073e-01 1.436599999999999966e+01 5.810930000000000462e+01 2.268625000000000000e+03
1.099999999999999936e-02 1.988880000000000092e-01 1.493434999999999846e+01 5.695170000000000243e+01 2.268159999999999854e+03
1.200000000000000025e-02 1.988360000000000127e-01 1.527469999999999928e+01 5.605865000000000009e+01 2.267815000000000055e+03
1.300000000000000114e-02 1.987935000000000119e-01 1.539690000000000047e+01 5.525050000000000239e+01 2.267534999999999854e+03
1.400000000000000203e-02 1.987594999999999779e-01 1.541049999999999898e+01 5.459290000000000020e+01 2.267315000000000055e+03
1.499999999999999944e-02 1.987444999999999906e-01 1.553304999999999936e+01 5.455859999999999843e+01 2.267224999999999909e+03
1.600000000000000033e-02 1.987639999999999962e-01 1.596814999999999962e+01 5.575549999999999784e+01 2.267364999999999782e+03
1.700000000000000122e-02 1.988274999999999904e-01 1.676150000000000162e+01 5.843234999999999957e+01 2.267809999999999945e+03
1.800000000000000211e-02 1.989294999999999813e-01 1.775614999999999810e+01 6.218999999999999773e+01 2.268529999999999745e+03
1.900000000000000300e-02 1.990485000000000171e-01 1.866769999999999996e+01 6.610084999999999411e+01 2.269385000000000218e+03
2.000000000000000042e-02 1.991574999999999873e-01 1.921909999999999741e+01 6.911990000000000123e+01 2.270179999999999836e+03
2.100000000000000130e-02 1.992315000000000058e-01 1.925819999999999865e+01 7.053200000000001069e+01 2.270739999999999782e+03
2.200000000000000219e-02 1.992594999999999783e-01 1.880430000000000135e+01 7.021064999999998690e+01 2.270980000000000018e+03
2.299999999999999961e-02 1.992450000000000054e-01 1.801480000000000103e+01 6.859239999999999782e+01 2.270904999999999745e+03
2.400000000000000050e-02 1.992025000000000046e-01 1.709709999999999752e+01 6.641360000000000241e+01 2.270614999999999782e+03
2.500000000000000139e-02 1.991499999999999937e-01 1.621584999999999965e+01 6.436350000000000193e+01 2.270244999999999891e+03
2.600000000000000228e-02 1.991020000000000012e-01 1.543640000000000079e+01 6.282025000000000148e+01 2.269894999999999982e+03
2.700000000000000316e-02 1.990625000000000033e-01 1.472214999999999918e+01 6.176855000000000473e+01 2.269609999999999673e+03
2.800000000000000058e-02 1.990284999999999971e-01 1.397615000000000052e+01 6.089710000000000178e+01 2.269360000000000127e+03
2.900000000000000147e-02 1.989905000000000146e-01 1.310235000000000127e+01 5.980464999999999520e+01 2.269090000000000146e+03
3.000000000000000236e-02 1.989414999999999933e-01 1.206209999999999916e+01 5.821999999999999886e+01 2.268744999999999891e+03
3.099999999999999978e-02 1.988790000000000002e-01 1.090366500000000016e+01 5.615090000000000003e+01 2.268309999999999945e+03
3.200000000000000067e-02 1.988079999999999847e-01 9.756499999999999062e+00 5.391110000000000468e+01 2.267805000000000291e+03
3.300000000000000155e-02 1.987404999999999866e-01 8.791325000000000500e+00 5.201865000000000094e+01 2.267320000000000164e+03
3.400000000000000244e-02 1.986924999999999941e-01 8.163294999999999746e+00 5.100945000000000107e+01 2.266960000000000036e+03
3.500000000000000333e-02 1.986759999999999915e-01 7.960554999999999382e+00 5.124384999999999479e+01 2.266824999999999818e+03
3.600000000000000422e-02 1.986974999999999991e-01 8.175879999999999370e+00 5.277745000000000175e+01 2.266949999999999818e+03
3.700000000000000511e-02 1.987539999999999862e-01 8.708929999999998728e+00 5.533679999999999666e+01 2.267329999999999927e+03
3.799999999999999906e-02 1.988349999999999840e-01 9.393629999999999924e+00 5.839470000000000027e+01 2.267895000000000437e+03
3.899999999999999994e-02 1.989239999999999897e-01 1.003867999999999938e+01 6.130724999999999625e+01 2.268524999999999636e+03
4.000000000000000083e-02 1.990029999999999855e-01 1.046822500000000034e+01 6.346474999999999511e+01 2.269090000000000146e+03
4.100000000000000172e-02 1.990554999999999963e-01 1.055184999999999995e+01 6.441334999999999411e+01 2.269480000000000018e+03
4.200000000000000261e-02 1.990700000000000247e-01 1.022006000000000014e+01 6.392189999999999372e+01 2.269595000000000255e+03
4.300000000000000350e-02 1.990405000000000091e-01 9.463599999999999568e+00 6.198819999999999908e+01 2.269404999999999745e+03
4.400000000000000439e-02 1.989684999999999926e-01 8.321735000000000326e+00 5.879520000000000124e+01 2.268909999999999854e+03
4.499999999999999833e-02 1.988594999999999946e-01 6.864304999999999879e+00 5.463930000000000575e+01 2.268144999999999982e+03
4.599999999999999922e-02 1.987220000000000097e-01 5.174554999999999794e+00 4.985569999999999879e+01 2.267164999999999964e+03
4.700000000000000011e-02 1.985645000000000049e-01 3.336032499999999956e+00 4.475969999999999516e+01 2.266045000000000073e+03
4.800000000000000100e-02 1.983959999999999890e-01 1.426209999999999756e+00 3.961509999999999820e+01 2.264845000000000255e+03
4.900000000000000189e-02 1.982249999999999845e-01 -4.845950000000001090e-01 3.462794999999999845e+01 2.263619999999999891e+03
5.000000000000000278e-02 1.980580000000000118e-01 -2.330795000000000172e+00 2.995949999999999847e+01 2.262420000000000073e+03
5.100000000000000366e-02 1.979005000000000070e-01 -4.048339499999999980e+00 2.574544999999999817e+01 2.261284999999999854e+03
5.200000000000000455e-02 1.977575000000000027e-01 -5.572750000000000092e+00 2.211410000000000053e+01 2.260255000000000109e+03
5.300000000000000544e-02 1.976350000000000051e-01 -6.839620000000000033e+00 1.919469999999999743e+01 2.259360000000000127e+03
5.399999999999999939e-02 1.975359999999999894e-01 -7.787604999999999222e+00 1.711625000000000085e+01 2.258635000000000218e+03
5.500000000000000028e-02 1.974670000000000036e-01 -8.363234999999999530e+00 1.599650000000000105e+01 2.258114999999999782e+03
5.600000000000000117e-02 1.974299999999999944e-01 -8.526289999999999480e+00 1.592600000000000193e+01 2.257829999999999927e+03
5.700000000000000205e-02 1.974289999999999934e-01 -8.254435000000000855e+00 1.695309999999999917e+01 2.257795000000000073e+03
5.800000000000000294e-02 1.974650000000000016e-01 -7.546079999999999899e+00 1.907300000000000040e+01 2.258025000000000091e+03
5.900000000000000383e-02 1.975370000000000181e-01 -6.420949999999999491e+00 2.222330000000000183e+01 2.258515000000000327e+03
6.000000000000000472e-02 1.976430000000000131e-01 -4.918515000000000192e+00 2.628855000000000075e+01 2.259250000000000000e+03
6.099999999999999867e-02 1.977794999999999970e-01 -3.094702500000000356e+00 3.110944999999999894e+01 2.260199999999999818e+03
6.199999999999999956e-02 1.979410000000000058e-01 -1.017510000000000137e+00 3.649684999999999491e+01 2.261335000000000036e+03
6.300000000000000044e-02 1.981215000000000059e-01 1.237789999999999724e+00 4.224689999999999657e+01 2.262614999999999782e+03
6.400000000000000133e-02 1.983139999999999903e-01 3.593554499999999763e+00 4.815595000000000425e+01 2.263984999999999673e+03
6.500000000000000222e-02 1.985119999999999940e-01 5.974445000000000228e+00 5.403435000000000343e+01 2.265404999999999745e+03
6.600000000000000311e-02 1.987105000000000121e-01 8.311709999999999710e+00 5.971774999999999523e+01 2.266835000000000036e+03
6.700000000000000400e-02 1.989035000000000108e-01 1.054721999999999937e+01 6.507720000000000482e+01 2.268230000000000018e+03
6.800000000000000488e-02 1.990870000000000140e-01 1.263614499999999907e+01 7.002570000000000050e+01 2.269564999999999600e+03
6.900000000000000577e-02 1.992585000000000051e-01 1.454925000000000068e+01 7.452185000000000059e+01 2.270815000000000055e+03
7.000000000000000666e-02 1.994159999999999822e-01 1.627319999999999922e+01 7.856925000000001091e+01 2.271965000000000146e+03
7.100000000000000755e-02 1.995605000000000018e-01 1.780979999999999919e+01 8.221179999999999666e+01 2.273034999999999854e+03
7.200000000000000844e-02 1.996934999999999960e-01 1.917394999999999783e+01 8.552574999999998795e+01 2.274010000000000218e+03
7.300000000000000933e-02 1.998165000000000080e-01 2.039010000000000034e+01 8.860779999999999745e+01 2.274914999999999964e+03
7.399999999999999634e-02 1.999325000000000130e-01 2.148875000000000313e+01 9.156319999999999482e+01 2.275775000000000091e+03
7.499999999999999722e-02 2.000454999999999872e-01 2.250230000000000175e+01 9.449330000000000496e+01 2.276610000000000127e+03
7.599999999999999811e-02 2.001574999999999882e-01 2.346139999999999759e+01 9.748525000000000773e+01 2.277434999999999945e+03
7.699999999999999900e-02 2.002714999999999912e-01 2.439239999999999853e+01 1.006033999999999935e+02 2.278279999999999745e+03
7.799999999999999989e-02 2.003894999999999982e-01 2.531455000000000055e+01 1.038863999999999947e+02 2.279144999999999982e+03
7.900000000000000078e-02 2.005129999999999968e-01 2.623924999999999841e+01 1.073435000000000059e+02 2.280045000000000073e+03
8.000000000000000167e-02 2.006404999999999994e-01 2.716955000000000098e+01 1.109585000000000008e+02 2.280980000000000018e+03
8.100000000000000255e-02 2.007725000000000204e-01 2.810029999999999717e+01 1.146899999999999977e+02 2.281949999999999818e+03
8.200000000000000344e-02 2.009075000000000166e-01 2.901950000000000074e+01 1.184795000000000016e+02 2.282944999999999709e+03
8.300000000000000433e-02 2.010445000000000149e-01 2.990919999999999845e+01 1.222539999999999907e+02 2.283940000000000055e+03
8.400000000000000522e-02 2.011789999999999967e-01 3.074750000000000227e+01 1.259329999999999927e+02 2.284929999999999836e+03
8.500000000000000611e-02 2.013099999999999890e-01 3.151010000000000133e+01 1.294364999999999952e+02 2.285894999999999982e+03
8.600000000000000699e-02 2.014345000000000163e-01 3.217229999999999990e+01 1.326850000000000023e+02 2.286809999999999945e+03
8.700000000000000788e-02 2.015500000000000069e-01 3.271059999999999945e+01 1.356090000000000089e+02 2.287664999999999964e+03
8.800000000000000877e-02 2.016539999999999999e-01 3.310429999999999495e+01 1.381500000000000057e+02 2.288434999999999945e+03
8.899999999999999578e-02 2.017450000000000077e-01 3.333689999999999998e+01 1.402640000000000100e+02 2.289109999999999673e+03
8.999999999999999667e-02 2.018210000000000004e-01 3.339749999999999375e+01 1.419234999999999900e+02 2.289685000000000400e+03
9.099999999999999756e-02 2.018820000000000059e-01 3.328114999999999668e+01 1.431209999999999809e+02 2.290139999999999873e+03
9.199999999999999845e-02 2.019275000000000098e-01 3.298969999999999914e+01 1.438644999999999925e+02 2.290489999999999782e+03
9.299999999999999933e-02 2.019575000000000120e-01 3.253114999999999668e+01 1.441804999999999950e+02 2.290720000000000255e+03
9.400000000000000022e-02 2.019730000000000136e-01 3.191989999999999839e+01 1.441115000000000066e+02 2.290850000000000364e+03
9.500000000000000111e-02 2.019755000000000023e-01 3.117534999999999812e+01 1.437119999999999891e+02 2.290875000000000000e+03
9.600000000000000200e-02 2.019664999999999933e-01 3.032100000000000151e+01 1.430444999999999993e+02 2.290824999999999818e+03
9.700000000000000289e-02 2.019489999999999896e-01 2.938309999999999889e+01 1.421770000000000209e+02 2.290710000000000036e+03
9.800000000000000377e-02 2.019239999999999924e-01 2.838920000000000243e+01 1.411789999999999736e+02 2.290529999999999745e+03
9.900000000000000466e-02 2.018945000000000045e-01 2.736694999999999922e+01 1.401175000000000068e+02 2.290319999999999709e+03
1.000000000000000056e-01 2.018625000000000003e-01 2.634250000000000114e+01 1.390540000000000020e+02 2.290090000000000146e+03
1.010000000000000064e-01 2.018300000000000094e-01 2.533950000000000102e+01 1.380420000000000016e+02 2.289849999999999909e+03
1.020000000000000073e-01 2.017984999999999918e-01 2.437805000000000177e+01 1.371235000000000070e+02 2.289619999999999891e+03
1.030000000000000082e-01 2.017694999999999905e-01 2.347390000000000043e+01 1.363290000000000077e+02 2.289404999999999745e+03
1.040000000000000091e-01 2.017440000000000067e-01 2.263774999999999693e+01 1.356765000000000043e+02 2.289215000000000146e+03
1.050000000000000100e-01 2.017224999999999990e-01 2.187515000000000143e+01 1.351694999999999993e+02 2.289055000000000291e+03
1.059999999999999970e-01 2.017054999999999820e-01 2.118629999999999924e+01 1.347990000000000066e+02 2.288929999999999836e+03
1.069999999999999979e-01 2.016924999999999968e-01 2.056625000000000014e+01 1.345444999999999993e+02 2.288824999999999818e+03
1.079999999999999988e-01 2.016835000000000155e-01 2.000574999999999903e+01 1.343740000000000236e+02 2.288750000000000000e+03
1.089999999999999997e-01 2.016755000000000075e-01 1.949170000000000158e+01 1.342479999999999905e+02 2.288694999999999709e+03
1.100000000000000006e-01 2.016695000000000015e-01 1.900829999999999842e+01 1.341214999999999975e+02 2.288635000000000218e+03
1.110000000000000014e-01 2.016625000000000223e-01 1.853849999999999909e+01 1.339485000000000241e+02 2.288585000000000036e+03
1.120000000000000023e-01 2.016539999999999999e-01 1.806459999999999866e+01 1.336825000000000045e+02 2.288519999999999982e+03
1.130000000000000032e-01 2.016419999999999879e-01 1.757029999999999959e+01 1.332824999999999989e+02 2.288430000000000291e+03
1.140000000000000041e-01 2.016249999999999987e-01 1.704124999999999801e+01 1.327160000000000082e+02 2.288304999999999836e+03
1.150000000000000050e-01 2.016030000000000044e-01 1.646630000000000038e+01 1.319590000000000032e+02 2.288145000000000437e+03
1.160000000000000059e-01 2.015744999999999898e-01 1.583834999999999837e+01 1.309990000000000236e+02 2.287940000000000055e+03
1.170000000000000068e-01 2.015389999999999959e-01 1.515484999999999971e+01 1.298385000000000105e+02 2.287680000000000291e+03
1.180000000000000077e-01 2.014974999999999961e-01 1.441779999999999973e+01 1.284900000000000091e+02 2.287380000000000109e+03
1.190000000000000085e-01 2.014495000000000036e-01 1.363390000000000057e+01 1.269799999999999898e+02 2.287034999999999854e+03
1.200000000000000094e-01 2.013969999999999927e-01 1.281414999999999971e+01 1.253445000000000107e+02 2.286644999999999982e+03
1.209999999999999964e-01 2.013400000000000190e-01 1.197279500000000141e+01 1.236289999999999907e+02 2.286235000000000127e+03
1.219999999999999973e-01 2.012805000000000011e-01 1.112674499999999966e+01 1.218820000000000050e+02 2.285800000000000182e+03
1.229999999999999982e-01 2.012205000000000243e-01 1.029433500000000024e+01 1.201569999999999965e+02 2.285360000000000127e+03
1.239999999999999991e-01 2.011614999999999931e-01 9.494180000000000064e+00 1.185045000000000073e+02 2.284925000000000182e+03
1.250000000000000000e-01 2.011045000000000194e-01 8.744105000000001127e+00 1.169710000000000036e+02 2.284510000000000218e+03
1.260000000000000009e-01 2.010520000000000085e-01 8.060045000000000570e+00 1.155985000000000014e+02 2.284114999999999782e+03
1.270000000000000018e-01 2.010044999999999749e-01 7.455365000000000464e+00 1.144184999999999945e+02 2.283765000000000327e+03
1.280000000000000027e-01 2.009630000000000027e-01 6.940050000000000274e+00 1.134525000000000006e+02 2.283460000000000036e+03
1.290000000000000036e-01 2.009290000000000243e-01 6.520400000000000418e+00 1.127135000000000105e+02 2.283210000000000036e+03
1.300000000000000044e-01 2.009024999999999839e-01 6.198885000000000645e+00 1.122019999999999982e+02 2.283005000000000109e+03
1.310000000000000053e-01 2.008834999999999926e-01 5.974215000000000053e+00 1.119099999999999966e+02 2.282859999999999673e+03
1.320000000000000062e-01 2.008715000000000084e-01 5.841625000000000512e+00 1.118215000000000003e+02 2.282769999999999982e+03
1.330000000000000071e-01 2.008665000000000034e-01 5.793300000000000338e+00 1.119115000000000038e+02 2.282724999999999909e+03
1.340000000000000080e-01 2.008675000000000044e-01 5.818960000000000576e+00 1.121520000000000010e+02 2.282720000000000255e+03
1.350000000000000089e-01 2.008734999999999826e-01 5.906425000000000480e+00 1.125109999999999957e+02 2.282760000000000218e+03
1.360000000000000098e-01 2.008834999999999926e-01 6.042300000000000004e+00 1.129549999999999983e+02 2.282824999999999818e+03
1.370000000000000107e-01 2.008969999999999922e-01 6.212625000000000064e+00 1.134480000000000075e+02 2.282920000000000073e+03
1.380000000000000115e-01 2.009115000000000206e-01 6.403459999999999930e+00 1.139595000000000056e+02 2.283025000000000091e+03
1.390000000000000124e-01 2.009269999999999945e-01 6.601499999999999702e+00 1.144585000000000008e+02 2.283135000000000218e+03
1.400000000000000133e-01 2.009424999999999961e-01 6.794539999999999580e+00 1.149189999999999969e+02 2.283244999999999891e+03
1.410000000000000142e-01 2.009564999999999824e-01 6.971925000000000594e+00 1.153199999999999932e+02 2.283345000000000255e+03
1.420000000000000151e-01 2.009690000000000087e-01 7.124905000000000044e+00 1.156440000000000055e+02 2.283434999999999945e+03
1.430000000000000160e-01 2.009790000000000187e-01 7.246855000000000047e+00 1.158804999999999978e+02 2.283514999999999873e+03
1.440000000000000169e-01 2.009865000000000124e-01 7.333420000000000272e+00 1.160234999999999985e+02 2.283565000000000055e+03
1.450000000000000178e-01 2.009914999999999896e-01 7.382534999999999847e+00 1.160739999999999981e+02 2.283604999999999563e+03
1.459999999999999909e-01 2.009925000000000184e-01 7.394309999999999938e+00 1.160360000000000014e+02 2.283619999999999891e+03
1.469999999999999918e-01 2.009914999999999896e-01 7.370829999999999771e+00 1.159190000000000111e+02 2.283614999999999782e+03
1.479999999999999927e-01 2.009880000000000000e-01 7.315830000000000055e+00 1.157359999999999900e+02 2.283590000000000146e+03
1.489999999999999936e-01 2.009819999999999940e-01 7.234299999999999287e+00 1.155019999999999953e+02 2.283550000000000182e+03
1.499999999999999944e-01 2.009745000000000004e-01 7.132049999999999557e+00 1.152330000000000041e+02 2.283494999999999891e+03
1.509999999999999953e-01 2.009664999999999924e-01 7.015245000000000175e+00 1.149449999999999932e+02 2.283434999999999945e+03
1.519999999999999962e-01 2.009569999999999967e-01 6.889955000000000496e+00 1.146525000000000034e+02 2.283369999999999891e+03
1.529999999999999971e-01 2.009475000000000011e-01 6.761765000000000470e+00 1.143685000000000116e+02 2.283300000000000182e+03
1.539999999999999980e-01 2.009385000000000199e-01 6.635484999999999189e+00 1.141024999999999920e+02 2.283239999999999782e+03
1.549999999999999989e-01 2.009299999999999975e-01 6.514860000000000539e+00 1.138609999999999900e+02 2.283175000000000182e+03
1.559999999999999998e-01 2.009215000000000029e-01 6.402499999999999858e+00 1.136469999999999914e+02 2.283114999999999782e+03
1.570000000000000007e-01 2.009144999999999959e-01 6.299815000000000609e+00 1.134615000000000009e+02 2.283059999999999945e+03
1.580000000000000016e-01 2.009080000000000032e-01 6.207080000000000375e+00 1.132994999999999948e+02 2.283014999999999873e+03
1.590000000000000024e-01 2.009024999999999839e-01 6.123564999999999259e+00 1.131574999999999989e+02 2.282970000000000255e+03
