# t [s], A [cm^2], U [cm/s], P [cPa], c [cm/s]
1.000000000000000021e-03 7.054590000000000583e-01 5.689949999999999175e-03 9.615354999999999563e+01 1.717065000000000055e+03
2.000000000000000042e-03 7.054484999999999228e-01 -1.575250000000003731e-04 9.612255000000000393e+01 1.717059999999999945e+03
3.000000000000000062e-03 7.055160000000000320e-01 1.155685000000000046e-01 9.625475000000000136e+01 1.717090000000000146e+03
4.000000000000000083e-03 7.055599999999999650e-01 2.084016000000000202e-01 9.637184999999999491e+01 1.717119999999999891e+03
5.000000000000000104e-03 7.055120000000000280e-01 1.544925000000000048e-01 9.625450000000000728e+01 1.717095000000000027e+03
6.000000000000000125e-03 7.054354999999999931e-01 4.554199999999997139e-02 9.597679999999999723e+01 1.717035000000000082e+03
7.000000000000000146e-03 7.053644999999999499e-01 -6.499100000000002098e-02 9.562914999999999566e+01 1.716954999999999927e+03
8.000000000000000167e-03 7.052389999999999493e-01 -2.848199999999999621e-01 9.508365000000000578e+01 1.716829999999999927e+03
9.000000000000001055e-03 7.050395000000000412e-01 -6.502749999999999364e-01 9.425454999999999472e+01 1.716650000000000091e+03
1.000000000000000194e-02 7.047570000000000778e-01 -1.169445000000000068e+00 9.308570000000000277e+01 1.716384999999999991e+03
1.099999999999999936e-02 7.043664999999998955e-01 -1.872744999999999882e+00 9.148725000000000307e+01 1.716019999999999982e+03
1.200000000000000025e-02 7.038765000000000160e-01 -2.723539999999999850e+00 8.945144999999999413e+01 1.715550000000000182e+03
1.300000000000000114e-02 7.033584999999999976e-01 -3.569449999999999790e+00 8.715009999999999479e+01 1.715000000000000000e+03
1.400000000000000203e-02 7.029009999999999980e-01 -4.215545000000000542e+00 8.486924999999999386e+01 1.714440000000000055e+03
1.499999999999999944e-02 7.025590000000000446e-01 -4.530024000000000051e+00 8.285755000000000337e+01 1.713909999999999854e+03
1.600000000000000033e-02 7.023274999999999935e-01 -4.492795000000000094e+00 8.122245000000000914e+01 1.713450000000000045e+03
1.700000000000000122e-02 7.021600000000000064e-01 -4.178994999999999571e+00 7.991579999999999018e+01 1.713049999999999955e+03
1.800000000000000211e-02 7.019934999999999370e-01 -3.709179999999999922e+00 7.878475000000000250e+01 1.712694999999999936e+03
1.900000000000000300e-02 7.017784999999999718e-01 -3.195373500000000089e+00 7.765075000000000216e+01 1.712335000000000036e+03
2.000000000000000042e-02 7.014940000000000619e-01 -2.701881100000000036e+00 7.638235000000000241e+01 1.711950000000000045e+03
2.100000000000000130e-02 7.011499999999999400e-01 -2.232428000000000079e+00 7.493725000000000591e+01 1.711539999999999964e+03
2.200000000000000219e-02 7.007769999999999833e-01 -1.746054999999999913e+00 7.336015000000000441e+01 1.711094999999999800e+03
2.299999999999999961e-02 7.004099999999999770e-01 -1.191340000000000066e+00 7.174174999999999613e+01 1.710634999999999991e+03
2.400000000000000050e-02 7.000684999999999825e-01 -5.409999999999999254e-01 7.016479999999999961e+01 1.710180000000000064e+03
2.500000000000000139e-02 6.997495000000000243e-01 1.875150000000003203e-01 6.866009999999999991e+01 1.709735000000000127e+03
2.600000000000000228e-02 6.994294999999999263e-01 9.302300000000001123e-01 6.718729999999999336e+01 1.709300000000000182e+03
2.700000000000000316e-02 6.990709999999999980e-01 1.590915000000000079e+00 6.564249999999999829e+01 1.708849999999999909e+03
2.800000000000000058e-02 6.986335000000000184e-01 2.065325000000000077e+00 6.388665000000000305e+01 1.708360000000000127e+03
2.900000000000000147e-02 6.980870000000000131e-01 2.268710000000000448e+00 6.178764999999999930e+01 1.707795000000000073e+03
3.000000000000000236e-02 6.974225000000000563e-01 2.158904999999999852e+00 5.926234999999999786e+01 1.707140000000000100e+03
3.099999999999999978e-02 6.966544999999999543e-01 1.747974999999999834e+00 5.630715000000000003e+01 1.706389999999999873e+03
3.200000000000000067e-02 6.958199999999999941e-01 1.098359999999999559e+00 5.300594999999999857e+01 1.705554999999999836e+03
3.300000000000000155e-02 6.949689999999999479e-01 3.062949999999995399e-01 4.951485000000000269e+01 1.704664999999999964e+03
3.400000000000000244e-02 6.941519999999999913e-01 -5.210099999999995291e-01 4.603045000000000186e+01 1.703769999999999982e+03
3.500000000000000333e-02 6.934154999999999625e-01 -1.285675000000000345e+00 4.275430000000000064e+01 1.702910000000000082e+03
3.600000000000000422e-02 6.927919999999999634e-01 -1.912459999999999827e+00 3.986305000000000121e+01 1.702125000000000000e+03
3.700000000000000511e-02 6.923004999999999853e-01 -2.353730000000000100e+00 3.748930000000000007e+01 1.701460000000000036e+03
3.799999999999999906e-02 6.919500000000000650e-01 -2.587274999999999991e+00 3.571464999999999890e+01 1.700929999999999836e+03
3.899999999999999994e-02 6.917379999999999640e-01 -2.609675950000000189e+00 3.457290000000000418e+01 1.700554999999999836e+03
4.000000000000000083e-02 6.916575000000000362e-01 -2.427805000000000213e+00 3.406085000000000207e+01 1.700335000000000036e+03
4.100000000000000172e-02 6.917020000000000390e-01 -2.050990000000000091e+00 3.415180000000000149e+01 1.700275000000000091e+03
4.200000000000000261e-02 6.918630000000000058e-01 -1.485800000000000010e+00 3.480890000000000128e+01 1.700360000000000127e+03
4.300000000000000350e-02 6.921344999999999859e-01 -7.344299999999999162e-01 3.599380000000000024e+01 1.700589999999999918e+03
4.400000000000000439e-02 6.925120000000000164e-01 2.034750000000000725e-01 3.767079999999999984e+01 1.700954999999999927e+03
4.499999999999999833e-02 6.929899999999999949e-01 1.326900000000000190e+00 3.980510000000000304e+01 1.701444999999999936e+03
4.599999999999999922e-02 6.935605000000000242e-01 2.629100000000000215e+00 4.235895000000000010e+01 1.702045000000000073e+03
4.700000000000000011e-02 6.942135000000000389e-01 4.094450000000000145e+00 4.528690000000000282e+01 1.702755000000000109e+03
4.800000000000000100e-02 6.949339999999999407e-01 5.697269999999999612e+00 4.853249999999999886e+01 1.703555000000000064e+03
4.900000000000000189e-02 6.957055000000000877e-01 7.403135999999999939e+00 5.202839999999999776e+01 1.704429999999999836e+03
5.000000000000000278e-02 6.965084999999999749e-01 9.171481999999999246e+00 5.569830000000000325e+01 1.705355000000000018e+03
5.100000000000000366e-02 6.973244999999999028e-01 1.095964999999999989e+01 5.946240000000000236e+01 1.706325000000000045e+03
5.200000000000000455e-02 6.981364999999999377e-01 1.272672499999999829e+01 6.324264999999999759e+01 1.707309999999999945e+03
5.300000000000000544e-02 6.989305000000000101e-01 1.443685500000000133e+01 6.696914999999999907e+01 1.708295000000000073e+03
5.399999999999999939e-02 6.996944999999999970e-01 1.606181000000000125e+01 7.058494999999999209e+01 1.709259999999999991e+03
5.500000000000000028e-02 7.004234999999999767e-01 1.758180000000000121e+01 7.404894999999999072e+01 1.710204999999999927e+03
5.600000000000000117e-02 7.011144999999999738e-01 1.898570000000000135e+01 7.733729999999999905e+01 1.711105000000000018e+03
5.700000000000000205e-02 7.017679999999999474e-01 2.026999999999999957e+01 8.044275000000000375e+01 1.711974999999999909e+03
5.800000000000000294e-02 7.023874999999999424e-01 2.143750000000000000e+01 8.337229999999999563e+01 1.712799999999999955e+03
5.900000000000000383e-02 7.029790000000000205e-01 2.249564999999999770e+01 8.614459999999999695e+01 1.713579999999999927e+03
6.000000000000000472e-02 7.035479999999999512e-01 2.345530000000000115e+01 8.878629999999999711e+01 1.714335000000000036e+03
6.099999999999999867e-02 7.041024999999999645e-01 2.432890000000000086e+01 9.132855000000000700e+01 1.715059999999999945e+03
6.199999999999999956e-02 7.046479999999999411e-01 2.512944999999999851e+01 9.380340000000001055e+01 1.715769999999999982e+03
6.300000000000000044e-02 7.051905000000000534e-01 2.586925000000000097e+01 9.624105000000000132e+01 1.716460000000000036e+03
6.400000000000000133e-02 7.057355000000000711e-01 2.655870000000000175e+01 9.866689999999999827e+01 1.717150000000000091e+03
6.500000000000000222e-02 7.062855000000000105e-01 2.720560000000000045e+01 1.010979999999999990e+02 1.717835000000000036e+03
6.600000000000000311e-02 7.068400000000000238e-01 2.781455000000000055e+01 1.035443999999999960e+02 1.718525000000000091e+03
6.700000000000000400e-02 7.073985000000000412e-01 2.838629999999999853e+01 1.060045000000000073e+02 1.719210000000000036e+03
6.800000000000000488e-02 7.079575000000000173e-01 2.891825000000000045e+01 1.084685000000000059e+02 1.719904999999999973e+03
6.900000000000000577e-02 7.085114999999999608e-01 2.940465000000000018e+01 1.109170000000000016e+02 1.720590000000000146e+03
7.000000000000000666e-02 7.090540000000000731e-01 2.983735000000000070e+01 1.133239999999999981e+02 1.721259999999999991e+03
7.100000000000000755e-02 7.095780000000000420e-01 3.020694999999999908e+01 1.156585000000000036e+02 1.721920000000000073e+03
7.200000000000000844e-02 7.100759999999999295e-01 3.050334999999999752e+01 1.178880000000000052e+02 1.722559999999999945e+03
7.300000000000000933e-02 7.105414999999999370e-01 3.071719999999999828e+01 1.199789999999999992e+02 1.723160000000000082e+03
7.399999999999999634e-02 7.109674999999999745e-01 3.084015000000000128e+01 1.219020000000000010e+02 1.723715000000000146e+03
7.499999999999999722e-02 7.113494999999999679e-01 3.086570000000000036e+01 1.236310000000000002e+02 1.724220000000000027e+03
7.599999999999999811e-02 7.116824999999999957e-01 3.078965000000000174e+01 1.251454999999999984e+02 1.724679999999999836e+03
7.699999999999999900e-02 7.119664999999999466e-01 3.061025000000000063e+01 1.264319999999999879e+02 1.725075000000000045e+03
7.799999999999999989e-02 7.121980000000001088e-01 3.032829999999999870e+01 1.274825000000000017e+02 1.725404999999999973e+03
7.900000000000000078e-02 7.123790000000000955e-01 2.994709999999999894e+01 1.282969999999999970e+02 1.725675000000000182e+03
8.000000000000000167e-02 7.125105000000000466e-01 2.947259999999999991e+01 1.288824999999999932e+02 1.725889999999999873e+03
8.100000000000000255e-02 7.125965000000000771e-01 2.891300000000000026e+01 1.292510000000000048e+02 1.726034999999999854e+03
8.200000000000000344e-02 7.126399999999999402e-01 2.827864999999999895e+01 1.294205000000000041e+02 1.726130000000000109e+03
8.300000000000000433e-02 7.126470000000000304e-01 2.758155000000000001e+01 1.294134999999999991e+02 1.726170000000000073e+03
8.400000000000000522e-02 7.126230000000000064e-01 2.683534999999999826e+01 1.292549999999999955e+02 1.726170000000000073e+03
8.500000000000000611e-02 7.125740000000000407e-01 2.605424999999999969e+01 1.289750000000000227e+02 1.726125000000000000e+03
8.600000000000000699e-02 7.125070000000000014e-01 2.525294999999999845e+01 1.286020000000000039e+02 1.726055000000000064e+03
8.700000000000000788e-02 7.124274999999999913e-01 2.444559999999999889e+01 1.281655000000000086e+02 1.725964999999999918e+03
8.800000000000000877e-02 7.123410000000000020e-01 2.364564999999999984e+01 1.276924999999999955e+02 1.725855000000000018e+03
8.899999999999999578e-02 7.122535000000000949e-01 2.286485000000000056e+01 1.272090000000000032e+02 1.725740000000000009e+03
8.999999999999999667e-02 7.121690000000000520e-01 2.211270000000000024e+01 1.267360000000000042e+02 1.725619999999999891e+03
9.099999999999999756e-02 7.120900000000000007e-01 2.139654999999999774e+01 1.262904999999999944e+02 1.725505000000000109e+03
9.199999999999999845e-02 7.120189999999999575e-01 2.072070000000000078e+01 1.258845000000000027e+02 1.725389999999999873e+03
9.299999999999999933e-02 7.119560000000000333e-01 2.008695000000000164e+01 1.255225000000000080e+02 1.725289999999999964e+03
9.400000000000000022e-02 7.119014999999999649e-01 1.949419999999999931e+01 1.252060000000000031e+02 1.725195000000000164e+03
9.500000000000000111e-02 7.118534999999999169e-01 1.893905000000000172e+01 1.249309999999999974e+02 1.725115000000000009e+03
9.600000000000000200e-02 7.118100000000000538e-01 1.841595000000000226e+01 1.246885000000000048e+02 1.725034999999999854e+03
9.700000000000000289e-02 7.117679999999999563e-01 1.791795000000000115e+01 1.244654999999999916e+02 1.724969999999999800e+03
9.800000000000000377e-02 7.117245000000000932e-01 1.743670000000000186e+01 1.242489999999999952e+02 1.724900000000000091e+03
9.900000000000000466e-02 7.116755000000000164e-01 1.696365000000000123e+01 1.240229999999999961e+02 1.724829999999999927e+03
1.000000000000000056e-01 7.116190000000000015e-01 1.648989999999999867e+01 1.237710000000000008e+02 1.724759999999999991e+03
1.010000000000000064e-01 7.115499999999999048e-01 1.600724999999999909e+01 1.234780000000000086e+02 1.724675000000000182e+03
1.020000000000000073e-01 7.114679999999999893e-01 1.550830000000000020e+01 1.231310000000000002e+02 1.724585000000000036e+03
1.030000000000000082e-01 7.113694999999999879e-01 1.498720000000000141e+01 1.227194999999999965e+02 1.724470000000000027e+03
1.040000000000000091e-01 7.112545000000000117e-01 1.443959999999999866e+01 1.222365000000000066e+02 1.724345000000000027e+03
1.050000000000000100e-01 7.111220000000000319e-01 1.386325000000000074e+01 1.216784999999999997e+02 1.724204999999999927e+03
1.059999999999999970e-01 7.109734999999999250e-01 1.325799499999999931e+01 1.210469999999999970e+02 1.724039999999999964e+03
1.069999999999999979e-01 7.108105000000000118e-01 1.262587999999999866e+01 1.203470000000000084e+02 1.723855000000000018e+03
1.079999999999999988e-01 7.106354999999999755e-01 1.197106499999999940e+01 1.195879999999999939e+02 1.723655000000000200e+03
1.089999999999999997e-01 7.104519999999999724e-01 1.129955499999999979e+01 1.187830000000000013e+02 1.723450000000000045e+03
1.100000000000000006e-01 7.102634999999999366e-01 1.061911000000000094e+01 1.179484999999999957e+02 1.723230000000000018e+03
1.110000000000000014e-01 7.100750000000000117e-01 9.938499999999999446e+00 1.171034999999999968e+02 1.723005000000000109e+03
1.120000000000000023e-01 7.098904999999999799e-01 9.267440000000000566e+00 1.162680000000000007e+02 1.722785000000000082e+03
1.130000000000000032e-01 7.097145000000000259e-01 8.615800000000000125e+00 1.154619999999999891e+02 1.722559999999999945e+03
1.140000000000000041e-01 7.095525000000000304e-01 7.993380000000000152e+00 1.147059999999999889e+02 1.722355000000000018e+03
1.150000000000000050e-01 7.094065000000000509e-01 7.409065000000000012e+00 1.140185000000000031e+02 1.722164999999999964e+03
1.160000000000000059e-01 7.092814999999998982e-01 6.870795000000000208e+00 1.134155000000000086e+02 1.721990000000000009e+03
1.170000000000000068e-01 7.091780000000000861e-01 6.384865000000000457e+00 1.129089999999999918e+02 1.721839999999999918e+03
1.180000000000000077e-01 7.090985000000000760e-01 5.955824999999999925e+00 1.125080000000000098e+02 1.721720000000000027e+03
1.190000000000000085e-01 7.090445000000000775e-01 5.586285000000000167e+00 1.122175000000000011e+02 1.721619999999999891e+03
1.200000000000000094e-01 7.090134999999999632e-01 5.276825000000000543e+00 1.120374999999999943e+02 1.721554999999999836e+03
1.209999999999999964e-01 7.090060000000000251e-01 5.026115000000000776e+00 1.119639999999999986e+02 1.721515000000000100e+03
1.219999999999999973e-01 7.090194999999999137e-01 4.831020000000000536e+00 1.119904999999999973e+02 1.721500000000000000e+03
1.229999999999999982e-01 7.090509999999999868e-01 4.686904999999999433e+00 1.121050000000000040e+02 1.721509999999999991e+03
1.239999999999999991e-01 7.090974999999999362e-01 4.587914999999999743e+00 1.122949999999999875e+02 1.721545000000000073e+03
1.250000000000000000e-01 7.091560000000000086e-01 4.527325000000000266e+00 1.125459999999999923e+02 1.721595000000000027e+03
1.260000000000000009e-01 7.092229999999999368e-01 4.497899999999999565e+00 1.128419999999999987e+02 1.721660000000000082e+03
1.270000000000000018e-01 7.092950000000000088e-01 4.492230000000000167e+00 1.131674999999999898e+02 1.721735000000000127e+03
1.280000000000000027e-01 7.093679999999999986e-01 4.503040000000000376e+00 1.135070000000000050e+02 1.721815000000000055e+03
1.290000000000000036e-01 7.094409999999999883e-01 4.523450000000000415e+00 1.138474999999999966e+02 1.721900000000000091e+03
1.300000000000000044e-01 7.095100000000000851e-01 4.547200000000000131e+00 1.141754999999999995e+02 1.721985000000000127e+03
1.310000000000000053e-01 7.095730000000000093e-01 4.568770000000000664e+00 1.144814999999999969e+02 1.722059999999999945e+03
1.320000000000000062e-01 7.096299999999999830e-01 4.583550000000000679e+00 1.147565000000000026e+02 1.722134999999999991e+03
1.330000000000000071e-01 7.096780000000000310e-01 4.587830000000000297e+00 1.149960000000000093e+02 1.722200000000000045e+03
1.340000000000000080e-01 7.097175000000000011e-01 4.578870000000000218e+00 1.151949999999999932e+02 1.722259999999999991e+03
1.350000000000000089e-01 7.097485000000000044e-01 4.554869999999999308e+00 1.153520000000000039e+02 1.722304999999999836e+03
1.360000000000000098e-01 7.097700000000000120e-01 4.514929999999999666e+00 1.154675000000000011e+02 1.722345000000000027e+03
1.370000000000000107e-01 7.097835000000000116e-01 4.458985000000000198e+00 1.155424999999999898e+02 1.722365000000000009e+03
1.380000000000000115e-01 7.097895000000000731e-01 4.387724999999999653e+00 1.155799999999999983e+02 1.722384999999999991e+03
1.390000000000000124e-01 7.097890000000000033e-01 4.302459999999999951e+00 1.155850000000000080e+02 1.722394999999999982e+03
1.400000000000000133e-01 7.097824999999999829e-01 4.205035000000000522e+00 1.155614999999999952e+02 1.722394999999999982e+03
1.410000000000000142e-01 7.097720000000000695e-01 4.097669999999999924e+00 1.155144999999999982e+02 1.722389999999999873e+03
1.420000000000000151e-01 7.097584999999999589e-01 3.982814999999999550e+00 1.154495000000000005e+02 1.722375000000000000e+03
1.430000000000000160e-01 7.097424999999999429e-01 3.863019999999999676e+00 1.153725000000000023e+02 1.722360000000000127e+03
1.440000000000000169e-01 7.097255000000000091e-01 3.740755000000000052e+00 1.152874999999999943e+02 1.722340000000000146e+03
1.450000000000000178e-01 7.097084999999999644e-01 3.618299999999999628e+00 1.151984999999999957e+02 1.722320000000000164e+03
1.459999999999999909e-01 7.096919999999999895e-01 3.497640000000000082e+00 1.151094999999999970e+02 1.722300000000000182e+03
1.469999999999999918e-01 7.096755000000000146e-01 3.380345000000000155e+00 1.150219999999999914e+02 1.722275000000000091e+03
1.479999999999999927e-01 7.096605000000000274e-01 3.267534999999999634e+00 1.149379999999999882e+02 1.722255000000000109e+03
1.489999999999999936e-01 7.096459999999999990e-01 3.159850000000000048e+00 1.148569999999999993e+02 1.722235000000000127e+03
1.499999999999999944e-01 7.096320000000000405e-01 3.057479999999999976e+00 1.147785000000000082e+02 1.722215000000000146e+03
1.509999999999999953e-01 7.096175000000000122e-01 2.960199999999999942e+00 1.147009999999999934e+02 1.722190000000000055e+03
1.519999999999999962e-01 7.096025000000000249e-01 2.867454999999999643e+00 1.146219999999999999e+02 1.722175000000000182e+03
1.529999999999999971e-01 7.095864999999998979e-01 2.778459999999999930e+00 1.145384999999999991e+02 1.722150000000000091e+03
1.539999999999999980e-01 7.095679999999999765e-01 2.692295000000000105e+00 1.144470000000000027e+02 1.722125000000000000e+03
1.549999999999999989e-01 7.095470000000000388e-01 2.608035000000000103e+00 1.143460000000000036e+02 1.722099999999999909e+03
1.559999999999999998e-01 7.095225000000000559e-01 2.524849999999999817e+00 1.142315000000000111e+02 1.722065000000000055e+03
1.570000000000000007e-01 7.094949999999999868e-01 2.442079999999999806e+00 1.141020000000000039e+02 1.722034999999999854e+03
1.580000000000000016e-01 7.094635000000000247e-01 2.359339999999999993e+00 1.139565000000000055e+02 1.721994999999999891e+03
1.590000000000000024e-01 7.094279999999999475e-01 2.276514999999999844e+00 1.137944999999999993e+02 1.721954999999999927e+03
