# t [s], A [cm^2], U [cm/s], P [cPa], c [cm/s]
1.000000000000000021e-03 2.104955000000000020e-01 1.625645000000000007e-01 9.355279999999999063e+01 2.114180000000000291e+03
2.000000000000000042e-03 2.104535000000000156e-01 1.439829000000000025e+00 9.080310000000000059e+01 2.113889999999999873e+03
3.000000000000000062e-03 2.103244999999999976e-01 3.090383499999999728e+00 8.684085000000000321e+01 2.113045000000000073e+03
4.000000000000000083e-03 2.101394999999999791e-01 4.977250000000000618e+00 8.225775000000000148e+01 2.111854999999999563e+03
5.000000000000000104e-03 2.099354999999999971e-01 7.043070000000000164e+00 7.788530000000000086e+01 2.110550000000000182e+03
6.000000000000000125e-03 2.097350000000000048e-01 9.157035000000000480e+00 7.416069999999999141e+01 2.109284999999999854e+03
7.000000000000000146e-03 2.095465000000000244e-01 1.111464999999999925e+01 7.099684999999999491e+01 2.108110000000000127e+03
8.000000000000000167e-03 2.093710000000000016e-01 1.278596999999999895e+01 6.814874999999999261e+01 2.107050000000000182e+03
9.000000000000001055e-03 2.092140000000000111e-01 1.417755000000000010e+01 6.560550000000000637e+01 2.106110000000000127e+03
1.000000000000000194e-02 2.090790000000000148e-01 1.532864999999999966e+01 6.346620000000000061e+01 2.105314999999999600e+03
1.099999999999999936e-02 2.089685000000000015e-01 1.626050000000000040e+01 6.175499999999999545e+01 2.104659999999999854e+03
1.200000000000000025e-02 2.088794999999999957e-01 1.698894999999999911e+01 6.043584999999999496e+01 2.104144999999999982e+03
1.300000000000000114e-02 2.088099999999999956e-01 1.751989999999999981e+01 5.942759999999999820e+01 2.103750000000000000e+03
1.400000000000000203e-02 2.087545000000000095e-01 1.785200000000000031e+01 5.860244999999999749e+01 2.103445000000000164e+03
1.499999999999999944e-02 2.087080000000000046e-01 1.801545000000000130e+01 5.787850000000000250e+01 2.103194999999999709e+03
1.600000000000000033e-02 2.086735000000000118e-01 1.810630000000000095e+01 5.735040000000000049e+01 2.103005000000000109e+03
1.700000000000000122e-02 2.086574999999999958e-01 1.826554999999999751e+01 5.729894999999999783e+01 2.102925000000000182e+03
1.800000000000000211e-02 2.086705000000000088e-01 1.861309999999999931e+01 5.803645000000000209e+01 2.103010000000000218e+03
1.900000000000000300e-02 2.087180000000000146e-01 1.918479999999999919e+01 5.970029999999999859e+01 2.103289999999999964e+03
2.000000000000000042e-02 2.087974999999999970e-01 1.991315000000000168e+01 6.213420000000000698e+01 2.103755000000000109e+03
2.100000000000000130e-02 2.088969999999999994e-01 2.065724999999999767e+01 6.492005000000000337e+01 2.104355000000000018e+03
2.200000000000000219e-02 2.090000000000000191e-01 2.126004999999999967e+01 6.752649999999999864e+01 2.104980000000000018e+03
2.299999999999999961e-02 2.090899999999999981e-01 2.160450000000000159e+01 6.949180000000001201e+01 2.105529999999999745e+03
2.400000000000000050e-02 2.091544999999999932e-01 2.164744999999999919e+01 7.056430000000000291e+01 2.105939999999999600e+03
2.500000000000000139e-02 2.091895000000000004e-01 2.142235000000000156e+01 7.075239999999999441e+01 2.106175000000000182e+03
2.600000000000000228e-02 2.091979999999999951e-01 2.101505000000000223e+01 7.027930000000000632e+01 2.106244999999999891e+03
2.700000000000000316e-02 2.091890000000000138e-01 2.052524999999999977e+01 6.947124999999999773e+01 2.106204999999999927e+03
2.800000000000000058e-02 2.091704999999999814e-01 2.002949999999999875e+01 6.862944999999999141e+01 2.106099999999999909e+03
2.900000000000000147e-02 2.091510000000000036e-01 1.955930000000000035e+01 6.793264999999999532e+01 2.105980000000000018e+03
3.000000000000000236e-02 2.091319999999999846e-01 1.909890000000000043e+01 6.739979999999999905e+01 2.105869999999999891e+03
3.099999999999999978e-02 2.091140000000000221e-01 1.860050000000000026e+01 6.691469999999999629e+01 2.105764999999999873e+03
3.200000000000000067e-02 2.090909999999999991e-01 1.800959999999999894e+01 6.629640000000000555e+01 2.105630000000000109e+03
3.300000000000000155e-02 2.090585000000000082e-01 1.729149999999999920e+01 6.538644999999999641e+01 2.105434999999999945e+03
3.400000000000000244e-02 2.090134999999999910e-01 1.645069999999999766e+01 6.412415000000000020e+01 2.105175000000000182e+03
3.500000000000000333e-02 2.089579999999999771e-01 1.553669999999999973e+01 6.258695000000000164e+01 2.104855000000000018e+03
3.600000000000000422e-02 2.088964999999999850e-01 1.463574999999999982e+01 6.098245000000000005e+01 2.104485000000000127e+03
3.700000000000000511e-02 2.088375000000000092e-01 1.384949999999999903e+01 5.959700000000000131e+01 2.104135000000000218e+03
3.799999999999999906e-02 2.087924999999999920e-01 1.326895000000000024e+01 5.871685000000000088e+01 2.103854999999999563e+03
3.899999999999999994e-02 2.087694999999999967e-01 1.295159999999999911e+01 5.854905000000000115e+01 2.103704999999999927e+03
4.000000000000000083e-02 2.087735000000000007e-01 1.290790000000000148e+01 5.916649999999999920e+01 2.103710000000000036e+03
4.100000000000000172e-02 2.088050000000000184e-01 1.310040000000000049e+01 6.048959999999999582e+01 2.103880000000000109e+03
4.200000000000000261e-02 2.088589999999999891e-01 1.345364999999999966e+01 6.230675000000000097e+01 2.104189999999999600e+03
4.300000000000000350e-02 2.089274999999999882e-01 1.387069999999999936e+01 6.432255000000000678e+01 2.104585000000000036e+03
4.400000000000000439e-02 2.089995000000000047e-01 1.425189999999999912e+01 6.621854999999999336e+01 2.105015000000000327e+03
4.499999999999999833e-02 2.090639999999999998e-01 1.451079999999999970e+01 6.771065000000000111e+01 2.105404999999999745e+03
4.599999999999999922e-02 2.091120000000000201e-01 1.458544999999999980e+01 6.859174999999999045e+01 2.105699999999999818e+03
4.700000000000000011e-02 2.091375000000000040e-01 1.444229999999999947e+01 6.875260000000000105e+01 2.105859999999999673e+03
4.800000000000000100e-02 2.091365000000000030e-01 1.407489999999999952e+01 6.818090000000000828e+01 2.105869999999999891e+03
4.900000000000000189e-02 2.091089999999999893e-01 1.349810000000000088e+01 6.694325000000000614e+01 2.105715000000000146e+03
5.000000000000000278e-02 2.090575000000000072e-01 1.274000000000000021e+01 6.515649999999999409e+01 2.105414999999999964e+03
5.100000000000000366e-02 2.089854999999999907e-01 1.183441999999999972e+01 6.295819999999999794e+01 2.104994999999999891e+03
5.200000000000000455e-02 2.088980000000000004e-01 1.081515999999999877e+01 6.048194999999999766e+01 2.104474999999999909e+03
5.300000000000000544e-02 2.087984999999999980e-01 9.713144999999999030e+00 5.784214999999999662e+01 2.103885000000000218e+03
5.399999999999999939e-02 2.086914999999999742e-01 8.555934999999999846e+00 5.512969999999999970e+01 2.103250000000000000e+03
5.500000000000000028e-02 2.085805000000000020e-01 7.369349999999999845e+00 5.241514999999999702e+01 2.102579999999999927e+03
5.600000000000000117e-02 2.084679999999999866e-01 6.179585000000000328e+00 4.975784999999999769e+01 2.101909999999999854e+03
5.700000000000000205e-02 2.083575000000000010e-01 5.015825000000000422e+00 4.721590000000000487e+01 2.101244999999999891e+03
5.800000000000000294e-02 2.082519999999999927e-01 3.911184999999999690e+00 4.485419999999999874e+01 2.100605000000000018e+03
5.900000000000000383e-02 2.081534999999999913e-01 2.902870000000000061e+00 4.274840000000000373e+01 2.100010000000000218e+03
6.000000000000000472e-02 2.080664999999999876e-01 2.030786749999999863e+00 4.098425000000000296e+01 2.099480000000000018e+03
6.099999999999999867e-02 2.079934999999999978e-01 1.335113999999999912e+00 3.965279999999999916e+01 2.099034999999999854e+03
6.199999999999999956e-02 2.079400000000000137e-01 8.532775000000000221e-01 3.884219999999999828e+01 2.098699999999999818e+03
6.300000000000000044e-02 2.079084999999999961e-01 6.168580500000000466e-01 3.862884999999999991e+01 2.098489999999999782e+03
6.400000000000000133e-02 2.079015000000000168e-01 6.489434999999998954e-01 3.906920000000000215e+01 2.098430000000000291e+03
6.500000000000000222e-02 2.079215000000000091e-01 9.623150000000000315e-01 4.019355000000000189e+01 2.098534999999999854e+03
6.600000000000000311e-02 2.079695000000000016e-01 1.558546500000000057e+00 4.200270000000000437e+01 2.098805000000000291e+03
6.700000000000000400e-02 2.080450000000000077e-01 2.428125000000000089e+00 4.446795000000000186e+01 2.099239999999999782e+03
6.800000000000000488e-02 2.081474999999999853e-01 3.551361499999999616e+00 4.753374999999999773e+01 2.099835000000000036e+03
6.900000000000000577e-02 2.082745000000000013e-01 4.899989999999999846e+00 5.112229999999999563e+01 2.100579999999999927e+03
7.000000000000000666e-02 2.084225000000000105e-01 6.439205000000000290e+00 5.513989999999999725e+01 2.101454999999999927e+03
7.100000000000000755e-02 2.085885000000000100e-01 8.129894999999999428e+00 5.948375000000000057e+01 2.102440000000000055e+03
7.200000000000000844e-02 2.087680000000000091e-01 9.931089999999999307e+00 6.404885000000000161e+01 2.103515000000000327e+03
7.300000000000000933e-02 2.089580000000000048e-01 1.180231500000000011e+01 6.873494999999999777e+01 2.104650000000000091e+03
7.399999999999999634e-02 2.091530000000000056e-01 1.370565000000000211e+01 7.345210000000000150e+01 2.105819999999999709e+03
7.499999999999999722e-02 2.093504999999999949e-01 1.560769999999999946e+01 7.812574999999999648e+01 2.107014999999999873e+03
7.599999999999999811e-02 2.095474999999999977e-01 1.748089999999999833e+01 8.269979999999999620e+01 2.108210000000000036e+03
7.699999999999999900e-02 2.097414999999999974e-01 1.930419999999999803e+01 8.713795000000000357e+01 2.109385000000000218e+03
7.799999999999999989e-02 2.099320000000000075e-01 2.106345000000000312e+01 9.142369999999999663e+01 2.110545000000000073e+03
7.900000000000000078e-02 2.101175000000000126e-01 2.275049999999999883e+01 9.555744999999998868e+01 2.111675000000000182e+03
8.000000000000000167e-02 2.102975000000000261e-01 2.436280000000000001e+01 9.955349999999999966e+01 2.112779999999999745e+03
8.100000000000000255e-02 2.104734999999999800e-01 2.590160000000000196e+01 1.034344499999999982e+02 2.113855000000000018e+03
8.200000000000000344e-02 2.106449999999999989e-01 2.737080000000000268e+01 1.072275000000000063e+02 2.114904999999999745e+03
8.300000000000000433e-02 2.108140000000000014e-01 2.877534999999999954e+01 1.109590000000000032e+02 2.115940000000000055e+03
8.400000000000000522e-02 2.109805000000000152e-01 3.012044999999999817e+01 1.146510000000000105e+02 2.116965000000000146e+03
8.500000000000000611e-02 2.111454999999999860e-01 3.141009999999999991e+01 1.183190000000000026e+02 2.117980000000000018e+03
8.600000000000000699e-02 2.113094999999999835e-01 3.264695000000000391e+01 1.219695000000000107e+02 2.118989999999999782e+03
8.700000000000000788e-02 2.114729999999999943e-01 3.383194999999999908e+01 1.256020000000000039e+02 2.119989999999999782e+03
8.800000000000000877e-02 2.116345000000000032e-01 3.496399999999999864e+01 1.292069999999999936e+02 2.120989999999999782e+03
8.899999999999999578e-02 2.117950000000000110e-01 3.604054999999999609e+01 1.327690000000000055e+02 2.121980000000000018e+03
8.999999999999999667e-02 2.119535000000000169e-01 3.705754999999999910e+01 1.362685000000000173e+02 2.122954999999999927e+03
9.099999999999999756e-02 2.121085000000000054e-01 3.800960000000000605e+01 1.396825000000000045e+02 2.123914999999999964e+03
9.199999999999999845e-02 2.122600000000000042e-01 3.889034999999999798e+01 1.429844999999999970e+02 2.124849999999999909e+03
9.299999999999999933e-02 2.124064999999999981e-01 3.969299999999999784e+01 1.461490000000000009e+02 2.125755000000000109e+03
9.400000000000000022e-02 2.125469999999999859e-01 4.040999999999999659e+01 1.491490000000000009e+02 2.126625000000000000e+03
9.500000000000000111e-02 2.126800000000000079e-01 4.103365000000000151e+01 1.519590000000000032e+02 2.127449999999999818e+03
9.600000000000000200e-02 2.128049999999999942e-01 4.155665000000000475e+01 1.545534999999999854e+02 2.128224999999999909e+03
9.700000000000000289e-02 2.129205000000000125e-01 4.197190000000000509e+01 1.569110000000000014e+02 2.128944999999999709e+03
9.800000000000000377e-02 2.130254999999999788e-01 4.227344999999999686e+01 1.590120000000000005e+02 2.129605000000000018e+03
9.900000000000000466e-02 2.131204999999999905e-01 4.245669999999999789e+01 1.608404999999999916e+02 2.130190000000000055e+03
1.000000000000000056e-01 2.132030000000000036e-01 4.251895000000000380e+01 1.623865000000000123e+02 2.130710000000000036e+03
1.010000000000000064e-01 2.132740000000000191e-01 4.245969999999999800e+01 1.636469999999999914e+02 2.131159999999999854e+03
1.020000000000000073e-01 2.133329999999999949e-01 4.228095000000000425e+01 1.646229999999999905e+02 2.131534999999999854e+03
1.030000000000000082e-01 2.133794999999999997e-01 4.198739999999999384e+01 1.653249999999999886e+02 2.131829999999999927e+03
1.040000000000000091e-01 2.134150000000000214e-01 4.158624999999999972e+01 1.657680000000000007e+02 2.132059999999999945e+03
1.050000000000000100e-01 2.134389999999999898e-01 4.108719999999999573e+01 1.659755000000000109e+02 2.132215000000000146e+03
1.059999999999999970e-01 2.134534999999999905e-01 4.050185000000000457e+01 1.659745000000000061e+02 2.132315000000000055e+03
1.069999999999999979e-01 2.134584999999999955e-01 3.984340000000000259e+01 1.657950000000000159e+02 2.132355000000000018e+03
1.079999999999999988e-01 2.134559999999999791e-01 3.912570000000000192e+01 1.654710000000000036e+02 2.132349999999999909e+03
1.089999999999999997e-01 2.134475000000000122e-01 3.836345000000000027e+01 1.650345000000000084e+02 2.132300000000000182e+03
1.100000000000000006e-01 2.134340000000000126e-01 3.757049999999999557e+01 1.645190000000000055e+02 2.132224999999999909e+03
1.110000000000000014e-01 2.134165000000000090e-01 3.676050000000000040e+01 1.639535000000000196e+02 2.132119999999999891e+03
1.120000000000000023e-01 2.133964999999999890e-01 3.594545000000000101e+01 1.633634999999999877e+02 2.131994999999999891e+03
1.130000000000000032e-01 2.133744999999999947e-01 3.513595000000000113e+01 1.627705000000000268e+02 2.131864999999999782e+03
1.140000000000000041e-01 2.133519999999999861e-01 3.434069999999999823e+01 1.621920000000000073e+02 2.131724999999999909e+03
1.150000000000000050e-01 2.133295000000000052e-01 3.356620000000000203e+01 1.616390000000000100e+02 2.131590000000000146e+03
1.160000000000000059e-01 2.133079999999999976e-01 3.281690000000000396e+01 1.611175000000000068e+02 2.131454999999999927e+03
1.170000000000000068e-01 2.132870000000000044e-01 3.209494999999999720e+01 1.606279999999999859e+02 2.131324999999999818e+03
1.180000000000000077e-01 2.132664999999999977e-01 3.140039999999999765e+01 1.601670000000000016e+02 2.131199999999999818e+03
1.190000000000000085e-01 2.132470000000000199e-01 3.073134999999999906e+01 1.597259999999999991e+02 2.131074999999999818e+03
1.200000000000000094e-01 2.132284999999999875e-01 3.008400000000000318e+01 1.592930000000000064e+02 2.130954999999999927e+03
1.209999999999999964e-01 2.132090000000000096e-01 2.945329999999999870e+01 1.588530000000000086e+02 2.130835000000000036e+03
1.219999999999999973e-01 2.131889999999999896e-01 2.883299999999999841e+01 1.583899999999999864e+02 2.130710000000000036e+03
1.229999999999999982e-01 2.131679999999999964e-01 2.821625000000000227e+01 1.578854999999999791e+02 2.130579999999999927e+03
1.239999999999999991e-01 2.131450000000000011e-01 2.759595000000000198e+01 1.573224999999999909e+02 2.130434999999999945e+03
1.250000000000000000e-01 2.131195000000000173e-01 2.696515000000000128e+01 1.566840000000000259e+02 2.130275000000000091e+03
1.260000000000000009e-01 2.130905000000000160e-01 2.631765000000000043e+01 1.559565000000000055e+02 2.130099999999999909e+03
1.270000000000000018e-01 2.130575000000000108e-01 2.564819999999999922e+01 1.551285000000000025e+02 2.129894999999999982e+03
1.280000000000000027e-01 2.130210000000000159e-01 2.495295000000000130e+01 1.541935000000000002e+02 2.129670000000000073e+03
1.290000000000000036e-01 2.129794999999999883e-01 2.422970000000000113e+01 1.531485000000000127e+02 2.129414999999999964e+03
1.300000000000000044e-01 2.129334999999999978e-01 2.347800000000000153e+01 1.519950000000000045e+02 2.129135000000000218e+03
1.310000000000000053e-01 2.128835000000000033e-01 2.269944999999999879e+01 1.507404999999999973e+02 2.128824999999999818e+03
1.320000000000000062e-01 2.128289999999999904e-01 2.189750000000000085e+01 1.493960000000000150e+02 2.128494999999999891e+03
1.330000000000000071e-01 2.127709999999999879e-01 2.107744999999999891e+01 1.479784999999999968e+02 2.128144999999999982e+03
1.340000000000000080e-01 2.127100000000000102e-01 2.024615000000000009e+01 1.465070000000000050e+02 2.127769999999999982e+03
1.350000000000000089e-01 2.126470000000000027e-01 1.941179999999999950e+01 1.450045000000000073e+02 2.127380000000000109e+03
1.360000000000000098e-01 2.125829999999999942e-01 1.858354999999999890e+01 1.434960000000000093e+02 2.126984999999999673e+03
1.370000000000000107e-01 2.125184999999999991e-01 1.777094999999999914e+01 1.420074999999999932e+02 2.126590000000000146e+03
1.380000000000000115e-01 2.124550000000000050e-01 1.698369999999999891e+01 1.405620000000000118e+02 2.126199999999999818e+03
1.390000000000000124e-01 2.123929999999999985e-01 1.623100000000000165e+01 1.391850000000000023e+02 2.125819999999999709e+03
1.400000000000000133e-01 2.123340000000000227e-01 1.552135000000000176e+01 1.378949999999999818e+02 2.125454999999999927e+03
1.410000000000000142e-01 2.122785000000000089e-01 1.486189999999999856e+01 1.367110000000000127e+02 2.125109999999999673e+03
1.420000000000000151e-01 2.122275000000000134e-01 1.425849999999999973e+01 1.356460000000000150e+02 2.124795000000000073e+03
1.430000000000000160e-01 2.121810000000000085e-01 1.371525000000000105e+01 1.347079999999999984e+02 2.124500000000000000e+03
1.440000000000000169e-01 2.121394999999999809e-01 1.323479999999999990e+01 1.339014999999999986e+02 2.124244999999999891e+03
1.450000000000000178e-01 2.121035000000000004e-01 1.281769999999999854e+01 1.332270000000000039e+02 2.124019999999999982e+03
1.459999999999999909e-01 2.120730000000000115e-01 1.246310000000000073e+01 1.326810000000000116e+02 2.123824999999999818e+03
1.469999999999999918e-01 2.120480000000000143e-01 1.216874999999999929e+01 1.322549999999999955e+02 2.123664999999999964e+03
1.479999999999999927e-01 2.120275000000000076e-01 1.193100000000000094e+01 1.319404999999999859e+02 2.123534999999999854e+03
1.489999999999999936e-01 2.120115000000000194e-01 1.174514999999999887e+01 1.317249999999999943e+02 2.123434999999999945e+03
1.499999999999999944e-01 2.119999999999999940e-01 1.160580000000000034e+01 1.315949999999999989e+02 2.123359999999999673e+03
1.509999999999999953e-01 2.119920000000000138e-01 1.150694999999999979e+01 1.315360000000000014e+02 2.123304999999999836e+03
1.519999999999999962e-01 2.119870000000000088e-01 1.144229999999999947e+01 1.315345000000000084e+02 2.123269999999999982e+03
1.529999999999999971e-01 2.119845000000000201e-01 1.140535000000000032e+01 1.315765000000000100e+02 2.123250000000000000e+03
1.539999999999999980e-01 2.119840000000000058e-01 1.138984999999999914e+01 1.316480000000000246e+02 2.123244999999999891e+03
1.549999999999999989e-01 2.119854999999999934e-01 1.138970000000000127e+01 1.317379999999999995e+02 2.123250000000000000e+03
1.559999999999999998e-01 2.119869999999999810e-01 1.139935000000000009e+01 1.318335000000000150e+02 2.123260000000000218e+03
1.570000000000000007e-01 2.119894999999999974e-01 1.141359999999999886e+01 1.319265000000000043e+02 2.123269999999999982e+03
1.580000000000000016e-01 2.119920000000000138e-01 1.142804999999999893e+01 1.320090000000000146e+02 2.123284999999999854e+03
1.590000000000000024e-01 2.119944999999999746e-01 1.143894999999999840e+01 1.320745000000000005e+02 2.123295000000000073e+03
