# t [s], A [cm^2], U [cm/s], P [cPa], c [cm/s]
1.000000000000000021e-03 7.924824999999999786e-01 6.118249999999998689e-03 9.719464999999999577e+01 1.679380000000000109e+03
2.000000000000000042e-03 7.924674999999999914e-01 -5.324245000000000019e-03 9.716320000000000334e+01 1.679375000000000000e+03
3.000000000000000062e-03 7.925225000000000186e-01 7.398164999999999603e-02 9.725130000000000052e+01 1.679394999999999982e+03
4.000000000000000083e-03 7.925860000000000127e-01 1.759759999999999935e-01 9.738214999999999577e+01 1.679420000000000073e+03
5.000000000000000104e-03 7.925649999999999640e-01 1.705279999999999851e-01 9.735235000000000127e+01 1.679420000000000073e+03
6.000000000000000125e-03 7.924854999999999539e-01 7.845249999999998058e-02 9.714705000000000723e+01 1.679375000000000000e+03
7.000000000000000146e-03 7.924230000000000995e-01 3.738499999999977952e-03 9.690125000000000455e+01 1.679324999999999818e+03
8.000000000000000167e-03 7.923385000000000566e-01 -1.135034999999999794e-01 9.656600000000000250e+01 1.679259999999999991e+03
9.000000000000001055e-03 7.921894999999999909e-01 -3.433299999999999130e-01 9.604054999999999609e+01 1.679155000000000200e+03
1.000000000000000194e-02 7.919720000000000093e-01 -6.922999999999999154e-01 9.528315000000000623e+01 1.679000000000000000e+03
1.099999999999999936e-02 7.916665000000000507e-01 -1.181549999999999878e+00 9.423085000000000377e+01 1.678789999999999964e+03
1.200000000000000025e-02 7.912550000000000416e-01 -1.825049999999999839e+00 9.282099999999999795e+01 1.678500000000000000e+03
1.300000000000000114e-02 7.907684999999999853e-01 -2.558559999999999945e+00 9.109229999999999450e+01 1.678140000000000100e+03
1.400000000000000203e-02 7.902804999999999414e-01 -3.242264999999999731e+00 8.920884999999999820e+01 1.677740000000000009e+03
1.499999999999999944e-02 7.898640000000000105e-01 -3.733654499999999654e+00 8.737800000000000011e+01 1.677325000000000045e+03
1.600000000000000033e-02 7.895495000000000152e-01 -3.953768499999999797e+00 8.574970000000000425e+01 1.676944999999999936e+03
1.700000000000000122e-02 7.893200000000000216e-01 -3.905190000000000161e+00 8.436639999999999873e+01 1.676599999999999909e+03
1.800000000000000211e-02 7.891289999999999694e-01 -3.650579999999999714e+00 8.317194999999999538e+01 1.676284999999999854e+03
1.900000000000000300e-02 7.889239999999999586e-01 -3.275431000000000203e+00 8.205429999999999779e+01 1.675980000000000018e+03
2.000000000000000042e-02 7.886664999999999370e-01 -2.853126500000000121e+00 8.089775000000000205e+01 1.675675000000000182e+03
2.100000000000000130e-02 7.883455000000000323e-01 -2.422324500000000214e+00 7.962604999999999222e+01 1.675340000000000146e+03
2.200000000000000219e-02 7.879715000000000469e-01 -1.981394999999999795e+00 7.822400000000000375e+01 1.674980000000000018e+03
2.299999999999999961e-02 7.875739999999999963e-01 -1.499940000000000051e+00 7.673210000000000264e+01 1.674605000000000018e+03
2.400000000000000050e-02 7.871825000000000072e-01 -9.411750000000000949e-01 7.522005000000000052e+01 1.674220000000000027e+03
2.500000000000000139e-02 7.868155000000000010e-01 -2.850150000000000183e-01 7.375130000000000052e+01 1.673840000000000146e+03
2.600000000000000228e-02 7.864744999999999653e-01 4.570499999999999563e-01 7.235380000000000678e+01 1.673474999999999909e+03
2.700000000000000316e-02 7.861390000000000322e-01 1.239024999999999821e+00 7.100560000000000116e+01 1.673115000000000009e+03
2.800000000000000058e-02 7.857779999999999765e-01 1.988575000000000204e+00 6.963750000000000284e+01 1.672755000000000109e+03
2.900000000000000147e-02 7.853550000000000253e-01 2.622774999999999856e+00 6.815030000000000143e+01 1.672375000000000000e+03
3.000000000000000236e-02 7.848395000000000232e-01 3.067390000000000061e+00 6.644174999999999898e+01 1.671950000000000045e+03
3.099999999999999978e-02 7.842185000000000406e-01 3.274769999999999737e+00 6.443590000000000373e+01 1.671474999999999909e+03
3.200000000000000067e-02 7.834980000000000278e-01 3.235364999999999824e+00 6.210774999999999579e+01 1.670934999999999945e+03
3.300000000000000155e-02 7.827029999999999266e-01 2.979130000000000056e+00 5.949365000000000236e+01 1.670335000000000036e+03
3.400000000000000244e-02 7.818739999999999579e-01 2.566649999999999654e+00 5.668630000000000280e+01 1.669695000000000164e+03
3.500000000000000333e-02 7.810570000000000013e-01 2.074100000000000055e+00 5.381659999999999400e+01 1.669034999999999854e+03
3.600000000000000422e-02 7.802934999999999732e-01 1.576810000000000045e+00 5.102870000000000061e+01 1.668380000000000109e+03
3.700000000000000511e-02 7.796175000000000743e-01 1.137549999999999617e+00 4.845770000000000266e+01 1.667764999999999873e+03
3.799999999999999906e-02 7.790489999999999915e-01 8.002149999999996766e-01 4.621295000000000641e+01 1.667214999999999918e+03
3.899999999999999994e-02 7.785990000000000411e-01 5.892749999999997712e-01 4.437040000000000362e+01 1.666750000000000000e+03
4.000000000000000083e-02 7.782700000000000173e-01 5.135449999999999182e-01 4.297204999999999586e+01 1.666380000000000109e+03
4.100000000000000172e-02 7.780574999999999575e-01 5.721100000000001184e-01 4.203204999999999814e+01 1.666105000000000018e+03
4.200000000000000261e-02 7.779564999999999397e-01 7.606410000000000116e-01 4.154495000000000005e+01 1.665940000000000055e+03
4.300000000000000350e-02 7.779614999999999725e-01 1.076592499999999841e+00 4.149599999999999511e+01 1.665875000000000000e+03
4.400000000000000439e-02 7.780700000000000394e-01 1.522066500000000211e+00 4.186860000000000070e+01 1.665910000000000082e+03
4.499999999999999833e-02 7.782820000000000293e-01 2.103991999999999862e+00 4.264910000000000423e+01 1.666039999999999964e+03
4.599999999999999922e-02 7.785980000000000123e-01 2.831895999999999969e+00 4.382735000000000269e+01 1.666269999999999982e+03
4.700000000000000011e-02 7.790165000000000006e-01 3.714272499999999866e+00 4.539440000000000452e+01 1.666590000000000146e+03
4.800000000000000100e-02 7.795360000000000067e-01 4.754814499999999278e+00 4.733780000000000143e+01 1.667000000000000000e+03
4.900000000000000189e-02 7.801500000000000101e-01 5.949664000000000286e+00 4.963774999999999693e+01 1.667500000000000000e+03
5.000000000000000278e-02 7.808485000000000564e-01 7.286013000000000517e+00 5.226395000000000124e+01 1.668069999999999936e+03
5.100000000000000366e-02 7.816170000000000062e-01 8.742514999999999148e+00 5.517444999999999311e+01 1.668720000000000027e+03
5.200000000000000455e-02 7.824404999999999832e-01 1.029135499999999936e+01 5.831750000000000256e+01 1.669430000000000064e+03
5.300000000000000544e-02 7.833010000000000250e-01 1.190057499999999990e+01 6.163419999999999277e+01 1.670184999999999945e+03
5.399999999999999939e-02 7.841815000000000868e-01 1.353750499999999946e+01 6.506315000000000737e+01 1.670974999999999909e+03
5.500000000000000028e-02 7.850669999999999593e-01 1.517138500000000079e+01 6.854479999999999507e+01 1.671789999999999964e+03
5.600000000000000117e-02 7.859450000000000047e-01 1.677552000000000021e+01 7.202580000000000382e+01 1.672605000000000018e+03
5.700000000000000205e-02 7.868060000000000054e-01 1.832880000000000109e+01 7.546219999999999573e+01 1.673425000000000182e+03
5.800000000000000294e-02 7.876445000000000807e-01 1.981605000000000061e+01 7.882130000000000791e+01 1.674240000000000009e+03
5.900000000000000383e-02 7.884569999999999634e-01 2.122794999999999987e+01 8.208225000000000193e+01 1.675029999999999973e+03
6.000000000000000472e-02 7.892434999999999867e-01 2.256009999999999849e+01 8.523529999999999518e+01 1.675805000000000064e+03
6.099999999999999867e-02 7.900065000000000559e-01 2.381215000000000259e+01 8.828024999999999523e+01 1.676559999999999945e+03
6.199999999999999956e-02 7.907474999999999365e-01 2.498664999999999736e+01 9.122429999999999950e+01 1.677289999999999964e+03
6.300000000000000044e-02 7.914719999999999533e-01 2.608785000000000309e+01 9.407994999999999663e+01 1.678005000000000109e+03
6.400000000000000133e-02 7.921839999999999993e-01 2.712115000000000009e+01 9.686330000000000950e+01 1.678699999999999818e+03
6.500000000000000222e-02 7.928859999999999797e-01 2.809179999999999922e+01 9.958969999999999345e+01 1.679380000000000109e+03
6.600000000000000311e-02 7.935820000000000096e-01 2.900459999999999994e+01 1.022738499999999959e+02 1.680054999999999836e+03
6.700000000000000400e-02 7.942739999999999245e-01 2.986305000000000121e+01 1.049273500000000041e+02 1.680719999999999800e+03
6.800000000000000488e-02 7.949625000000000163e-01 3.066890000000000072e+01 1.075575000000000045e+02 1.681375000000000000e+03
6.900000000000000577e-02 7.956474999999999520e-01 3.142224999999999824e+01 1.101655000000000086e+02 1.682030000000000200e+03
7.000000000000000666e-02 7.963260000000000893e-01 3.212109999999999843e+01 1.127475000000000023e+02 1.682675000000000182e+03
7.100000000000000755e-02 7.969950000000000090e-01 3.276180000000000092e+01 1.152940000000000111e+02 1.683315000000000055e+03
7.200000000000000844e-02 7.976499999999999702e-01 3.333944999999999936e+01 1.177920000000000016e+02 1.683945000000000164e+03
7.300000000000000933e-02 7.982860000000000511e-01 3.384850000000000136e+01 1.202229999999999990e+02 1.684555000000000064e+03
7.399999999999999634e-02 7.988979999999999970e-01 3.428329999999999700e+01 1.225689999999999884e+02 1.685150000000000091e+03
7.499999999999999722e-02 7.994809999999999972e-01 3.463864999999999839e+01 1.248104999999999905e+02 1.685720000000000027e+03
7.599999999999999811e-02 8.000309999999999366e-01 3.491009999999999991e+01 1.269284999999999997e+02 1.686265000000000100e+03
7.699999999999999900e-02 8.005440000000000333e-01 3.509449999999999648e+01 1.289074999999999989e+02 1.686775000000000091e+03
7.799999999999999989e-02 8.010159999999999503e-01 3.518990000000000151e+01 1.307339999999999804e+02 1.687250000000000000e+03
7.900000000000000078e-02 8.014464999999999506e-01 3.519559999999999889e+01 1.323954999999999984e+02 1.687690000000000055e+03
8.000000000000000167e-02 8.018324999999999481e-01 3.511214999999999975e+01 1.338865000000000123e+02 1.688085000000000036e+03
8.100000000000000255e-02 8.021735000000000948e-01 3.494124999999999659e+01 1.352024999999999864e+02 1.688444999999999936e+03
8.200000000000000344e-02 8.024705000000000865e-01 3.468585000000000207e+01 1.363435000000000059e+02 1.688759999999999991e+03
8.300000000000000433e-02 8.027239999999999931e-01 3.434994999999999976e+01 1.373100000000000023e+02 1.689029999999999973e+03
8.400000000000000522e-02 8.029344999999999954e-01 3.393880000000000052e+01 1.381084999999999923e+02 1.689259999999999991e+03
8.500000000000000611e-02 8.031049999999999578e-01 3.345875000000000199e+01 1.387470000000000141e+02 1.689449999999999818e+03
8.600000000000000699e-02 8.032394999999999952e-01 3.291745000000000232e+01 1.392365000000000066e+02 1.689599999999999909e+03
8.700000000000000788e-02 8.033394999999999841e-01 3.232345000000000113e+01 1.395894999999999868e+02 1.689720000000000027e+03
8.800000000000000877e-02 8.034105000000000274e-01 3.168630000000000280e+01 1.398220000000000027e+02 1.689809999999999945e+03
8.899999999999999578e-02 8.034559999999999480e-01 3.101624999999999943e+01 1.399519999999999982e+02 1.689869999999999891e+03
8.999999999999999667e-02 8.034820000000000295e-01 3.032370000000000232e+01 1.399950000000000045e+02 1.689900000000000091e+03
9.099999999999999756e-02 8.034919999999999840e-01 2.961894999999999811e+01 1.399719999999999800e+02 1.689920000000000073e+03
9.199999999999999845e-02 8.034909999999999553e-01 2.891155000000000186e+01 1.398990000000000009e+02 1.689914999999999964e+03
9.299999999999999933e-02 8.034824999999999884e-01 2.821025000000000205e+01 1.397930000000000064e+02 1.689904999999999973e+03
9.400000000000000022e-02 8.034695000000000586e-01 2.752210000000000178e+01 1.396675000000000182e+02 1.689884999999999991e+03
9.500000000000000111e-02 8.034554999999999891e-01 2.685275000000000034e+01 1.395349999999999966e+02 1.689860000000000127e+03
9.600000000000000200e-02 8.034409999999999608e-01 2.620560000000000045e+01 1.394019999999999868e+02 1.689829999999999927e+03
9.700000000000000289e-02 8.034265000000000434e-01 2.558239999999999981e+01 1.392744999999999891e+02 1.689804999999999836e+03
9.800000000000000377e-02 8.034125000000000849e-01 2.498300000000000054e+01 1.391539999999999964e+02 1.689775000000000091e+03
9.900000000000000466e-02 8.033980000000000565e-01 2.440554999999999808e+01 1.390369999999999777e+02 1.689750000000000000e+03
1.000000000000000056e-01 8.033799999999999830e-01 2.384704999999999941e+01 1.389205000000000041e+02 1.689720000000000027e+03
1.010000000000000064e-01 8.033589999999999343e-01 2.330324999999999847e+01 1.387975000000000136e+02 1.689690000000000055e+03
1.020000000000000073e-01 8.033310000000000173e-01 2.276924999999999955e+01 1.386605000000000132e+02 1.689654999999999973e+03
1.030000000000000082e-01 8.032934999999999937e-01 2.223969999999999914e+01 1.384989999999999952e+02 1.689615000000000009e+03
1.040000000000000091e-01 8.032460000000000155e-01 2.170935000000000059e+01 1.383050000000000068e+02 1.689570000000000164e+03
1.050000000000000100e-01 8.031844999999999679e-01 2.117300000000000182e+01 1.380695000000000050e+02 1.689509999999999991e+03
1.059999999999999970e-01 8.031089999999999618e-01 2.062600000000000122e+01 1.377855000000000132e+02 1.689440000000000055e+03
1.069999999999999979e-01 8.030169999999999808e-01 2.006450000000000244e+01 1.374459999999999980e+02 1.689365000000000009e+03
1.079999999999999988e-01 8.029085000000000250e-01 1.948554999999999993e+01 1.370469999999999970e+02 1.689269999999999982e+03
1.089999999999999997e-01 8.027824999999999545e-01 1.888739999999999952e+01 1.365869999999999891e+02 1.689164999999999964e+03
1.100000000000000006e-01 8.026404999999999790e-01 1.826955000000000240e+01 1.360649999999999977e+02 1.689045000000000073e+03
1.110000000000000014e-01 8.024835000000000163e-01 1.763275000000000148e+01 1.354855000000000018e+02 1.688909999999999854e+03
1.120000000000000023e-01 8.023130000000000539e-01 1.697930000000000206e+01 1.348530000000000086e+02 1.688760000000000218e+03
1.130000000000000032e-01 8.021324999999999150e-01 1.631264999999999787e+01 1.341759999999999877e+02 1.688599999999999909e+03
1.140000000000000041e-01 8.019434999999999203e-01 1.563749999999999929e+01 1.334650000000000034e+02 1.688434999999999945e+03
1.150000000000000050e-01 8.017509999999999915e-01 1.495955000000000013e+01 1.327314999999999827e+02 1.688259999999999991e+03
1.160000000000000059e-01 8.015575000000000339e-01 1.428529999999999944e+01 1.319894999999999925e+02 1.688085000000000036e+03
1.170000000000000068e-01 8.013675000000000104e-01 1.362162999999999968e+01 1.312524999999999977e+02 1.687910000000000082e+03
1.180000000000000077e-01 8.011844999999999661e-01 1.297572000000000081e+01 1.305364999999999895e+02 1.687735000000000127e+03
1.190000000000000085e-01 8.010125000000000162e-01 1.235455500000000129e+01 1.298545000000000016e+02 1.687570000000000164e+03
1.200000000000000094e-01 8.008545000000000247e-01 1.176468500000000006e+01 1.292210000000000036e+02 1.687409999999999854e+03
1.209999999999999964e-01 8.007135000000000780e-01 1.121205999999999925e+01 1.286460000000000150e+02 1.687264999999999873e+03
1.219999999999999973e-01 8.005919999999999703e-01 1.070160500000000070e+01 1.281409999999999911e+02 1.687134999999999991e+03
1.229999999999999982e-01 8.004909999999999526e-01 1.023700000000000010e+01 1.277125000000000057e+02 1.687019999999999982e+03
1.239999999999999991e-01 8.004115000000000535e-01 9.820819999999999439e+00 1.273665000000000020e+02 1.686925000000000182e+03
1.250000000000000000e-01 8.003540000000000099e-01 9.454184999999998951e+00 1.271034999999999968e+02 1.686845000000000027e+03
1.260000000000000009e-01 8.003179999999999739e-01 9.136924999999999741e+00 1.269234999999999900e+02 1.686789999999999964e+03
1.270000000000000018e-01 8.003014999999999990e-01 8.867459999999999454e+00 1.268234999999999957e+02 1.686755000000000109e+03
1.280000000000000027e-01 8.003029999999999866e-01 8.643235000000000667e+00 1.267974999999999994e+02 1.686730000000000018e+03
1.290000000000000036e-01 8.003204999999999902e-01 8.460650000000001114e+00 1.268375000000000057e+02 1.686724999999999909e+03
1.300000000000000044e-01 8.003514999999999935e-01 8.315329999999999444e+00 1.269350000000000023e+02 1.686735000000000127e+03
1.310000000000000053e-01 8.003934999999999800e-01 8.202429999999999666e+00 1.270805000000000007e+02 1.686759999999999991e+03
1.320000000000000062e-01 8.004435000000000855e-01 8.116814999999999003e+00 1.272620000000000005e+02 1.686795000000000073e+03
1.330000000000000071e-01 8.004985000000000017e-01 8.053274999999999295e+00 1.274699999999999989e+02 1.686835000000000036e+03
1.340000000000000080e-01 8.005569999999999631e-01 8.006730000000001013e+00 1.276945000000000050e+02 1.686875000000000000e+03
1.350000000000000089e-01 8.006154999999999244e-01 7.972385000000000055e+00 1.279259999999999877e+02 1.686930000000000064e+03
1.360000000000000098e-01 8.006729999999999681e-01 7.945850000000000080e+00 1.281564999999999941e+02 1.686980000000000018e+03
1.370000000000000107e-01 8.007279999999999953e-01 7.923204999999999387e+00 1.283789999999999907e+02 1.687029999999999973e+03
1.380000000000000115e-01 8.007785000000000597e-01 7.901080000000000325e+00 1.285880000000000223e+02 1.687079999999999927e+03
1.390000000000000124e-01 8.008245000000000502e-01 7.876675000000000537e+00 1.287789999999999964e+02 1.687125000000000000e+03
1.400000000000000133e-01 8.008649999999999380e-01 7.847760000000000069e+00 1.289495000000000005e+02 1.687164999999999964e+03
1.410000000000000142e-01 8.008999999999999453e-01 7.812670000000000670e+00 1.290969999999999800e+02 1.687200000000000045e+03
1.420000000000000151e-01 8.009284999999999322e-01 7.770285000000000331e+00 1.292219999999999800e+02 1.687235000000000127e+03
1.430000000000000160e-01 8.009519999999999973e-01 7.720010000000000261e+00 1.293240000000000123e+02 1.687260000000000218e+03
1.440000000000000169e-01 8.009699999999999598e-01 7.661715000000000941e+00 1.294050000000000011e+02 1.687280000000000200e+03
1.450000000000000178e-01 8.009839999999999183e-01 7.595710000000000406e+00 1.294655000000000200e+02 1.687299999999999955e+03
1.459999999999999909e-01 8.009935000000000249e-01 7.522675000000000445e+00 1.295090000000000146e+02 1.687309999999999945e+03
1.469999999999999918e-01 8.009999999999999343e-01 7.443599999999999994e+00 1.295380000000000109e+02 1.687324999999999818e+03
1.479999999999999927e-01 8.010040000000000493e-01 7.359700000000000131e+00 1.295550000000000068e+02 1.687329999999999927e+03
1.489999999999999936e-01 8.010070000000000245e-01 7.272354999999999237e+00 1.295645000000000095e+02 1.687335000000000036e+03
1.499999999999999944e-01 8.010085000000000122e-01 7.183004999999999640e+00 1.295679999999999836e+02 1.687339999999999918e+03
1.509999999999999953e-01 8.010099999999999998e-01 7.093094999999999928e+00 1.295690000000000168e+02 1.687344999999999800e+03
1.519999999999999962e-01 8.010120000000000573e-01 7.003985000000000127e+00 1.295704999999999814e+02 1.687344999999999800e+03
1.529999999999999971e-01 8.010150000000000325e-01 6.916884999999999728e+00 1.295740000000000123e+02 1.687344999999999800e+03
1.539999999999999980e-01 8.010190000000000365e-01 6.832795000000000840e+00 1.295805000000000007e+02 1.687349999999999909e+03
1.549999999999999989e-01 8.010245000000000282e-01 6.752504999999999313e+00 1.295914999999999964e+02 1.687349999999999909e+03
1.559999999999999998e-01 8.010315000000000074e-01 6.676520000000000010e+00 1.296075000000000159e+02 1.687355000000000018e+03
1.570000000000000007e-01 8.010394999999999044e-01 6.605114999999999625e+00 1.296285000000000025e+02 1.687365000000000009e+03
1.580000000000000016e-01 8.010489999999999000e-01 6.538310000000000066e+00 1.296535000000000082e+02 1.687369999999999891e+03
1.590000000000000024e-01 8.010589999999999655e-01 6.475925000000000153e+00 1.296814999999999998e+02 1.687369999999999891e+03
