# t [s], A [cm^2], U [cm/s], P [cPa], c [cm/s]
1.000000000000000021e-03 1.260189999999999921e-01 1.823015000000000052e-01 8.883834999999999127e+01 1.901900000000000091e+03
2.000000000000000042e-03 1.260060000000000069e-01 1.362173000000000078e+00 8.642510000000000048e+01 1.901740000000000009e+03
3.000000000000000062e-03 1.259470000000000034e-01 2.842467000000000077e+00 8.328100000000000591e+01 1.901055000000000064e+03
4.000000000000000083e-03 1.258539999999999937e-01 4.496260999999999619e+00 7.966225000000000023e+01 1.900005000000000109e+03
5.000000000000000104e-03 1.257435000000000080e-01 6.283282999999999952e+00 7.611089999999998668e+01 1.898764999999999873e+03
6.000000000000000125e-03 1.256280000000000174e-01 8.137444999999999595e+00 7.298009999999999309e+01 1.897470000000000027e+03
7.000000000000000146e-03 1.255139999999999867e-01 9.946635000000000559e+00 7.032484999999999786e+01 1.896210000000000036e+03
8.000000000000000167e-03 1.254045000000000021e-01 1.160200999999999993e+01 6.800554999999999950e+01 1.895019999999999982e+03
9.000000000000001055e-03 1.253019999999999967e-01 1.305939500000000031e+01 6.590845000000000198e+01 1.893920000000000073e+03
1.000000000000000194e-02 1.252074999999999994e-01 1.433013000000000048e+01 6.403839999999999577e+01 1.892924999999999955e+03
1.099999999999999936e-02 1.251240000000000130e-01 1.543325000000000102e+01 6.243430000000000746e+01 1.892045000000000073e+03
1.200000000000000025e-02 1.250515000000000099e-01 1.637734999999999985e+01 6.109770000000000323e+01 1.891289999999999964e+03
1.300000000000000114e-02 1.249895000000000034e-01 1.716499999999999915e+01 5.999494999999999578e+01 1.890650000000000091e+03
1.400000000000000203e-02 1.249370000000000064e-01 1.779570000000000007e+01 5.907169999999999987e+01 1.890115000000000009e+03
1.499999999999999944e-02 1.248924999999999896e-01 1.826964999999999861e+01 5.826270000000000238e+01 1.889664999999999964e+03
1.600000000000000033e-02 1.248529999999999918e-01 1.860085000000000122e+01 5.752224999999999966e+01 1.889275000000000091e+03
1.700000000000000122e-02 1.248190000000000133e-01 1.883004999999999995e+01 5.686925000000000097e+01 1.888949999999999818e+03
1.800000000000000211e-02 1.247925000000000006e-01 1.902364999999999995e+01 5.640545000000000186e+01 1.888690000000000055e+03
1.900000000000000300e-02 1.247749999999999970e-01 1.925450000000000017e+01 5.628280000000000172e+01 1.888529999999999973e+03
2.000000000000000042e-02 1.247699999999999920e-01 1.957620000000000005e+01 5.663504999999999967e+01 1.888490000000000009e+03
2.100000000000000130e-02 1.247800000000000020e-01 2.000475000000000136e+01 5.751184999999999548e+01 1.888595000000000027e+03
2.200000000000000219e-02 1.248035000000000116e-01 2.051454999999999984e+01 5.884805000000000064e+01 1.888849999999999909e+03
2.299999999999999961e-02 1.248389999999999916e-01 2.104964999999999975e+01 6.047670000000000101e+01 1.889220000000000027e+03
2.400000000000000050e-02 1.248809999999999920e-01 2.154194999999999993e+01 6.217515000000000214e+01 1.889664999999999964e+03
2.500000000000000139e-02 1.249249999999999944e-01 2.193074999999999974e+01 6.372355000000000302e+01 1.890139999999999873e+03
2.600000000000000228e-02 1.249659999999999938e-01 2.217680000000000007e+01 6.495515000000000327e+01 1.890579999999999927e+03
2.700000000000000316e-02 1.250004999999999866e-01 2.226800000000000068e+01 6.578610000000000468e+01 1.890960000000000036e+03
2.800000000000000058e-02 1.250275000000000136e-01 2.221719999999999828e+01 6.621890000000000498e+01 1.891255000000000109e+03
2.900000000000000147e-02 1.250450000000000172e-01 2.205360000000000298e+01 6.632349999999999568e+01 1.891460000000000036e+03
3.000000000000000236e-02 1.250560000000000005e-01 2.181165000000000020e+01 6.620459999999999923e+01 1.891585000000000036e+03
3.099999999999999978e-02 1.250610000000000055e-01 2.152029999999999887e+01 6.596580000000000155e+01 1.891650000000000091e+03
3.200000000000000067e-02 1.250620000000000065e-01 2.119655000000000200e+01 6.568190000000001305e+01 1.891670000000000073e+03
3.300000000000000155e-02 1.250610000000000055e-01 2.084400000000000119e+01 6.538550000000000750e+01 1.891664999999999964e+03
3.400000000000000244e-02 1.250574999999999881e-01 2.045560000000000045e+01 6.506884999999999764e+01 1.891630000000000109e+03
3.500000000000000333e-02 1.250509999999999955e-01 2.001980000000000004e+01 6.469780000000000086e+01 1.891574999999999818e+03
3.600000000000000422e-02 1.250425000000000009e-01 1.952734999999999843e+01 6.423255000000000337e+01 1.891480000000000018e+03
3.700000000000000511e-02 1.250300000000000022e-01 1.897749999999999915e+01 6.364830000000000609e+01 1.891360000000000127e+03
3.799999999999999906e-02 1.250140000000000140e-01 1.838145000000000095e+01 6.295035000000000025e+01 1.891200000000000045e+03
3.899999999999999994e-02 1.249949999999999950e-01 1.776275000000000048e+01 6.217999999999999261e+01 1.891005000000000109e+03
4.000000000000000083e-02 1.249744999999999884e-01 1.715384999999999849e+01 6.141020000000000323e+01 1.890795000000000073e+03
4.100000000000000172e-02 1.249539999999999956e-01 1.659124999999999872e+01 6.073255000000000337e+01 1.890585000000000036e+03
4.200000000000000261e-02 1.249365000000000059e-01 1.610825000000000173e+01 6.023895000000000266e+01 1.890400000000000091e+03
4.300000000000000350e-02 1.249240000000000073e-01 1.572970000000000113e+01 6.000269999999999726e+01 1.890259999999999991e+03
4.400000000000000439e-02 1.249175000000000008e-01 1.546724999999999994e+01 6.006340000000000146e+01 1.890194999999999936e+03
4.499999999999999833e-02 1.249190000000000023e-01 1.531784999999999997e+01 6.041964999999999719e+01 1.890195000000000164e+03
4.599999999999999922e-02 1.249274999999999969e-01 1.526504999999999868e+01 6.102890000000000015e+01 1.890279999999999973e+03
4.700000000000000011e-02 1.249424999999999980e-01 1.528180000000000049e+01 6.181530000000000058e+01 1.890424999999999955e+03
4.800000000000000100e-02 1.249620000000000036e-01 1.533520000000000039e+01 6.268259999999999366e+01 1.890619999999999891e+03
4.900000000000000189e-02 1.249834999999999974e-01 1.539100000000000001e+01 6.352864999999999895e+01 1.890845000000000027e+03
5.000000000000000278e-02 1.250045000000000184e-01 1.541789999999999949e+01 6.425919999999999277e+01 1.891065000000000055e+03
5.100000000000000366e-02 1.250239999999999962e-01 1.539034999999999975e+01 6.479820000000000846e+01 1.891264999999999873e+03
5.200000000000000455e-02 1.250384999999999969e-01 1.529030000000000022e+01 6.509420000000000073e+01 1.891420000000000073e+03
5.300000000000000544e-02 1.250469999999999915e-01 1.510699999999999932e+01 6.512104999999999677e+01 1.891509999999999991e+03
5.399999999999999939e-02 1.250489999999999935e-01 1.483675000000000033e+01 6.487624999999999886e+01 1.891535000000000082e+03
5.500000000000000028e-02 1.250439999999999885e-01 1.448090000000000011e+01 6.437520000000000664e+01 1.891490000000000009e+03
5.600000000000000117e-02 1.250324999999999909e-01 1.404465000000000074e+01 6.364570000000000505e+01 1.891369999999999891e+03
5.700000000000000205e-02 1.250139999999999862e-01 1.353559999999999874e+01 6.272189999999999799e+01 1.891180000000000064e+03
5.800000000000000294e-02 1.249895000000000034e-01 1.296274999999999977e+01 6.164005000000000223e+01 1.890924999999999955e+03
5.900000000000000383e-02 1.249600000000000016e-01 1.233630000000000138e+01 6.043595000000000539e+01 1.890619999999999891e+03
6.000000000000000472e-02 1.249264999999999959e-01 1.166737499999999983e+01 5.914435000000000286e+01 1.890275000000000091e+03
6.099999999999999867e-02 1.248895000000000005e-01 1.096856000000000009e+01 5.779934999999999690e+01 1.889889999999999873e+03
6.199999999999999956e-02 1.248510000000000036e-01 1.025448500000000074e+01 5.643639999999999901e+01 1.889480000000000018e+03
6.300000000000000044e-02 1.248105000000000048e-01 9.541850000000000165e+00 5.509355000000000047e+01 1.889059999999999945e+03
6.400000000000000133e-02 1.247699999999999920e-01 8.850020000000000664e+00 5.381305000000000405e+01 1.888640000000000100e+03
6.500000000000000222e-02 1.247314999999999952e-01 8.200445000000000206e+00 5.264170000000000016e+01 1.888235000000000127e+03
6.600000000000000311e-02 1.246954999999999869e-01 7.616545000000000343e+00 5.163054999999999950e+01 1.887849999999999909e+03
6.700000000000000400e-02 1.246629999999999960e-01 7.122700000000000031e+00 5.083330000000000126e+01 1.887514999999999873e+03
6.800000000000000488e-02 1.246369999999999978e-01 6.743355000000000210e+00 5.030424999999999613e+01 1.887240000000000009e+03
6.900000000000000577e-02 1.246184999999999932e-01 6.501865000000000450e+00 5.009559999999999746e+01 1.887035000000000082e+03
7.000000000000000666e-02 1.246089999999999975e-01 6.419309999999999405e+00 5.025419999999999732e+01 1.886930000000000064e+03
7.100000000000000755e-02 1.246104999999999852e-01 6.513480000000000381e+00 5.081905000000000427e+01 1.886929999999999836e+03
7.200000000000000844e-02 1.246224999999999972e-01 6.797979999999999912e+00 5.181919999999999504e+01 1.887045000000000073e+03
7.300000000000000933e-02 1.246480000000000088e-01 7.281590000000000451e+00 5.327164999999999395e+01 1.887305000000000064e+03
7.399999999999999634e-02 1.246865000000000057e-01 7.967914999999999637e+00 5.518099999999999739e+01 1.887694999999999936e+03
7.499999999999999722e-02 1.247385000000000022e-01 8.855339999999999989e+00 5.753905000000000314e+01 1.888220000000000027e+03
7.599999999999999811e-02 1.248039999999999983e-01 9.937145000000001005e+00 6.032564999999999600e+01 1.888900000000000091e+03
7.699999999999999900e-02 1.248825000000000074e-01 1.120209499999999991e+01 6.351009999999999422e+01 1.889710000000000036e+03
7.799999999999999989e-02 1.249734999999999874e-01 1.263495499999999971e+01 6.705289999999999395e+01 1.890654999999999973e+03
7.900000000000000078e-02 1.250765000000000071e-01 1.421724999999999994e+01 7.090819999999999368e+01 1.891720000000000027e+03
8.000000000000000167e-02 1.251884999999999803e-01 1.592835000000000001e+01 7.502600000000001046e+01 1.892894999999999982e+03
8.100000000000000255e-02 1.253100000000000047e-01 1.774620000000000175e+01 7.935474999999999568e+01 1.894164999999999964e+03
8.200000000000000344e-02 1.254394999999999816e-01 1.964815000000000111e+01 8.384380000000000166e+01 1.895514999999999873e+03
8.300000000000000433e-02 1.255745000000000056e-01 2.161200000000000188e+01 8.844509999999999650e+01 1.896940000000000055e+03
8.400000000000000522e-02 1.257139999999999924e-01 2.361659999999999826e+01 9.311494999999999322e+01 1.898414999999999964e+03
8.500000000000000611e-02 1.258569999999999967e-01 2.564209999999999923e+01 9.781585000000001173e+01 1.899930000000000064e+03
8.600000000000000699e-02 1.260025000000000173e-01 2.767094999999999771e+01 1.025157499999999970e+02 1.901474999999999909e+03
8.700000000000000788e-02 1.261490000000000111e-01 2.968735000000000213e+01 1.071894999999999953e+02 1.903035000000000082e+03
8.800000000000000877e-02 1.262959999999999916e-01 3.167790000000000106e+01 1.118170000000000073e+02 1.904605000000000018e+03
8.899999999999999578e-02 1.264429999999999998e-01 3.363119999999999976e+01 1.163840000000000003e+02 1.906174999999999955e+03
8.999999999999999667e-02 1.265884999999999927e-01 3.553750000000000142e+01 1.208820000000000050e+02 1.907740000000000009e+03
9.099999999999999756e-02 1.267329999999999846e-01 3.738875000000000171e+01 1.253020000000000067e+02 1.909289999999999964e+03
9.199999999999999845e-02 1.268759999999999888e-01 3.917820000000000391e+01 1.296390000000000100e+02 1.910825000000000045e+03
9.299999999999999933e-02 1.270169999999999910e-01 4.089999999999999858e+01 1.338894999999999982e+02 1.912349999999999909e+03
9.400000000000000022e-02 1.271555000000000046e-01 4.254914999999999736e+01 1.380484999999999900e+02 1.913845000000000027e+03
9.500000000000000111e-02 1.272915000000000019e-01 4.412115000000000009e+01 1.421125000000000114e+02 1.915325000000000045e+03
9.600000000000000200e-02 1.274250000000000105e-01 4.561195000000000022e+01 1.460749999999999886e+02 1.916775000000000091e+03
9.700000000000000289e-02 1.275560000000000027e-01 4.701789999999999736e+01 1.499294999999999902e+02 1.918199999999999818e+03
9.800000000000000377e-02 1.276835000000000053e-01 4.833565000000000111e+01 1.536684999999999945e+02 1.919589999999999918e+03
9.900000000000000466e-02 1.278080000000000049e-01 4.956220000000000425e+01 1.572849999999999966e+02 1.920944999999999936e+03
1.000000000000000056e-01 1.279290000000000149e-01 5.069480000000000075e+01 1.607700000000000102e+02 1.922269999999999982e+03
1.010000000000000064e-01 1.280449999999999922e-01 5.173104999999999620e+01 1.641154999999999973e+02 1.923545000000000073e+03
1.020000000000000073e-01 1.281575000000000075e-01 5.266884999999999906e+01 1.673125000000000000e+02 1.924779999999999973e+03
1.030000000000000082e-01 1.282659999999999911e-01 5.350655000000000427e+01 1.703530000000000086e+02 1.925970000000000027e+03
1.040000000000000091e-01 1.283694999999999975e-01 5.424259999999999593e+01 1.732295000000000016e+02 1.927105000000000018e+03
1.050000000000000100e-01 1.284679999999999989e-01 5.487590000000000146e+01 1.759339999999999975e+02 1.928190000000000055e+03
1.059999999999999970e-01 1.285609999999999808e-01 5.540574999999999761e+01 1.784610000000000127e+02 1.929220000000000027e+03
1.069999999999999979e-01 1.286484999999999990e-01 5.583164999999999623e+01 1.808029999999999973e+02 1.930190000000000055e+03
1.079999999999999988e-01 1.287304999999999977e-01 5.615355000000000274e+01 1.829565000000000055e+02 1.931094999999999800e+03
1.089999999999999997e-01 1.288064999999999904e-01 5.637189999999999657e+01 1.849164999999999850e+02 1.931940000000000055e+03
1.100000000000000006e-01 1.288765000000000049e-01 5.648770000000000380e+01 1.866795000000000186e+02 1.932720000000000027e+03
1.110000000000000014e-01 1.289405000000000134e-01 5.650239999999999441e+01 1.882444999999999879e+02 1.933434999999999945e+03
1.120000000000000023e-01 1.289984999999999882e-01 5.641840000000000543e+01 1.896125000000000114e+02 1.934079999999999927e+03
1.130000000000000032e-01 1.290494999999999837e-01 5.623870000000000147e+01 1.907845000000000084e+02 1.934655000000000200e+03
1.140000000000000041e-01 1.290950000000000153e-01 5.596720000000000539e+01 1.917660000000000196e+02 1.935164999999999964e+03
1.150000000000000050e-01 1.291345000000000132e-01 5.560855000000000103e+01 1.925625000000000000e+02 1.935605000000000018e+03
1.160000000000000059e-01 1.291674999999999907e-01 5.516844999999999999e+01 1.931825000000000045e+02 1.935980000000000018e+03
1.170000000000000068e-01 1.291950000000000043e-01 5.465305000000000035e+01 1.936374999999999886e+02 1.936295000000000073e+03
1.180000000000000077e-01 1.292169999999999985e-01 5.406945000000000334e+01 1.939385000000000048e+02 1.936545000000000073e+03
1.190000000000000085e-01 1.292339999999999878e-01 5.342510000000000048e+01 1.941009999999999991e+02 1.936740000000000009e+03
1.200000000000000094e-01 1.292459999999999998e-01 5.272775000000000034e+01 1.941379999999999768e+02 1.936884999999999991e+03
1.209999999999999964e-01 1.292539999999999800e-01 5.198550000000000182e+01 1.940649999999999977e+02 1.936980000000000018e+03
1.219999999999999973e-01 1.292584999999999984e-01 5.120635000000000048e+01 1.938974999999999795e+02 1.937030000000000200e+03
1.229999999999999982e-01 1.292590000000000128e-01 5.039789999999999992e+01 1.936500000000000057e+02 1.937045000000000073e+03
1.239999999999999991e-01 1.292564999999999964e-01 4.956759999999999877e+01 1.933365000000000009e+02 1.937025000000000091e+03
1.250000000000000000e-01 1.292514999999999914e-01 4.872225000000000250e+01 1.929689999999999941e+02 1.936974999999999909e+03
1.260000000000000009e-01 1.292445000000000122e-01 4.786799999999999500e+01 1.925585000000000093e+02 1.936900000000000091e+03
1.270000000000000018e-01 1.292355000000000032e-01 4.701009999999999422e+01 1.921144999999999925e+02 1.936800000000000182e+03
1.280000000000000027e-01 1.292250000000000065e-01 4.615314999999999657e+01 1.916440000000000055e+02 1.936690000000000055e+03
1.290000000000000036e-01 1.292129999999999945e-01 4.530060000000000286e+01 1.911519999999999868e+02 1.936559999999999945e+03
1.300000000000000044e-01 1.292000000000000093e-01 4.445530000000000115e+01 1.906430000000000007e+02 1.936420000000000073e+03
1.310000000000000053e-01 1.291864999999999819e-01 4.361899999999999977e+01 1.901184999999999832e+02 1.936264999999999873e+03
1.320000000000000062e-01 1.291714999999999947e-01 4.279265000000000185e+01 1.895774999999999864e+02 1.936105000000000018e+03
1.330000000000000071e-01 1.291559999999999930e-01 4.197644999999999982e+01 1.890199999999999818e+02 1.935934999999999945e+03
1.340000000000000080e-01 1.291395000000000182e-01 4.116989999999999839e+01 1.884429999999999836e+02 1.935750000000000000e+03
1.350000000000000089e-01 1.291219999999999868e-01 4.037175000000000580e+01 1.878425000000000011e+02 1.935559999999999945e+03
1.360000000000000098e-01 1.291045000000000109e-01 3.958044999999999902e+01 1.872129999999999939e+02 1.935360000000000127e+03
1.370000000000000107e-01 1.290850000000000053e-01 3.879375000000000284e+01 1.865504999999999995e+02 1.935144999999999982e+03
1.380000000000000115e-01 1.290649999999999853e-01 3.800934999999999775e+01 1.858494999999999777e+02 1.934920000000000073e+03
1.390000000000000124e-01 1.290429999999999910e-01 3.722469999999999857e+01 1.851039999999999850e+02 1.934680000000000064e+03
1.400000000000000133e-01 1.290195000000000092e-01 3.643715000000000259e+01 1.843084999999999809e+02 1.934430000000000064e+03
1.410000000000000142e-01 1.289949999999999986e-01 3.564414999999999623e+01 1.834579999999999984e+02 1.934155000000000200e+03
1.420000000000000151e-01 1.289690000000000003e-01 3.484345000000000425e+01 1.825489999999999782e+02 1.933865000000000009e+03
1.430000000000000160e-01 1.289405000000000134e-01 3.403300000000000125e+01 1.815769999999999982e+02 1.933554999999999836e+03
1.440000000000000169e-01 1.289104999999999834e-01 3.321120000000000516e+01 1.805399999999999920e+02 1.933224999999999909e+03
1.450000000000000178e-01 1.288785000000000069e-01 3.237715000000000032e+01 1.794370000000000118e+02 1.932869999999999891e+03
1.459999999999999909e-01 1.288440000000000141e-01 3.153034999999999854e+01 1.782694999999999936e+02 1.932500000000000000e+03
1.469999999999999918e-01 1.288080000000000058e-01 3.067105000000000103e+01 1.770380000000000109e+02 1.932105000000000018e+03
1.479999999999999927e-01 1.287699999999999956e-01 2.980030000000000001e+01 1.757475000000000023e+02 1.931690000000000055e+03
1.489999999999999936e-01 1.287304999999999977e-01 2.891985000000000028e+01 1.744035000000000082e+02 1.931250000000000000e+03
1.499999999999999944e-01 1.286889999999999978e-01 2.803219999999999956e+01 1.730120000000000005e+02 1.930799999999999955e+03
1.509999999999999953e-01 1.286455000000000237e-01 2.714039999999999964e+01 1.715835000000000150e+02 1.930325000000000045e+03
1.519999999999999962e-01 1.286009999999999931e-01 2.624804999999999922e+01 1.701259999999999764e+02 1.929840000000000146e+03
1.529999999999999971e-01 1.285554999999999892e-01 2.535945000000000249e+01 1.686505000000000223e+02 1.929345000000000027e+03
1.539999999999999980e-01 1.285094999999999987e-01 2.447899999999999920e+01 1.671690000000000111e+02 1.928835000000000036e+03
1.549999999999999989e-01 1.284625000000000072e-01 2.361129999999999995e+01 1.656924999999999955e+02 1.928325000000000045e+03
1.559999999999999998e-01 1.284154999999999880e-01 2.276109999999999900e+01 1.642314999999999827e+02 1.927820000000000164e+03
1.570000000000000007e-01 1.283694999999999975e-01 2.193290000000000006e+01 1.627984999999999900e+02 1.927309999999999945e+03
1.580000000000000016e-01 1.283235000000000070e-01 2.113080000000000069e+01 1.614014999999999986e+02 1.926805000000000064e+03
1.590000000000000024e-01 1.282784999999999898e-01 2.035875000000000057e+01 1.600504999999999995e+02 1.926315000000000055e+03
