# t [s], A [cm^2], U [cm/s], P [cPa], c [cm/s]
1.000000000000000021e-03 4.497284999999999755e-01 3.959200000000002995e-03 9.624815000000000964e+01 1.628360000000000127e+03
2.000000000000000042e-03 4.497229999999999839e-01 1.692245000000000207e-03 9.622509999999999764e+01 1.628349999999999909e+03
3.000000000000000062e-03 4.497629999999999684e-01 1.029535500000000048e-01 9.633379999999999654e+01 1.628375000000000000e+03
4.000000000000000083e-03 4.497944999999999860e-01 1.904578499999999841e-01 9.644620000000000459e+01 1.628404999999999973e+03
5.000000000000000104e-03 4.497745000000000215e-01 1.570770499999999958e-01 9.638185000000000002e+01 1.628394999999999982e+03
6.000000000000000125e-03 4.497324999999999795e-01 6.027500000000002300e-02 9.616599999999999682e+01 1.628345000000000027e+03
7.000000000000000146e-03 4.496919999999999806e-01 -3.926599999999996760e-02 9.587815000000000509e+01 1.628279999999999973e+03
8.000000000000000167e-03 4.496259999999999701e-01 -2.130500000000000727e-01 9.544289999999999452e+01 1.628184999999999945e+03
9.000000000000001055e-03 4.495170000000000554e-01 -5.094750000000000112e-01 9.477340000000000941e+01 1.628029999999999973e+03
1.000000000000000194e-02 4.493599999999999817e-01 -9.351350000000000495e-01 9.382139999999999702e+01 1.627809999999999945e+03
1.099999999999999936e-02 4.491430000000000144e-01 -1.509830000000000005e+00 9.252219999999999800e+01 1.627500000000000000e+03
1.200000000000000025e-02 4.488619999999999832e-01 -2.227005000000000123e+00 9.083889999999999532e+01 1.627099999999999909e+03
1.300000000000000114e-02 4.485400000000000498e-01 -3.000649999999999817e+00 8.884459999999999980e+01 1.626605000000000018e+03
1.400000000000000203e-02 4.482240000000000113e-01 -3.685120000000000395e+00 8.672409999999999286e+01 1.626059999999999945e+03
1.499999999999999944e-02 4.479525000000000312e-01 -4.145326999999999984e+00 8.469210000000001060e+01 1.625519999999999982e+03
1.600000000000000033e-02 4.477419999999999733e-01 -4.312645500000000354e+00 8.290330000000000155e+01 1.625009999999999991e+03
1.700000000000000122e-02 4.475850000000000106e-01 -4.197646500000000280e+00 8.140690000000000737e+01 1.624555000000000064e+03
1.800000000000000211e-02 4.474550000000000471e-01 -3.868896499999999961e+00 8.015285000000000082e+01 1.624150000000000091e+03
1.900000000000000300e-02 4.473234999999999850e-01 -3.417447500000000193e+00 7.902930000000000632e+01 1.623764999999999873e+03
2.000000000000000042e-02 4.471680000000000099e-01 -2.922394499999999784e+00 7.791349999999999909e+01 1.623394999999999982e+03
2.100000000000000130e-02 4.469794999999999741e-01 -2.427799000000000262e+00 7.671585000000000321e+01 1.623005000000000109e+03
2.200000000000000219e-02 4.467634999999999801e-01 -1.937040000000000095e+00 7.540375000000000227e+01 1.622594999999999800e+03
2.299999999999999961e-02 4.465319999999999845e-01 -1.424930000000000030e+00 7.399944999999999595e+01 1.622164999999999964e+03
2.400000000000000050e-02 4.463000000000000300e-01 -8.602399999999998936e-01 7.255480000000000018e+01 1.621719999999999800e+03
2.500000000000000139e-02 4.460754999999999582e-01 -2.280349999999997657e-01 7.111830000000000496e+01 1.621269999999999982e+03
2.600000000000000228e-02 4.458579999999999766e-01 4.569550000000002221e-01 6.970799999999999841e+01 1.620829999999999927e+03
2.700000000000000316e-02 4.456364999999999910e-01 1.148769999999999847e+00 6.829795000000000016e+01 1.620385000000000218e+03
2.800000000000000058e-02 4.453934999999999977e-01 1.779165000000000108e+00 6.682174999999999443e+01 1.619924999999999955e+03
2.900000000000000147e-02 4.451104999999999645e-01 2.273194999999999855e+00 6.518860000000000809e+01 1.619430000000000064e+03
3.000000000000000236e-02 4.447729999999999739e-01 2.567045000000000243e+00 6.330844999999999345e+01 1.618884999999999991e+03
3.099999999999999978e-02 4.443745000000000056e-01 2.623584999999999834e+00 6.111854999999999905e+01 1.618269999999999982e+03
3.200000000000000067e-02 4.439189999999999525e-01 2.441570000000000018e+00 5.860405000000000086e+01 1.617570000000000164e+03
3.300000000000000155e-02 4.434219999999999828e-01 2.055924999999999780e+00 5.580780000000000030e+01 1.616809999999999945e+03
3.400000000000000244e-02 4.429060000000000219e-01 1.529900000000000038e+00 5.282630000000000337e+01 1.616000000000000000e+03
3.500000000000000333e-02 4.423954999999999971e-01 9.416649999999995302e-01 4.979385000000000616e+01 1.615159999999999854e+03
3.600000000000000422e-02 4.419180000000000330e-01 3.703199999999995384e-01 4.686154999999999404e+01 1.614345000000000027e+03
3.700000000000000511e-02 4.414930000000000243e-01 -1.153750000000002274e-01 4.417569999999999908e+01 1.613575000000000045e+03
3.799999999999999906e-02 4.411389999999999478e-01 -4.635599999999997500e-01 4.186169999999999902e+01 1.612889999999999873e+03
3.899999999999999994e-02 4.408634999999999637e-01 -6.408450000000001090e-01 4.001350000000000051e+01 1.612315000000000055e+03
4.000000000000000083e-02 4.406725000000000225e-01 -6.301649999999998641e-01 3.869095000000000084e+01 1.611869999999999891e+03
4.100000000000000172e-02 4.405675000000000008e-01 -4.262399999999999523e-01 3.792249999999999943e+01 1.611569999999999936e+03
4.200000000000000261e-02 4.405454999999999788e-01 -3.042749999999999622e-02 3.771169999999999334e+01 1.611414999999999964e+03
4.300000000000000350e-02 4.406045000000000100e-01 5.537104999999999944e-01 3.804520000000000124e+01 1.611409999999999854e+03
4.400000000000000439e-02 4.407404999999999795e-01 1.323090000000000099e+00 3.890035000000000309e+01 1.611555000000000064e+03
4.499999999999999833e-02 4.409515000000000517e-01 2.275669999999999860e+00 4.024994999999999834e+01 1.611840000000000146e+03
4.599999999999999922e-02 4.412329999999999863e-01 3.409279999999999866e+00 4.206479999999999819e+01 1.612260000000000218e+03
4.700000000000000011e-02 4.415814999999999602e-01 4.719285000000000174e+00 4.431324999999999648e+01 1.612800000000000182e+03
4.800000000000000100e-02 4.419925000000000104e-01 6.196278000000000397e+00 4.695949999999999847e+01 1.613465000000000146e+03
4.900000000000000189e-02 4.424580000000000179e-01 7.824350750000000687e+00 4.996134999999999593e+01 1.614230000000000018e+03
5.000000000000000278e-02 4.429695000000000160e-01 9.580659999999999954e+00 5.326910000000000167e+01 1.615094999999999800e+03
5.100000000000000366e-02 4.435179999999999678e-01 1.143613999999999997e+01 5.682569999999999766e+01 1.616034999999999854e+03
5.200000000000000455e-02 4.440930000000000155e-01 1.335759999999999970e+01 6.056839999999999691e+01 1.617045000000000073e+03
5.300000000000000544e-02 4.446824999999999806e-01 1.530988499999999952e+01 6.443195000000000050e+01 1.618095000000000027e+03
5.399999999999999939e-02 4.452780000000000071e-01 1.725872000000000028e+01 6.835229999999999961e+01 1.619174999999999955e+03
5.500000000000000028e-02 4.458710000000000173e-01 1.917304999999999993e+01 7.227045000000001096e+01 1.620275000000000091e+03
5.600000000000000117e-02 4.464534999999999476e-01 2.102665000000000006e+01 7.613590000000000657e+01 1.621375000000000000e+03
5.700000000000000205e-02 4.470205000000000428e-01 2.279935000000000045e+01 7.990915000000001100e+01 1.622454999999999927e+03
5.800000000000000294e-02 4.475694999999999535e-01 2.447724999999999795e+01 8.356289999999999907e+01 1.623519999999999982e+03
5.900000000000000383e-02 4.480994999999999839e-01 2.605270000000000152e+01 8.708205000000000950e+01 1.624559999999999945e+03
6.000000000000000472e-02 4.486105000000000231e-01 2.752319999999999922e+01 9.046394999999999698e+01 1.625559999999999945e+03
6.099999999999999867e-02 4.491049999999999764e-01 2.889054999999999751e+01 9.371474999999999511e+01 1.626539999999999964e+03
6.199999999999999956e-02 4.495839999999999836e-01 3.016000000000000014e+01 9.684805000000000064e+01 1.627484999999999900e+03
6.300000000000000044e-02 4.500525000000000220e-01 3.133894999999999698e+01 9.988320000000000221e+01 1.628400000000000091e+03
6.400000000000000133e-02 4.505124999999999824e-01 3.243580000000000041e+01 1.028422999999999945e+02 1.629304999999999836e+03
6.500000000000000222e-02 4.509680000000000355e-01 3.345924999999999727e+01 1.057472999999999956e+02 1.630190000000000055e+03
6.600000000000000311e-02 4.514209999999999612e-01 3.441734999999999900e+01 1.086179999999999950e+02 1.631059999999999945e+03
6.700000000000000400e-02 4.518730000000000246e-01 3.531669999999999732e+01 1.114705000000000013e+02 1.631920000000000073e+03
6.800000000000000488e-02 4.523260000000000058e-01 3.616190000000000282e+01 1.143149999999999977e+02 1.632784999999999854e+03
6.900000000000000577e-02 4.527800000000000158e-01 3.695530000000000115e+01 1.171554999999999893e+02 1.633644999999999982e+03
7.000000000000000666e-02 4.532324999999999826e-01 3.769655000000000200e+01 1.199879999999999995e+02 1.634500000000000000e+03
7.100000000000000755e-02 4.536824999999999886e-01 3.838294999999999391e+01 1.228035000000000139e+02 1.635355000000000018e+03
7.200000000000000844e-02 4.541269999999999474e-01 3.900955000000000439e+01 1.255850000000000080e+02 1.636200000000000045e+03
7.300000000000000933e-02 4.545620000000000216e-01 3.957004999999999484e+01 1.283120000000000118e+02 1.637025000000000091e+03
7.399999999999999634e-02 4.549830000000000263e-01 4.005675000000000097e+01 1.309590000000000032e+02 1.637835000000000036e+03
7.499999999999999722e-02 4.553869999999999862e-01 4.046195000000000164e+01 1.335000000000000000e+02 1.638619999999999891e+03
7.599999999999999811e-02 4.557689999999999797e-01 4.077804999999999325e+01 1.359085000000000036e+02 1.639365000000000009e+03
7.699999999999999900e-02 4.561260000000000314e-01 4.099840000000000373e+01 1.381589999999999918e+02 1.640069999999999936e+03
7.799999999999999989e-02 4.564539999999999709e-01 4.111775000000000091e+01 1.402300000000000182e+02 1.640724999999999909e+03
7.900000000000000078e-02 4.567514999999999770e-01 4.113235000000000241e+01 1.421034999999999968e+02 1.641329999999999927e+03
8.000000000000000167e-02 4.570164999999999922e-01 4.104044999999999987e+01 1.437665000000000077e+02 1.641875000000000000e+03
8.100000000000000255e-02 4.572475000000000289e-01 4.084239999999999782e+01 1.452099999999999795e+02 1.642360000000000127e+03
8.200000000000000344e-02 4.574445000000000316e-01 4.054054999999999609e+01 1.464320000000000164e+02 1.642779999999999973e+03
8.300000000000000433e-02 4.576080000000000148e-01 4.013935000000000031e+01 1.474345000000000141e+02 1.643134999999999991e+03
8.400000000000000522e-02 4.577390000000000070e-01 3.964520000000000266e+01 1.482249999999999943e+02 1.643429999999999836e+03
8.500000000000000611e-02 4.578400000000000247e-01 3.906640000000000157e+01 1.488154999999999859e+02 1.643664999999999964e+03
8.600000000000000699e-02 4.579140000000000432e-01 3.841275000000000261e+01 1.492220000000000084e+02 1.643845000000000027e+03
8.700000000000000788e-02 4.579630000000000090e-01 3.769539999999999935e+01 1.494635000000000105e+02 1.643974999999999909e+03
8.800000000000000877e-02 4.579904999999999671e-01 3.692654999999999887e+01 1.495615000000000236e+02 1.644050000000000182e+03
8.899999999999999578e-02 4.580000000000000182e-01 3.611884999999999479e+01 1.495395000000000039e+02 1.644094999999999800e+03
8.999999999999999667e-02 4.579954999999999998e-01 3.528520000000000323e+01 1.494214999999999804e+02 1.644099999999999909e+03
9.099999999999999756e-02 4.579809999999999715e-01 3.443824999999999648e+01 1.492309999999999945e+02 1.644085000000000036e+03
9.199999999999999845e-02 4.579579999999999762e-01 3.358979999999999677e+01 1.489909999999999854e+02 1.644045000000000073e+03
9.299999999999999933e-02 4.579320000000000057e-01 3.275045000000000073e+01 1.487219999999999800e+02 1.643994999999999891e+03
9.400000000000000022e-02 4.579029999999999490e-01 3.192904999999999660e+01 1.484420000000000073e+02 1.643924999999999955e+03
9.500000000000000111e-02 4.578750000000000320e-01 3.113269999999999982e+01 1.481639999999999873e+02 1.643860000000000127e+03
9.600000000000000200e-02 4.578479999999999772e-01 3.036635000000000062e+01 1.479000000000000057e+02 1.643795000000000073e+03
9.700000000000000289e-02 4.578225000000000211e-01 2.963260000000000360e+01 1.476550000000000011e+02 1.643720000000000027e+03
9.800000000000000377e-02 4.577999999999999847e-01 2.893200000000000216e+01 1.474314999999999998e+02 1.643659999999999854e+03
9.900000000000000466e-02 4.577784999999999771e-01 2.826295000000000002e+01 1.472275000000000205e+02 1.643599999999999909e+03
1.000000000000000056e-01 4.577584999999999571e-01 2.762215000000000131e+01 1.470374999999999943e+02 1.643539999999999964e+03
1.010000000000000064e-01 4.577370000000000605e-01 2.700489999999999924e+01 1.468534999999999968e+02 1.643480000000000018e+03
1.020000000000000073e-01 4.577130000000000365e-01 2.640540000000000020e+01 1.466645000000000039e+02 1.643420000000000073e+03
1.030000000000000082e-01 4.576850000000000085e-01 2.581719999999999970e+01 1.464585000000000150e+02 1.643355000000000018e+03
1.040000000000000091e-01 4.576510000000000300e-01 2.523344999999999771e+01 1.462244999999999777e+02 1.643284999999999854e+03
1.050000000000000100e-01 4.576084999999999736e-01 2.464770000000000039e+01 1.459490000000000123e+02 1.643204999999999927e+03
1.059999999999999970e-01 4.575575000000000614e-01 2.405380000000000251e+01 1.456220000000000141e+02 1.643110000000000127e+03
1.069999999999999979e-01 4.574955000000000549e-01 2.344644999999999868e+01 1.452334999999999923e+02 1.643005000000000109e+03
1.079999999999999988e-01 4.574225000000000096e-01 2.282144999999999868e+01 1.447774999999999750e+02 1.642875000000000000e+03
1.089999999999999997e-01 4.573369999999999935e-01 2.217600000000000193e+01 1.442479999999999905e+02 1.642724999999999909e+03
1.100000000000000006e-01 4.572404999999999942e-01 2.150844999999999985e+01 1.436449999999999818e+02 1.642559999999999945e+03
1.110000000000000014e-01 4.571319999999999828e-01 2.081905000000000072e+01 1.429689999999999941e+02 1.642369999999999891e+03
1.120000000000000023e-01 4.570135000000000169e-01 2.010934999999999917e+01 1.422245000000000061e+02 1.642164999999999964e+03
1.130000000000000032e-01 4.568860000000000143e-01 1.938250000000000028e+01 1.414194999999999993e+02 1.641944999999999936e+03
1.140000000000000041e-01 4.567504999999999482e-01 1.864289999999999736e+01 1.405635000000000048e+02 1.641704999999999927e+03
1.150000000000000050e-01 4.566099999999999604e-01 1.789630000000000010e+01 1.396684999999999945e+02 1.641454999999999927e+03
1.160000000000000059e-01 4.564664999999999973e-01 1.714925000000000210e+01 1.387489999999999952e+02 1.641190000000000055e+03
1.170000000000000068e-01 4.563220000000000054e-01 1.640909999999999869e+01 1.378190000000000168e+02 1.640924999999999955e+03
1.180000000000000077e-01 4.561794999999999600e-01 1.568334999999999901e+01 1.368950000000000102e+02 1.640659999999999854e+03
1.190000000000000085e-01 4.560410000000000297e-01 1.497970000000000113e+01 1.359925000000000068e+02 1.640394999999999982e+03
1.200000000000000094e-01 4.559090000000000087e-01 1.430569500000000005e+01 1.351250000000000000e+02 1.640139999999999873e+03
1.209999999999999964e-01 4.557849999999999957e-01 1.366798000000000002e+01 1.343079999999999927e+02 1.639894999999999982e+03
1.219999999999999973e-01 4.556715000000000071e-01 1.307257500000000050e+01 1.335509999999999877e+02 1.639659999999999854e+03
1.229999999999999982e-01 4.555690000000000017e-01 1.252437499999999915e+01 1.328654999999999973e+02 1.639450000000000045e+03
1.239999999999999991e-01 4.554785000000000084e-01 1.202697000000000038e+01 1.322565000000000168e+02 1.639259999999999991e+03
1.250000000000000000e-01 4.554004999999999859e-01 1.158266500000000043e+01 1.317290000000000134e+02 1.639089999999999918e+03
1.260000000000000009e-01 4.553360000000000185e-01 1.119227000000000061e+01 1.312845000000000084e+02 1.638940000000000055e+03
1.270000000000000018e-01 4.552835000000000076e-01 1.085539999999999949e+01 1.309214999999999804e+02 1.638809999999999945e+03
1.280000000000000027e-01 4.552420000000000355e-01 1.057020499999999963e+01 1.306349999999999909e+02 1.638704999999999927e+03
1.290000000000000036e-01 4.552110000000000323e-01 1.033382999999999896e+01 1.304209999999999923e+02 1.638625000000000000e+03
1.300000000000000044e-01 4.551895000000000246e-01 1.014245000000000019e+01 1.302699999999999818e+02 1.638559999999999945e+03
1.310000000000000053e-01 4.551760000000000250e-01 9.991569999999999396e+00 1.301730000000000018e+02 1.638509999999999991e+03
1.320000000000000062e-01 4.551680000000000170e-01 9.876235000000001207e+00 1.301209999999999809e+02 1.638474999999999909e+03
1.330000000000000071e-01 4.551650000000000418e-01 9.791190000000000282e+00 1.301034999999999968e+02 1.638450000000000045e+03
1.340000000000000080e-01 4.551649999999999863e-01 9.731155000000001110e+00 1.301109999999999900e+02 1.638440000000000055e+03
1.350000000000000089e-01 4.551675000000000582e-01 9.690984999999999516e+00 1.301340000000000146e+02 1.638429999999999836e+03
1.360000000000000098e-01 4.551699999999999635e-01 9.665894999999999015e+00 1.301639999999999873e+02 1.638429999999999836e+03
1.370000000000000107e-01 4.551724999999999799e-01 9.651529999999999276e+00 1.301945000000000050e+02 1.638425000000000182e+03
1.380000000000000115e-01 4.551735000000000086e-01 9.643950000000000244e+00 1.302185000000000059e+02 1.638425000000000182e+03
1.390000000000000124e-01 4.551729999999999388e-01 9.639800000000001035e+00 1.302325000000000159e+02 1.638425000000000182e+03
1.400000000000000133e-01 4.551705000000000334e-01 9.636385000000000645e+00 1.302325000000000159e+02 1.638414999999999964e+03
1.410000000000000142e-01 4.551655000000000006e-01 9.631505000000000649e+00 1.302169999999999845e+02 1.638410000000000082e+03
1.420000000000000151e-01 4.551574999999999926e-01 9.623485000000000511e+00 1.301845000000000141e+02 1.638400000000000091e+03
1.430000000000000160e-01 4.551479999999999970e-01 9.611264999999999503e+00 1.301365000000000123e+02 1.638384999999999991e+03
1.440000000000000169e-01 4.551359999999999850e-01 9.594205000000000538e+00 1.300724999999999909e+02 1.638365000000000009e+03
1.450000000000000178e-01 4.551220000000000265e-01 9.572079999999999700e+00 1.299950000000000045e+02 1.638345000000000027e+03
1.459999999999999909e-01 4.551065000000000249e-01 9.545104999999999507e+00 1.299060000000000059e+02 1.638320000000000164e+03
1.469999999999999918e-01 4.550899999999999945e-01 9.513709999999999667e+00 1.298075000000000045e+02 1.638289999999999964e+03
1.479999999999999927e-01 4.550719999999999765e-01 9.478635000000000588e+00 1.297030000000000030e+02 1.638264999999999873e+03
1.489999999999999936e-01 4.550545000000000284e-01 9.440815000000000623e+00 1.295939999999999941e+02 1.638235000000000127e+03
1.499999999999999944e-01 4.550370000000000248e-01 9.401170000000000471e+00 1.294845000000000255e+02 1.638204999999999927e+03
1.509999999999999953e-01 4.550195000000000212e-01 9.360699999999999577e+00 1.293754999999999882e+02 1.638170000000000073e+03
1.519999999999999962e-01 4.550035000000000052e-01 9.320450000000001012e+00 1.292699999999999818e+02 1.638139999999999873e+03
1.529999999999999971e-01 4.549870000000000303e-01 9.281134999999999025e+00 1.291684999999999945e+02 1.638110000000000127e+03
1.539999999999999980e-01 4.549730000000000163e-01 9.243594999999999118e+00 1.290734999999999957e+02 1.638085000000000036e+03
1.549999999999999989e-01 4.549590000000000023e-01 9.208249999999999602e+00 1.289840000000000089e+02 1.638059999999999945e+03
1.559999999999999998e-01 4.549465000000000314e-01 9.175385000000000346e+00 1.289014999999999986e+02 1.638029999999999973e+03
1.570000000000000007e-01 4.549349999999999783e-01 9.145170000000000243e+00 1.288240000000000123e+02 1.638009999999999991e+03
1.580000000000000016e-01 4.549239999999999950e-01 9.117494999999999905e+00 1.287515000000000214e+02 1.637985000000000127e+03
1.590000000000000024e-01 4.549130000000000118e-01 9.092114999999999725e+00 1.286829999999999927e+02 1.637964999999999918e+03
