# t [s], A [cm^2], U [cm/s], P [cPa], c [cm/s]
1.000000000000000021e-03 1.598324999999999885e-01 2.120374999999999899e-01 8.905969999999999231e+01 1.747449999999999818e+03
2.000000000000000042e-03 1.598140000000000116e-01 1.505466500000000041e+00 8.662415000000000020e+01 1.747279999999999973e+03
3.000000000000000062e-03 1.597290000000000099e-01 3.112874999999999837e+00 8.349184999999999945e+01 1.746505000000000109e+03
4.000000000000000083e-03 1.595929999999999849e-01 4.895882049999999985e+00 7.989639999999999986e+01 1.745315000000000055e+03
5.000000000000000104e-03 1.594299999999999884e-01 6.814194999999999780e+00 7.637194999999999823e+01 1.743889999999999873e+03
6.000000000000000125e-03 1.592580000000000107e-01 8.801944999999999908e+00 7.326830000000001064e+01 1.742404999999999973e+03
7.000000000000000146e-03 1.590894999999999948e-01 1.074722000000000044e+01 7.064959999999999241e+01 1.740954999999999927e+03
8.000000000000000167e-03 1.589269999999999849e-01 1.253773999999999944e+01 6.838795000000000357e+01 1.739585000000000036e+03
9.000000000000001055e-03 1.587744999999999851e-01 1.412038000000000082e+01 6.635875000000000057e+01 1.738315000000000055e+03
1.000000000000000194e-02 1.586349999999999982e-01 1.550150000000000006e+01 6.454579999999999984e+01 1.737164999999999964e+03
1.099999999999999936e-02 1.585094999999999976e-01 1.670214999999999961e+01 6.298149999999999693e+01 1.736139999999999873e+03
1.200000000000000025e-02 1.584004999999999996e-01 1.773365000000000080e+01 6.167109999999999559e+01 1.735259999999999991e+03
1.300000000000000114e-02 1.583065000000000166e-01 1.860244999999999749e+01 6.058889999999999532e+01 1.734505000000000109e+03
1.400000000000000203e-02 1.582270000000000065e-01 1.931390000000000029e+01 5.969695000000000107e+01 1.733875000000000000e+03
1.499999999999999944e-02 1.581599999999999950e-01 1.987164999999999893e+01 5.894785000000000252e+01 1.733355000000000018e+03
1.600000000000000033e-02 1.581029999999999935e-01 2.028310000000000102e+01 5.829359999999999786e+01 1.732914999999999964e+03
1.700000000000000122e-02 1.580540000000000000e-01 2.057254999999999967e+01 5.771635000000000559e+01 1.732545000000000073e+03
1.800000000000000211e-02 1.580134999999999734e-01 2.078969999999999985e+01 5.726140000000000185e+01 1.732240000000000009e+03
1.900000000000000300e-02 1.579844999999999999e-01 2.100270000000000081e+01 5.703860000000000241e+01 1.732029999999999973e+03
2.000000000000000042e-02 1.579695000000000127e-01 2.127734999999999843e+01 5.718200000000000216e+01 1.731930000000000064e+03
2.100000000000000130e-02 1.579740000000000033e-01 2.165449999999999875e+01 5.778910000000000480e+01 1.731974999999999909e+03
2.200000000000000219e-02 1.579979999999999996e-01 2.213584999999999781e+01 5.887064999999999770e+01 1.732175000000000182e+03
2.299999999999999961e-02 1.580409999999999870e-01 2.268390000000000128e+01 6.033305000000000007e+01 1.732529999999999973e+03
2.400000000000000050e-02 1.580980000000000163e-01 2.323460000000000036e+01 6.199804999999999922e+01 1.732994999999999891e+03
2.500000000000000139e-02 1.581629999999999980e-01 2.371565000000000012e+01 6.364759999999999707e+01 1.733534999999999854e+03
2.600000000000000228e-02 1.582279999999999798e-01 2.406575000000000131e+01 6.507689999999999486e+01 1.734075000000000045e+03
2.700000000000000316e-02 1.582864999999999966e-01 2.424730000000000274e+01 6.613859999999999673e+01 1.734559999999999945e+03
2.800000000000000058e-02 1.583335000000000159e-01 2.425220000000000198e+01 6.676830000000001064e+01 1.734954999999999927e+03
2.900000000000000147e-02 1.583664999999999934e-01 2.409890000000000043e+01 6.698605000000000587e+01 1.735244999999999891e+03
3.000000000000000236e-02 1.583859999999999990e-01 2.382385000000000019e+01 6.687739999999999441e+01 1.735420000000000073e+03
3.099999999999999978e-02 1.583944999999999936e-01 2.346969999999999956e+01 6.656199999999999761e+01 1.735505000000000109e+03
3.200000000000000067e-02 1.583944999999999936e-01 2.307410000000000139e+01 6.615909999999999513e+01 1.735525000000000091e+03
3.300000000000000155e-02 1.583900000000000030e-01 2.266244999999999976e+01 6.575970000000000937e+01 1.735500000000000000e+03
3.400000000000000244e-02 1.583839999999999970e-01 2.224459999999999837e+01 6.541105000000000302e+01 1.735450000000000045e+03
3.500000000000000333e-02 1.583764999999999756e-01 2.181685000000000230e+01 6.511544999999999561e+01 1.735394999999999982e+03
3.600000000000000422e-02 1.583684999999999954e-01 2.136684999999999945e+01 6.484059999999999491e+01 1.735329999999999927e+03
3.700000000000000511e-02 1.583585000000000131e-01 2.088044999999999973e+01 6.453785000000000593e+01 1.735255000000000109e+03
3.799999999999999906e-02 1.583459999999999868e-01 2.034830000000000183e+01 6.416214999999999691e+01 1.735159999999999854e+03
3.899999999999999994e-02 1.583299999999999985e-01 1.977105000000000246e+01 6.368940000000000623e+01 1.735029999999999973e+03
4.000000000000000083e-02 1.583100000000000063e-01 1.916134999999999877e+01 6.312715000000000032e+01 1.734875000000000000e+03
4.100000000000000172e-02 1.582870000000000110e-01 1.854359999999999786e+01 6.251670000000000016e+01 1.734694999999999936e+03
4.200000000000000261e-02 1.582629999999999870e-01 1.795004999999999740e+01 6.192690000000000339e+01 1.734500000000000000e+03
4.300000000000000350e-02 1.582395000000000052e-01 1.741570000000000107e+01 6.144115000000000038e+01 1.734315000000000055e+03
4.400000000000000439e-02 1.582210000000000005e-01 1.697179999999999822e+01 6.114085000000000036e+01 1.734160000000000082e+03
4.499999999999999833e-02 1.582095000000000029e-01 1.664090000000000202e+01 6.108934999999999604e+01 1.734065000000000055e+03
4.599999999999999922e-02 1.582075000000000009e-01 1.643244999999999933e+01 6.131869999999999976e+01 1.734039999999999964e+03
4.700000000000000011e-02 1.582165000000000099e-01 1.634154999999999802e+01 6.182359999999999900e+01 1.734105000000000018e+03
4.800000000000000100e-02 1.582350000000000145e-01 1.634955000000000069e+01 6.256135000000000446e+01 1.734250000000000000e+03
4.900000000000000189e-02 1.582625000000000004e-01 1.642714999999999748e+01 6.345785000000000053e+01 1.734465000000000146e+03
5.000000000000000278e-02 1.582970000000000210e-01 1.653815000000000168e+01 6.441875000000000284e+01 1.734734999999999900e+03
5.100000000000000366e-02 1.583335000000000159e-01 1.664405000000000001e+01 6.534194999999999709e+01 1.735025000000000091e+03
5.200000000000000455e-02 1.583700000000000108e-01 1.670860000000000056e+01 6.613025000000000375e+01 1.735315000000000055e+03
5.300000000000000544e-02 1.584019999999999873e-01 1.670069999999999766e+01 6.670189999999999486e+01 1.735575000000000045e+03
5.399999999999999939e-02 1.584260000000000113e-01 1.659709999999999752e+01 6.699770000000000891e+01 1.735775000000000091e+03
5.500000000000000028e-02 1.584399999999999975e-01 1.638309999999999889e+01 6.698380000000000223e+01 1.735889999999999873e+03
5.600000000000000117e-02 1.584419999999999995e-01 1.605249999999999844e+01 6.665200000000000102e+01 1.735914999999999964e+03
5.700000000000000205e-02 1.584325000000000039e-01 1.560650000000000048e+01 6.601595000000000368e+01 1.735840000000000146e+03
5.800000000000000294e-02 1.584099999999999953e-01 1.505229999999999890e+01 6.510620000000000118e+01 1.735664999999999964e+03
5.900000000000000383e-02 1.583760000000000168e-01 1.440150000000000041e+01 6.396459999999999724e+01 1.735394999999999982e+03
6.000000000000000472e-02 1.583315000000000139e-01 1.366859999999999964e+01 6.263875000000000171e+01 1.735039999999999964e+03
6.099999999999999867e-02 1.582780000000000020e-01 1.286979999999999968e+01 6.117784999999999940e+01 1.734615000000000009e+03
6.199999999999999956e-02 1.582179999999999975e-01 1.202239999999999931e+01 5.963004999999999711e+01 1.734125000000000000e+03
6.300000000000000044e-02 1.581529999999999880e-01 1.114416499999999921e+01 5.804064999999999941e+01 1.733594999999999800e+03
6.400000000000000133e-02 1.580840000000000023e-01 1.025374000000000052e+01 5.645250000000000057e+01 1.733045000000000073e+03
6.500000000000000222e-02 1.580135000000000012e-01 9.370185000000001097e+00 5.490614999999999668e+01 1.732469999999999800e+03
6.600000000000000311e-02 1.579440000000000011e-01 8.513510000000000133e+00 5.344124999999999659e+01 1.731909999999999854e+03
6.700000000000000400e-02 1.578765000000000029e-01 7.704354999999999620e+00 5.209709999999999752e+01 1.731360000000000127e+03
6.800000000000000488e-02 1.578129999999999811e-01 6.963999999999999524e+00 5.091344999999999743e+01 1.730845000000000027e+03
6.900000000000000577e-02 1.577565000000000217e-01 6.313980000000000814e+00 4.993009999999999593e+01 1.730380000000000109e+03
7.000000000000000666e-02 1.577069999999999861e-01 5.775375000000000369e+00 4.918614999999999782e+01 1.729974999999999909e+03
7.100000000000000755e-02 1.576674999999999882e-01 5.368199999999999861e+00 4.871899999999999409e+01 1.729650000000000091e+03
7.200000000000000844e-02 1.576400000000000023e-01 5.110509999999999664e+00 4.856244999999999834e+01 1.729414999999999964e+03
7.300000000000000933e-02 1.576255000000000017e-01 5.017630000000000479e+00 4.874495000000000289e+01 1.729285000000000082e+03
7.399999999999999634e-02 1.576254999999999740e-01 5.101395000000000124e+00 4.928784999999999883e+01 1.729275000000000091e+03
7.499999999999999722e-02 1.576414999999999900e-01 5.369569999999999510e+00 5.020400000000000063e+01 1.729389999999999873e+03
7.599999999999999811e-02 1.576734999999999942e-01 5.825454999999999828e+00 5.149705000000000155e+01 1.729634999999999991e+03
7.699999999999999900e-02 1.577224999999999877e-01 6.467740000000000045e+00 5.316060000000000230e+01 1.730019999999999982e+03
7.799999999999999989e-02 1.577884999999999982e-01 7.290585000000000093e+00 5.517884999999999707e+01 1.730539999999999964e+03
7.900000000000000078e-02 1.578700000000000103e-01 8.283920000000000172e+00 5.752715000000000600e+01 1.731184999999999945e+03
8.000000000000000167e-02 1.579675000000000107e-01 9.433994999999999465e+00 6.017340000000000089e+01 1.731965000000000146e+03
8.100000000000000255e-02 1.580794999999999839e-01 1.072392499999999949e+01 6.307965000000000089e+01 1.732865000000000009e+03
8.200000000000000344e-02 1.582040000000000113e-01 1.213450500000000076e+01 6.620390000000000441e+01 1.733865000000000009e+03
8.300000000000000433e-02 1.583394999999999941e-01 1.364505499999999927e+01 6.950209999999999866e+01 1.734960000000000036e+03
8.400000000000000522e-02 1.584849999999999870e-01 1.523424999999999940e+01 7.293019999999999925e+01 1.736134999999999991e+03
8.500000000000000611e-02 1.586374999999999869e-01 1.688074999999999903e+01 7.644585000000000719e+01 1.737380000000000109e+03
8.600000000000000699e-02 1.587959999999999927e-01 1.856409999999999982e+01 8.001015000000001010e+01 1.738670000000000073e+03
8.700000000000000788e-02 1.589585000000000026e-01 2.026539999999999964e+01 8.358879999999999200e+01 1.739994999999999891e+03
8.800000000000000877e-02 1.591235000000000011e-01 2.196754999999999924e+01 8.715305000000000746e+01 1.741349999999999909e+03
8.899999999999999578e-02 1.592890000000000139e-01 2.365590000000000259e+01 9.068045000000000755e+01 1.742710000000000036e+03
8.999999999999999667e-02 1.594550000000000134e-01 2.531814999999999927e+01 9.415479999999999450e+01 1.744079999999999927e+03
9.099999999999999756e-02 1.596204999999999985e-01 2.694474999999999909e+01 9.756569999999999254e+01 1.745445000000000164e+03
9.199999999999999845e-02 1.597840000000000094e-01 2.852850000000000108e+01 1.009089999999999918e+02 1.746804999999999836e+03
9.299999999999999933e-02 1.599455000000000182e-01 3.006455000000000055e+01 1.041842499999999916e+02 1.748140000000000100e+03
9.400000000000000022e-02 1.601045000000000107e-01 3.154990000000000094e+01 1.073954999999999984e+02 1.749470000000000027e+03
9.500000000000000111e-02 1.602620000000000156e-01 3.298320000000000363e+01 1.105474999999999994e+02 1.750780000000000200e+03
9.600000000000000200e-02 1.604170000000000040e-01 3.436410000000000053e+01 1.136494999999999891e+02 1.752079999999999927e+03
9.700000000000000289e-02 1.605705000000000049e-01 3.569325000000000614e+01 1.167075000000000102e+02 1.753359999999999900e+03
9.800000000000000377e-02 1.607215000000000171e-01 3.697129999999999939e+01 1.197280000000000086e+02 1.754634999999999991e+03
9.900000000000000466e-02 1.608715000000000006e-01 3.819910000000000139e+01 1.227154999999999916e+02 1.755889999999999873e+03
1.000000000000000056e-01 1.610194999999999821e-01 3.937715000000000032e+01 1.256730000000000018e+02 1.757135000000000218e+03
1.010000000000000064e-01 1.611664999999999903e-01 4.050539999999999452e+01 1.286005000000000109e+02 1.758375000000000000e+03
1.020000000000000073e-01 1.613120000000000109e-01 4.158299999999999841e+01 1.314939999999999998e+02 1.759605000000000018e+03
1.030000000000000082e-01 1.614555000000000018e-01 4.260854999999999393e+01 1.343480000000000132e+02 1.760819999999999936e+03
1.040000000000000091e-01 1.615975000000000050e-01 4.357990000000000208e+01 1.371550000000000011e+02 1.762019999999999982e+03
1.050000000000000100e-01 1.617369999999999919e-01 4.449389999999999645e+01 1.399044999999999845e+02 1.763204999999999927e+03
1.059999999999999970e-01 1.618744999999999767e-01 4.534720000000000084e+01 1.425835000000000150e+02 1.764365000000000009e+03
1.069999999999999979e-01 1.620084999999999997e-01 4.613575000000000159e+01 1.451790000000000020e+02 1.765505000000000109e+03
1.079999999999999988e-01 1.621385000000000187e-01 4.685519999999999641e+01 1.476779999999999973e+02 1.766615000000000009e+03
1.089999999999999997e-01 1.622649999999999926e-01 4.750124999999999886e+01 1.500660000000000025e+02 1.767684999999999945e+03
1.100000000000000006e-01 1.623859999999999748e-01 4.806940000000000168e+01 1.523285000000000196e+02 1.768720000000000027e+03
1.110000000000000014e-01 1.625014999999999932e-01 4.855550000000000210e+01 1.544544999999999959e+02 1.769710000000000036e+03
1.120000000000000023e-01 1.626110000000000055e-01 4.895570000000000022e+01 1.564309999999999832e+02 1.770644999999999982e+03
1.130000000000000032e-01 1.627135000000000109e-01 4.926685000000000514e+01 1.582479999999999905e+02 1.771529999999999973e+03
1.140000000000000041e-01 1.628094999999999959e-01 4.948614999999999498e+01 1.598974999999999795e+02 1.772349999999999909e+03
1.150000000000000050e-01 1.628975000000000006e-01 4.961185000000000400e+01 1.613729999999999905e+02 1.773110000000000127e+03
1.160000000000000059e-01 1.629774999999999974e-01 4.964309999999999690e+01 1.626695000000000277e+02 1.773804999999999836e+03
1.170000000000000068e-01 1.630495000000000139e-01 4.957990000000000208e+01 1.637855000000000132e+02 1.774430000000000064e+03
1.180000000000000077e-01 1.631130000000000080e-01 4.942350000000000421e+01 1.647214999999999918e+02 1.774980000000000018e+03
1.190000000000000085e-01 1.631684999999999941e-01 4.917605000000000359e+01 1.654795000000000016e+02 1.775460000000000036e+03
1.200000000000000094e-01 1.632149999999999990e-01 4.884109999999999729e+01 1.660654999999999859e+02 1.775869999999999891e+03
1.209999999999999964e-01 1.632540000000000102e-01 4.842300000000000182e+01 1.664865000000000066e+02 1.776215000000000146e+03
1.219999999999999973e-01 1.632850000000000135e-01 4.792739999999999867e+01 1.667534999999999741e+02 1.776490000000000009e+03
1.229999999999999982e-01 1.633085000000000231e-01 4.736070000000000135e+01 1.668765000000000214e+02 1.776695000000000164e+03
1.239999999999999991e-01 1.633245000000000113e-01 4.673019999999999641e+01 1.668695000000000164e+02 1.776845000000000027e+03
1.250000000000000000e-01 1.633344999999999936e-01 4.604370000000000118e+01 1.667464999999999975e+02 1.776940000000000055e+03
1.260000000000000009e-01 1.633384999999999976e-01 4.530955000000000155e+01 1.665235000000000127e+02 1.776980000000000018e+03
1.270000000000000018e-01 1.633364999999999956e-01 4.453640000000000043e+01 1.662160000000000082e+02 1.776974999999999909e+03
1.280000000000000027e-01 1.633304999999999896e-01 4.373270000000000124e+01 1.658379999999999939e+02 1.776930000000000064e+03
1.290000000000000036e-01 1.633205000000000073e-01 4.290684999999999860e+01 1.654064999999999941e+02 1.776849999999999909e+03
1.300000000000000044e-01 1.633074999999999943e-01 4.206680000000000064e+01 1.649340000000000259e+02 1.776740000000000009e+03
1.310000000000000053e-01 1.632914999999999783e-01 4.121980000000000643e+01 1.644334999999999809e+02 1.776605000000000018e+03
1.320000000000000062e-01 1.632730000000000015e-01 4.037259999999999849e+01 1.639164999999999850e+02 1.776454999999999927e+03
1.330000000000000071e-01 1.632534999999999958e-01 3.953090000000000259e+01 1.633915000000000077e+02 1.776289999999999964e+03
1.340000000000000080e-01 1.632325000000000026e-01 3.869939999999999714e+01 1.628654999999999973e+02 1.776110000000000127e+03
1.350000000000000089e-01 1.632109999999999950e-01 3.788179999999999836e+01 1.623430000000000177e+02 1.775930000000000064e+03
1.360000000000000098e-01 1.631890000000000007e-01 3.708079999999999643e+01 1.618285000000000196e+02 1.775740000000000009e+03
1.370000000000000107e-01 1.631664999999999921e-01 3.629809999999999803e+01 1.613210000000000264e+02 1.775545000000000073e+03
1.380000000000000115e-01 1.631440000000000112e-01 3.553414999999999679e+01 1.608205000000000098e+02 1.775355000000000018e+03
1.390000000000000124e-01 1.631210000000000160e-01 3.478879999999999484e+01 1.603245000000000005e+02 1.775160000000000082e+03
1.400000000000000133e-01 1.630985000000000074e-01 3.406080000000000041e+01 1.598280000000000030e+02 1.774965000000000146e+03
1.410000000000000142e-01 1.630755000000000121e-01 3.334844999999999970e+01 1.593269999999999982e+02 1.774764999999999873e+03
1.420000000000000151e-01 1.630515000000000159e-01 3.264920000000000044e+01 1.588149999999999977e+02 1.774559999999999945e+03
1.430000000000000160e-01 1.630274999999999919e-01 3.196014999999999873e+01 1.582855000000000132e+02 1.774349999999999909e+03
1.440000000000000169e-01 1.630024999999999946e-01 3.127835000000000321e+01 1.577314999999999827e+02 1.774134999999999991e+03
1.450000000000000178e-01 1.629760000000000097e-01 3.060040000000000049e+01 1.571469999999999914e+02 1.773909999999999854e+03
1.459999999999999909e-01 1.629484999999999961e-01 2.992305000000000348e+01 1.565250000000000057e+02 1.773670000000000073e+03
1.469999999999999918e-01 1.629189999999999805e-01 2.924324999999999974e+01 1.558605000000000018e+02 1.773420000000000073e+03
1.479999999999999927e-01 1.628875000000000184e-01 2.855825000000000102e+01 1.551490000000000009e+02 1.773150000000000091e+03
1.489999999999999936e-01 1.628545000000000131e-01 2.786560000000000059e+01 1.543854999999999791e+02 1.772869999999999891e+03
1.499999999999999944e-01 1.628185000000000049e-01 2.716355000000000075e+01 1.535695000000000050e+02 1.772565000000000055e+03
1.509999999999999953e-01 1.627804999999999946e-01 2.645085000000000264e+01 1.526990000000000123e+02 1.772240000000000009e+03
1.519999999999999962e-01 1.627405000000000102e-01 2.572690000000000055e+01 1.517744999999999891e+02 1.771894999999999982e+03
1.529999999999999971e-01 1.626974999999999949e-01 2.499179999999999779e+01 1.507984999999999900e+02 1.771529999999999973e+03
1.539999999999999980e-01 1.626525000000000054e-01 2.424654999999999916e+01 1.497740000000000009e+02 1.771150000000000091e+03
1.549999999999999989e-01 1.626044999999999852e-01 2.349259999999999948e+01 1.487065000000000055e+02 1.770744999999999891e+03
1.559999999999999998e-01 1.625555000000000194e-01 2.273235000000000028e+01 1.476025000000000205e+02 1.770325000000000045e+03
1.570000000000000007e-01 1.625035000000000229e-01 2.196855000000000047e+01 1.464689999999999941e+02 1.769889999999999873e+03
1.580000000000000016e-01 1.624510000000000121e-01 2.120475000000000065e+01 1.453145000000000095e+02 1.769444999999999936e+03
1.590000000000000024e-01 1.623970000000000136e-01 2.044480000000000075e+01 1.441490000000000009e+02 1.768985000000000127e+03
