# t [s], A [cm^2], U [cm/s], P [cPa], c [cm/s]
1.000000000000000021e-03 1.889299999999999868e-01 3.061901000000000206e-01 9.708529999999998950e+01 2.187300000000000182e+03
2.000000000000000042e-03 1.888810000000000211e-01 1.791895000000000238e+00 9.367650000000000432e+01 2.186914999999999964e+03
3.000000000000000062e-03 1.887490000000000001e-01 3.637623500000000121e+00 8.893030000000000257e+01 2.185920000000000073e+03
4.000000000000000083e-03 1.885715000000000030e-01 5.726141000000000147e+00 8.381190000000000850e+01 2.184599999999999909e+03
5.000000000000000104e-03 1.883830000000000227e-01 7.975670000000000925e+00 7.928360000000000696e+01 2.183215000000000146e+03
6.000000000000000125e-03 1.882030000000000092e-01 1.018094499999999947e+01 7.559194999999999709e+01 2.181909999999999854e+03
7.000000000000000146e-03 1.880350000000000077e-01 1.211491000000000007e+01 7.240359999999999729e+01 2.180710000000000036e+03
8.000000000000000167e-03 1.878810000000000202e-01 1.372155499999999861e+01 6.952070000000000505e+01 2.179640000000000327e+03
9.000000000000001055e-03 1.877475000000000116e-01 1.505214999999999925e+01 6.705334999999999468e+01 2.178715000000000146e+03
1.000000000000000194e-02 1.876369999999999982e-01 1.613755000000000095e+01 6.506895000000000095e+01 2.177954999999999927e+03
1.099999999999999936e-02 1.875470000000000192e-01 1.699194999999999922e+01 6.352270000000000039e+01 2.177355000000000018e+03
1.200000000000000025e-02 1.874764999999999904e-01 1.762335000000000207e+01 6.232054999999999723e+01 2.176880000000000109e+03
1.300000000000000114e-02 1.874184999999999879e-01 1.803069999999999951e+01 6.131684999999999519e+01 2.176510000000000218e+03
1.400000000000000203e-02 1.873704999999999954e-01 1.824705000000000155e+01 6.041254999999999598e+01 2.176199999999999818e+03
1.499999999999999944e-02 1.873329999999999995e-01 1.838729999999999976e+01 5.973784999999999457e+01 2.175965000000000146e+03
1.600000000000000033e-02 1.873150000000000093e-01 1.862420000000000186e+01 5.967300000000000182e+01 2.175855000000000018e+03
1.700000000000000122e-02 1.873265000000000069e-01 1.909799999999999898e+01 6.062284999999999968e+01 2.175934999999999945e+03
1.800000000000000211e-02 1.873734999999999984e-01 1.983290000000000219e+01 6.271850000000000591e+01 2.176260000000000218e+03
1.900000000000000300e-02 1.874520000000000075e-01 2.071865000000000023e+01 6.567034999999999911e+01 2.176795000000000073e+03
2.000000000000000042e-02 1.875474999999999781e-01 2.156190000000000140e+01 6.885464999999999236e+01 2.177460000000000036e+03
2.100000000000000130e-02 1.876410000000000022e-01 2.216900000000000048e+01 7.155850000000000932e+01 2.178119999999999891e+03
2.200000000000000219e-02 1.877154999999999796e-01 2.241870000000000118e+01 7.324600000000000932e+01 2.178659999999999854e+03
2.299999999999999961e-02 1.877599999999999825e-01 2.229605000000000103e+01 7.372669999999999391e+01 2.178989999999999782e+03
2.400000000000000050e-02 1.877730000000000232e-01 2.188065000000000282e+01 7.317095000000000482e+01 2.179110000000000127e+03
2.500000000000000139e-02 1.877615000000000256e-01 2.129999999999999716e+01 7.198675000000000068e+01 2.179045000000000073e+03
2.600000000000000228e-02 1.877360000000000140e-01 2.067330000000000112e+01 7.062719999999998777e+01 2.178880000000000109e+03
2.700000000000000316e-02 1.877059999999999840e-01 2.006949999999999790e+01 6.941694999999999993e+01 2.178675000000000182e+03
2.800000000000000058e-02 1.876769999999999827e-01 1.949334999999999951e+01 6.846105000000000018e+01 2.178475000000000364e+03
2.900000000000000147e-02 1.876499999999999835e-01 1.889974999999999739e+01 6.765704999999999814e+01 2.178284999999999854e+03
3.000000000000000236e-02 1.876210000000000100e-01 1.822639999999999816e+01 6.678600000000000136e+01 2.178090000000000146e+03
3.099999999999999978e-02 1.875854999999999884e-01 1.742974999999999852e+01 6.563880000000000337e+01 2.177840000000000146e+03
3.200000000000000067e-02 1.875394999999999979e-01 1.651265000000000072e+01 6.412744999999999607e+01 2.177529999999999745e+03
3.300000000000000155e-02 1.874839999999999840e-01 1.553365000000000151e+01 6.234479999999999933e+01 2.177154999999999745e+03
3.400000000000000244e-02 1.874244999999999939e-01 1.459539999999999971e+01 6.055334999999999468e+01 2.176750000000000000e+03
3.500000000000000333e-02 1.873704999999999954e-01 1.381675000000000075e+01 5.910909999999999798e+01 2.176369999999999891e+03
3.600000000000000422e-02 1.873315000000000119e-01 1.329860000000000042e+01 5.835105000000000075e+01 2.176090000000000146e+03
3.700000000000000511e-02 1.873159999999999825e-01 1.309489999999999910e+01 5.849394999999999811e+01 2.175970000000000255e+03
3.799999999999999906e-02 1.873285000000000089e-01 1.319819999999999993e+01 5.956215000000000259e+01 2.176034999999999854e+03
3.899999999999999994e-02 1.873670000000000058e-01 1.354204999999999970e+01 6.137944999999999851e+01 2.176284999999999854e+03
4.000000000000000083e-02 1.874239999999999795e-01 1.401784999999999926e+01 6.361289999999999623e+01 2.176664999999999964e+03
4.100000000000000172e-02 1.874905000000000044e-01 1.449865000000000137e+01 6.585094999999999743e+01 2.177119999999999891e+03
4.200000000000000261e-02 1.875539999999999985e-01 1.486359999999999992e+01 6.768985000000000696e+01 2.177554999999999836e+03
4.300000000000000350e-02 1.876034999999999786e-01 1.501715000000000089e+01 6.880724999999999625e+01 2.177904999999999745e+03
4.400000000000000439e-02 1.876305000000000056e-01 1.489985000000000070e+01 6.900700000000000500e+01 2.178095000000000255e+03
4.499999999999999833e-02 1.876289999999999902e-01 1.449000000000000021e+01 6.823125000000000284e+01 2.178100000000000364e+03
4.599999999999999922e-02 1.875985000000000014e-01 1.379850000000000065e+01 6.654304999999999382e+01 2.177904999999999745e+03
4.700000000000000011e-02 1.875404999999999989e-01 1.285904999999999987e+01 6.409040000000000248e+01 2.177514999999999873e+03
4.800000000000000100e-02 1.874585000000000001e-01 1.171805000000000163e+01 6.106364999999999554e+01 2.176954999999999927e+03
4.900000000000000189e-02 1.873584999999999834e-01 1.042569500000000104e+01 5.765869999999999607e+01 2.176270000000000437e+03
5.000000000000000278e-02 1.872449999999999948e-01 9.030985000000001151e+00 5.405235000000000412e+01 2.175485000000000127e+03
5.100000000000000366e-02 1.871234999999999982e-01 7.579919999999999547e+00 5.039204999999999757e+01 2.174650000000000091e+03
5.200000000000000455e-02 1.869989999999999986e-01 6.116200000000000081e+00 4.679819999999999425e+01 2.173789999999999964e+03
5.300000000000000544e-02 1.868754999999999999e-01 4.683340000000000281e+00 4.337399999999999523e+01 2.172934999999999945e+03
5.399999999999999939e-02 1.867570000000000063e-01 3.326615050000000018e+00 4.021675000000000466e+01 2.172105000000000018e+03
5.500000000000000028e-02 1.866470000000000073e-01 2.093956000000000373e+00 3.742685000000000173e+01 2.171335000000000036e+03
5.600000000000000117e-02 1.865495000000000070e-01 1.035210000000000186e+00 3.511100000000000421e+01 2.170650000000000091e+03
5.700000000000000205e-02 1.864684999999999815e-01 1.999049999999999994e-01 3.337955000000000183e+01 2.170079999999999927e+03
5.800000000000000294e-02 1.864080000000000181e-01 -3.660919999999999730e-01 3.233865000000000123e+01 2.169650000000000091e+03
5.900000000000000383e-02 1.863714999999999955e-01 -6.243494499999999725e-01 3.207950000000000301e+01 2.169380000000000109e+03
6.000000000000000472e-02 1.863615000000000133e-01 -5.472964999999999636e-01 3.266779999999999973e+01 2.169289999999999964e+03
6.099999999999999867e-02 1.863809999999999911e-01 -1.207949999999999857e-01 3.413515000000000299e+01 2.169404999999999745e+03
6.199999999999999956e-02 1.864299999999999846e-01 6.545969999999998734e-01 3.647400000000000375e+01 2.169725000000000364e+03
6.300000000000000044e-02 1.865089999999999804e-01 1.763683499999999960e+00 3.963745000000000118e+01 2.170250000000000000e+03
6.400000000000000133e-02 1.866164999999999907e-01 3.177873500000000018e+00 4.354265000000000185e+01 2.170974999999999909e+03
6.500000000000000222e-02 1.867489999999999983e-01 4.857404999999999973e+00 4.807760000000000389e+01 2.171875000000000000e+03
6.600000000000000311e-02 1.869035000000000002e-01 6.754145000000000287e+00 5.311005000000000109e+01 2.172930000000000291e+03
6.700000000000000400e-02 1.870755000000000057e-01 8.814799999999999969e+00 5.849689999999999657e+01 2.174110000000000127e+03
6.800000000000000488e-02 1.872599999999999820e-01 1.098422500000000035e+01 6.409420000000000073e+01 2.175385000000000218e+03
6.900000000000000577e-02 1.874530000000000085e-01 1.320854000000000106e+01 6.976654999999999518e+01 2.176725000000000364e+03
7.000000000000000666e-02 1.876499999999999835e-01 1.543820000000000192e+01 7.539494999999999436e+01 2.178095000000000255e+03
7.100000000000000755e-02 1.878469999999999862e-01 1.763054999999999950e+01 8.088335000000000719e+01 2.179474999999999909e+03
7.200000000000000844e-02 1.880410000000000137e-01 1.975155000000000172e+01 8.616270000000000095e+01 2.180829999999999927e+03
7.300000000000000933e-02 1.882294999999999940e-01 2.177674999999999983e+01 9.119325000000000614e+01 2.182154999999999745e+03
7.399999999999999634e-02 1.884109999999999951e-01 2.369165000000000276e+01 9.596285000000000309e+01 2.183434999999999945e+03
7.499999999999999722e-02 1.885850000000000026e-01 2.549080000000000013e+01 1.004839000000000055e+02 2.184670000000000073e+03
7.599999999999999811e-02 1.887520000000000031e-01 2.717650000000000077e+01 1.047889499999999998e+02 2.185849999999999909e+03
7.699999999999999900e-02 1.889124999999999832e-01 2.875669999999999860e+01 1.089210000000000065e+02 2.186989999999999782e+03
7.799999999999999989e-02 1.890685000000000004e-01 3.024300000000000210e+01 1.129290000000000020e+02 2.188095000000000255e+03
7.900000000000000078e-02 1.892199999999999993e-01 3.164829999999999899e+01 1.168605000000000018e+02 2.189170000000000073e+03
8.000000000000000167e-02 1.893690000000000095e-01 3.298525000000000063e+01 1.207539999999999907e+02 2.190230000000000018e+03
8.100000000000000255e-02 1.895169999999999910e-01 3.426439999999999486e+01 1.246394999999999982e+02 2.191284999999999854e+03
8.200000000000000344e-02 1.896639999999999993e-01 3.549334999999999951e+01 1.285310000000000059e+02 2.192329999999999927e+03
8.300000000000000433e-02 1.898114999999999941e-01 3.667620000000000147e+01 1.324284999999999854e+02 2.193375000000000000e+03
8.400000000000000522e-02 1.899580000000000157e-01 3.781329999999999814e+01 1.363220000000000027e+02 2.194420000000000073e+03
8.500000000000000611e-02 1.901034999999999808e-01 3.890144999999999698e+01 1.401870000000000118e+02 2.195460000000000036e+03
8.600000000000000699e-02 1.902484999999999871e-01 3.993415000000000248e+01 1.439915000000000020e+02 2.196485000000000127e+03
8.700000000000000788e-02 1.903900000000000037e-01 4.090229999999999677e+01 1.476960000000000264e+02 2.197500000000000000e+03
8.800000000000000877e-02 1.905275000000000163e-01 4.179479999999999507e+01 1.512590000000000146e+02 2.198480000000000018e+03
8.899999999999999578e-02 1.906605000000000105e-01 4.259924999999999784e+01 1.546349999999999909e+02 2.199430000000000291e+03
8.999999999999999667e-02 1.907860000000000111e-01 4.330245000000000033e+01 1.577805000000000177e+02 2.200324999999999818e+03
9.099999999999999756e-02 1.909035000000000037e-01 4.389170000000000016e+01 1.606544999999999845e+02 2.201170000000000073e+03
9.199999999999999845e-02 1.910115000000000007e-01 4.435515000000000185e+01 1.632199999999999989e+02 2.201940000000000055e+03
9.299999999999999933e-02 1.911074999999999857e-01 4.468269999999999698e+01 1.654470000000000027e+02 2.202640000000000327e+03
9.400000000000000022e-02 1.911924999999999875e-01 4.486690000000000111e+01 1.673125000000000000e+02 2.203250000000000000e+03
9.500000000000000111e-02 1.912650000000000183e-01 4.490330000000000155e+01 1.688034999999999854e+02 2.203775000000000091e+03
9.600000000000000200e-02 1.913229999999999931e-01 4.479110000000000014e+01 1.699170000000000016e+02 2.204204999999999927e+03
9.700000000000000289e-02 1.913690000000000113e-01 4.453359999999999985e+01 1.706610000000000014e+02 2.204539999999999964e+03
9.800000000000000377e-02 1.914015000000000022e-01 4.413790000000000191e+01 1.710534999999999854e+02 2.204784999999999854e+03
9.900000000000000466e-02 1.914215000000000222e-01 4.361484999999999701e+01 1.711225000000000023e+02 2.204934999999999945e+03
1.000000000000000056e-01 1.914305000000000034e-01 4.297879999999999967e+01 1.709055000000000177e+02 2.205010000000000218e+03
1.010000000000000064e-01 1.914290000000000158e-01 4.224660000000000082e+01 1.704440000000000168e+02 2.205010000000000218e+03
1.020000000000000073e-01 1.914190000000000058e-01 4.143684999999999974e+01 1.697860000000000014e+02 2.204944999999999709e+03
1.030000000000000082e-01 1.914015000000000022e-01 4.056920000000000215e+01 1.689805000000000064e+02 2.204829999999999927e+03
1.040000000000000091e-01 1.913779999999999926e-01 3.966334999999999411e+01 1.680735000000000241e+02 2.204664999999999964e+03
1.050000000000000100e-01 1.913509999999999933e-01 3.873810000000000286e+01 1.671105000000000018e+02 2.204475000000000364e+03
1.059999999999999970e-01 1.913205000000000044e-01 3.781060000000000088e+01 1.661299999999999955e+02 2.204265000000000327e+03
1.069999999999999979e-01 1.912895000000000012e-01 3.689579999999999416e+01 1.651655000000000086e+02 2.204045000000000073e+03
1.079999999999999988e-01 1.912579999999999836e-01 3.600594999999999857e+01 1.642404999999999973e+02 2.203824999999999818e+03
1.089999999999999997e-01 1.912274999999999947e-01 3.515000000000000568e+01 1.633739999999999952e+02 2.203605000000000018e+03
1.100000000000000006e-01 1.911979999999999791e-01 3.433370000000000033e+01 1.625724999999999909e+02 2.203389999999999873e+03
1.110000000000000014e-01 1.911700000000000066e-01 3.355949999999999989e+01 1.618375000000000057e+02 2.203189999999999600e+03
1.120000000000000023e-01 1.911439999999999806e-01 3.282670000000000243e+01 1.611605000000000132e+02 2.203005000000000109e+03
1.130000000000000032e-01 1.911189999999999833e-01 3.213145000000000095e+01 1.605285000000000082e+02 2.202824999999999818e+03
1.140000000000000041e-01 1.910959999999999881e-01 3.146754999999999924e+01 1.599215000000000089e+02 2.202659999999999854e+03
1.150000000000000050e-01 1.910724999999999785e-01 3.082685000000000031e+01 1.593160000000000025e+02 2.202489999999999782e+03
1.160000000000000059e-01 1.910489999999999966e-01 3.019959999999999667e+01 1.586854999999999905e+02 2.202315000000000055e+03
1.170000000000000068e-01 1.910244999999999860e-01 2.957560000000000144e+01 1.580040000000000191e+02 2.202144999999999982e+03
1.180000000000000077e-01 1.909985000000000155e-01 2.894449999999999790e+01 1.572454999999999927e+02 2.201954999999999927e+03
1.190000000000000085e-01 1.909689999999999999e-01 2.829659999999999798e+01 1.563865000000000123e+02 2.201744999999999891e+03
1.200000000000000094e-01 1.909359999999999946e-01 2.762359999999999971e+01 1.554085000000000036e+02 2.201510000000000218e+03
1.209999999999999964e-01 1.908994999999999997e-01 2.691874999999999929e+01 1.542980000000000018e+02 2.201250000000000000e+03
1.219999999999999973e-01 1.908584999999999865e-01 2.617790000000000106e+01 1.530484999999999900e+02 2.200954999999999927e+03
1.229999999999999982e-01 1.908124999999999960e-01 2.539934999999999832e+01 1.516599999999999966e+02 2.200635000000000218e+03
1.239999999999999991e-01 1.907619999999999871e-01 2.458395000000000152e+01 1.501399999999999864e+02 2.200275000000000091e+03
1.250000000000000000e-01 1.907065000000000010e-01 2.373564999999999969e+01 1.485024999999999977e+02 2.199885000000000218e+03
1.260000000000000009e-01 1.906474999999999975e-01 2.286064999999999969e+01 1.467674999999999841e+02 2.199470000000000255e+03
1.270000000000000018e-01 1.905854999999999910e-01 2.196764999999999901e+01 1.449629999999999939e+02 2.199029999999999745e+03
1.280000000000000027e-01 1.905209999999999959e-01 2.106709999999999994e+01 1.431184999999999832e+02 2.198569999999999709e+03
1.290000000000000036e-01 1.904544999999999988e-01 2.017074999999999818e+01 1.412669999999999959e+02 2.198105000000000018e+03
1.300000000000000044e-01 1.903885000000000161e-01 1.929100000000000037e+01 1.394424999999999955e+02 2.197635000000000218e+03
1.310000000000000053e-01 1.903235000000000066e-01 1.844040000000000035e+01 1.376779999999999973e+02 2.197170000000000073e+03
1.320000000000000062e-01 1.902594999999999981e-01 1.763084999999999880e+01 1.360049999999999955e+02 2.196720000000000255e+03
1.330000000000000071e-01 1.901994999999999936e-01 1.687290000000000134e+01 1.344490000000000123e+02 2.196289999999999964e+03
1.340000000000000080e-01 1.901430000000000065e-01 1.617569999999999908e+01 1.330330000000000155e+02 2.195885000000000218e+03
1.350000000000000089e-01 1.900910000000000100e-01 1.554629999999999868e+01 1.317724999999999795e+02 2.195514999999999873e+03
1.360000000000000098e-01 1.900445000000000051e-01 1.498944999999999972e+01 1.306775000000000091e+02 2.195180000000000291e+03
1.370000000000000107e-01 1.900034999999999918e-01 1.450755000000000017e+01 1.297509999999999764e+02 2.194885000000000218e+03
1.380000000000000115e-01 1.899679999999999980e-01 1.410064999999999991e+01 1.289904999999999973e+02 2.194630000000000109e+03
1.390000000000000124e-01 1.899385000000000101e-01 1.376679999999999993e+01 1.283899999999999864e+02 2.194414999999999964e+03
1.400000000000000133e-01 1.899139999999999995e-01 1.350195000000000078e+01 1.279354999999999905e+02 2.194239999999999782e+03
1.410000000000000142e-01 1.898949999999999805e-01 1.330034999999999989e+01 1.276124999999999972e+02 2.194095000000000255e+03
1.420000000000000151e-01 1.898805000000000076e-01 1.315514999999999901e+01 1.274014999999999986e+02 2.193984999999999673e+03
1.430000000000000160e-01 1.898699999999999832e-01 1.305845000000000056e+01 1.272845000000000084e+02 2.193909999999999854e+03
1.440000000000000169e-01 1.898624999999999896e-01 1.300199999999999889e+01 1.272400000000000091e+02 2.193850000000000364e+03
1.450000000000000178e-01 1.898584999999999856e-01 1.297710000000000008e+01 1.272480000000000047e+02 2.193820000000000164e+03
1.459999999999999909e-01 1.898555000000000104e-01 1.297530000000000072e+01 1.272895000000000039e+02 2.193795000000000073e+03
1.469999999999999918e-01 1.898544999999999816e-01 1.298855000000000004e+01 1.273474999999999966e+02 2.193784999999999854e+03
1.479999999999999927e-01 1.898544999999999816e-01 1.300945000000000107e+01 1.274064999999999941e+02 2.193779999999999745e+03
1.489999999999999936e-01 1.898549999999999960e-01 1.303150000000000119e+01 1.274530000000000030e+02 2.193779999999999745e+03
1.499999999999999944e-01 1.898549999999999960e-01 1.304925000000000068e+01 1.274775000000000063e+02 2.193779999999999745e+03
1.509999999999999953e-01 1.898539999999999950e-01 1.305839999999999890e+01 1.274720000000000084e+02 2.193775000000000091e+03
1.519999999999999962e-01 1.898529999999999940e-01 1.305574999999999974e+01 1.274329999999999927e+02 2.193764999999999873e+03
1.529999999999999971e-01 1.898509999999999920e-01 1.303944999999999865e+01 1.273575000000000017e+02 2.193750000000000000e+03
1.539999999999999980e-01 1.898475000000000024e-01 1.300890000000000057e+01 1.272475000000000023e+02 2.193725000000000364e+03
1.549999999999999989e-01 1.898430000000000117e-01 1.296434999999999960e+01 1.271069999999999993e+02 2.193695000000000164e+03
1.559999999999999998e-01 1.898380000000000067e-01 1.290729999999999933e+01 1.269405000000000001e+02 2.193664999999999964e+03
1.570000000000000007e-01 1.898320000000000007e-01 1.283980000000000032e+01 1.267554999999999978e+02 2.193619999999999891e+03
1.580000000000000016e-01 1.898254999999999804e-01 1.276464999999999961e+01 1.265600000000000023e+02 2.193579999999999927e+03
1.590000000000000024e-01 1.898185000000000011e-01 1.268474999999999930e+01 1.263610000000000042e+02 2.193529999999999745e+03
