# t [s], A [cm^2], U [cm/s], P [cPa], c [cm/s]
1.000000000000000021e-03 1.800970000000000071e-01 2.840985000000000316e-01 9.140424999999999045e+01 2.060829999999999927e+03
2.000000000000000042e-03 1.800515000000000032e-01 1.720411999999999830e+00 8.831280000000000996e+01 2.060449999999999818e+03
3.000000000000000062e-03 1.799260000000000026e-01 3.502059000000000033e+00 8.400964999999999350e+01 2.059435000000000400e+03
4.000000000000000083e-03 1.797535000000000105e-01 5.510930999999999358e+00 7.930324999999999136e+01 2.058059999999999945e+03
5.000000000000000104e-03 1.795684999999999920e-01 7.680769999999999875e+00 7.507474999999999454e+01 2.056590000000000146e+03
6.000000000000000125e-03 1.793895000000000073e-01 9.839175000000000892e+00 7.162389999999999191e+01 2.055194999999999709e+03
7.000000000000000146e-03 1.792235000000000078e-01 1.176630500000000090e+01 6.869534999999999059e+01 2.053914999999999964e+03
8.000000000000000167e-03 1.790694999999999926e-01 1.337617999999999796e+01 6.604420000000000357e+01 2.052765000000000327e+03
9.000000000000001055e-03 1.789350000000000107e-01 1.471089999999999876e+01 6.373014999999999475e+01 2.051759999999999764e+03
1.000000000000000194e-02 1.788210000000000077e-01 1.580849999999999866e+01 6.184104999999999563e+01 2.050925000000000182e+03
1.099999999999999936e-02 1.787285000000000124e-01 1.668534999999999968e+01 6.035724999999999341e+01 2.050250000000000000e+03
1.200000000000000025e-02 1.786550000000000082e-01 1.735754999999999981e+01 5.922155000000000769e+01 2.049720000000000255e+03
1.300000000000000114e-02 1.785964999999999914e-01 1.782995000000000019e+01 5.833870000000000289e+01 2.049315000000000055e+03
1.400000000000000203e-02 1.785499999999999865e-01 1.810849999999999937e+01 5.758454999999999302e+01 2.048990000000000236e+03
1.499999999999999944e-02 1.785110000000000030e-01 1.825135000000000218e+01 5.693965000000000032e+01 2.048735000000000127e+03
1.600000000000000033e-02 1.784855000000000191e-01 1.839099999999999824e+01 5.661144999999999783e+01 2.048559999999999945e+03
1.700000000000000122e-02 1.784810000000000008e-01 1.868489999999999895e+01 5.696755000000000280e+01 2.048545000000000073e+03
1.800000000000000211e-02 1.785080000000000000e-01 1.923015000000000185e+01 5.830230000000000246e+01 2.048750000000000000e+03
1.900000000000000300e-02 1.785690000000000055e-01 2.000484999999999758e+01 6.061319999999999908e+01 2.049195000000000164e+03
2.000000000000000042e-02 1.786564999999999959e-01 2.087255000000000038e+01 6.353685000000000116e+01 2.049840000000000146e+03
2.100000000000000130e-02 1.787555000000000116e-01 2.163899999999999935e+01 6.646705000000000041e+01 2.050574999999999818e+03
2.200000000000000219e-02 1.788465000000000193e-01 2.212760000000000105e+01 6.877805000000000746e+01 2.051269999999999982e+03
2.299999999999999961e-02 1.789145000000000041e-01 2.224029999999999774e+01 7.004104999999999848e+01 2.051795000000000073e+03
2.400000000000000050e-02 1.789494999999999836e-01 2.198225000000000051e+01 7.014994999999998981e+01 2.052090000000000146e+03
2.500000000000000139e-02 1.789530000000000010e-01 2.144549999999999912e+01 6.931610000000000582e+01 2.052144999999999982e+03
2.600000000000000228e-02 1.789324999999999943e-01 2.076429999999999865e+01 6.795165000000000077e+01 2.052010000000000218e+03
2.700000000000000316e-02 1.788994999999999891e-01 2.006299999999999883e+01 6.649909999999999854e+01 2.051775000000000091e+03
2.800000000000000058e-02 1.788640000000000230e-01 1.941599999999999682e+01 6.527804999999999325e+01 2.051514999999999873e+03
2.900000000000000147e-02 1.788335000000000063e-01 1.883425000000000082e+01 6.440359999999999729e+01 2.051280000000000200e+03
3.000000000000000236e-02 1.788075000000000081e-01 1.827590000000000003e+01 6.378985000000000127e+01 2.051085000000000036e+03
3.099999999999999978e-02 1.787839999999999985e-01 1.767435000000000045e+01 6.322440000000000282e+01 2.050909999999999854e+03
3.200000000000000067e-02 1.787569999999999992e-01 1.697230000000000061e+01 6.247560000000000002e+01 2.050710000000000036e+03
3.300000000000000155e-02 1.787219999999999920e-01 1.614930000000000021e+01 6.139660000000000650e+01 2.050460000000000036e+03
3.400000000000000244e-02 1.786764999999999881e-01 1.523659999999999926e+01 5.999254999999999427e+01 2.050125000000000000e+03
3.500000000000000333e-02 1.786240000000000050e-01 1.431365000000000087e+01 5.843345000000000056e+01 2.049739999999999782e+03
3.600000000000000422e-02 1.785709999999999797e-01 1.348855000000000004e+01 5.700969999999999516e+01 2.049345000000000255e+03
3.700000000000000511e-02 1.785275000000000056e-01 1.286864999999999881e+01 5.604710000000000036e+01 2.049019999999999982e+03
3.799999999999999906e-02 1.785029999999999950e-01 1.253120000000000012e+01 5.580979999999999563e+01 2.048820000000000164e+03
3.899999999999999994e-02 1.785025000000000084e-01 1.250239999999999974e+01 5.642269999999999897e+01 2.048804999999999836e+03
4.000000000000000083e-02 1.785300000000000220e-01 1.275114999999999910e+01 5.783435000000000059e+01 2.048985000000000127e+03
4.100000000000000172e-02 1.785804999999999754e-01 1.319630000000000081e+01 5.982770000000000010e+01 2.049345000000000255e+03
4.200000000000000261e-02 1.786464999999999859e-01 1.372395000000000032e+01 6.206855000000000189e+01 2.049824999999999818e+03
4.300000000000000350e-02 1.787175000000000014e-01 1.421020000000000039e+01 6.417619999999999436e+01 2.050345000000000255e+03
4.400000000000000439e-02 1.787819999999999965e-01 1.454169999999999874e+01 6.579489999999999839e+01 2.050824999999999818e+03
4.499999999999999833e-02 1.788285000000000013e-01 1.463179999999999836e+01 6.665160000000000196e+01 2.051175000000000182e+03
4.599999999999999922e-02 1.788500000000000090e-01 1.442879999999999896e+01 6.658959999999999013e+01 2.051349999999999909e+03
4.700000000000000011e-02 1.788414999999999866e-01 1.391734999999999900e+01 6.557550000000000523e+01 2.051300000000000182e+03
4.800000000000000100e-02 1.788020000000000165e-01 1.311270000000000024e+01 6.368280000000000030e+01 2.051019999999999982e+03
4.900000000000000189e-02 1.787330000000000030e-01 1.205269000000000013e+01 6.106094999999999828e+01 2.050525000000000091e+03
5.000000000000000278e-02 1.786399999999999932e-01 1.078791999999999973e+01 5.789844999999999686e+01 2.049844999999999800e+03
5.100000000000000366e-02 1.785285000000000066e-01 9.373454999999999870e+00 5.439060000000000628e+01 2.049024999999999636e+03
5.200000000000000455e-02 1.784034999999999926e-01 7.863350000000000506e+00 5.071594999999999942e+01 2.048099999999999909e+03
5.300000000000000544e-02 1.782714999999999994e-01 6.308145000000000557e+00 4.702510000000000190e+01 2.047119999999999891e+03
5.399999999999999939e-02 1.781369999999999898e-01 4.754652500000000614e+00 4.344030000000000058e+01 2.046125000000000000e+03
5.500000000000000028e-02 1.780049999999999966e-01 3.247391499999999986e+00 4.006134999999999735e+01 2.045139999999999873e+03
5.600000000000000117e-02 1.778790000000000093e-01 1.830029999999999824e+00 3.697560000000000002e+01 2.044199999999999818e+03
5.700000000000000205e-02 1.777630000000000043e-01 5.465250000000001496e-01 3.426574999999999704e+01 2.043329999999999927e+03
5.800000000000000294e-02 1.776599999999999846e-01 -5.590299999999999159e-01 3.201480000000000103e+01 2.042554999999999836e+03
5.900000000000000383e-02 1.775744999999999962e-01 -1.443728499999999970e+00 3.030610000000000070e+01 2.041904999999999973e+03
6.000000000000000472e-02 1.775085000000000135e-01 -2.068236999999999881e+00 2.921930000000000405e+01 2.041400000000000091e+03
6.099999999999999867e-02 1.774654999999999982e-01 -2.399709999999999788e+00 2.882294999999999874e+01 2.041065000000000055e+03
6.199999999999999956e-02 1.774479999999999946e-01 -2.414625000000000021e+00 2.916649999999999920e+01 2.040914999999999964e+03
6.300000000000000044e-02 1.774580000000000046e-01 -2.101065000000000182e+00 3.027309999999999945e+01 2.040964999999999918e+03
6.400000000000000133e-02 1.774955000000000005e-01 -1.459988950000000063e+00 3.213524999999999920e+01 2.041220000000000027e+03
6.500000000000000222e-02 1.775609999999999966e-01 -5.053599999999999204e-01 3.471314999999999884e+01 2.041684999999999945e+03
6.600000000000000311e-02 1.776530000000000054e-01 7.368149999999999977e-01 3.793689999999999429e+01 2.042344999999999800e+03
6.700000000000000400e-02 1.777684999999999960e-01 2.230305000000000426e+00 4.171200000000000330e+01 2.043184999999999945e+03
6.800000000000000488e-02 1.779049999999999798e-01 3.931054999999999744e+00 4.592530000000000001e+01 2.044180000000000064e+03
6.900000000000000577e-02 1.780579999999999941e-01 5.789864999999999817e+00 5.045369999999999777e+01 2.045309999999999945e+03
7.000000000000000666e-02 1.782235000000000069e-01 7.755150000000000432e+00 5.517119999999999891e+01 2.046529999999999973e+03
7.100000000000000755e-02 1.783970000000000000e-01 9.775529999999999831e+00 5.995645000000000380e+01 2.047815000000000055e+03
7.200000000000000844e-02 1.785740000000000105e-01 1.180250500000000002e+01 6.469910000000000139e+01 2.049135000000000218e+03
7.300000000000000933e-02 1.787509999999999932e-01 1.379245000000000054e+01 6.930509999999999593e+01 2.050460000000000036e+03
7.399999999999999634e-02 1.789250000000000007e-01 1.570870000000000033e+01 7.370104999999999507e+01 2.051764999999999873e+03
7.499999999999999722e-02 1.790920000000000012e-01 1.752295000000000158e+01 7.783684999999999832e+01 2.053024999999999636e+03
7.599999999999999811e-02 1.792515000000000081e-01 1.921594999999999942e+01 8.168710000000000093e+01 2.054229999999999563e+03
7.699999999999999900e-02 1.794020000000000059e-01 2.077805000000000035e+01 8.525050000000000239e+01 2.055369999999999891e+03
7.799999999999999989e-02 1.795430000000000081e-01 2.220840000000000103e+01 8.854755000000000109e+01 2.056439999999999600e+03
7.900000000000000078e-02 1.796754999999999880e-01 2.351400000000000290e+01 9.161650000000000205e+01 2.057454999999999927e+03
8.000000000000000167e-02 1.798005000000000020e-01 2.470805000000000007e+01 9.450849999999999795e+01 2.058404999999999745e+03
8.100000000000000255e-02 1.799195000000000100e-01 2.580790000000000006e+01 9.728104999999999336e+01 2.059319999999999709e+03
8.200000000000000344e-02 1.800344999999999862e-01 2.683299999999999841e+01 9.999259999999999593e+01 2.060199999999999818e+03
8.300000000000000433e-02 1.801475000000000160e-01 2.780279999999999774e+01 1.026969500000000011e+02 2.061064999999999600e+03
8.400000000000000522e-02 1.802600000000000036e-01 2.873519999999999897e+01 1.054375000000000000e+02 2.061925000000000182e+03
8.500000000000000611e-02 1.803730000000000055e-01 2.964470000000000027e+01 1.082459999999999951e+02 2.062789999999999964e+03
8.600000000000000699e-02 1.804884999999999962e-01 3.054160000000000252e+01 1.111394999999999982e+02 2.063675000000000182e+03
8.700000000000000788e-02 1.806065000000000031e-01 3.143160000000000309e+01 1.141184999999999974e+02 2.064574999999999818e+03
8.800000000000000877e-02 1.807269999999999988e-01 3.231530000000000058e+01 1.171719999999999970e+02 2.065489999999999782e+03
8.899999999999999578e-02 1.808494999999999964e-01 3.318869999999999720e+01 1.202740000000000009e+02 2.066425000000000182e+03
8.999999999999999667e-02 1.809729999999999950e-01 3.404364999999999952e+01 1.233889999999999958e+02 2.067364999999999782e+03
9.099999999999999756e-02 1.810970000000000080e-01 3.486865000000000236e+01 1.264749999999999943e+02 2.068315000000000055e+03
9.199999999999999845e-02 1.812190000000000190e-01 3.564955000000000496e+01 1.294834999999999923e+02 2.069239999999999782e+03
9.299999999999999933e-02 1.813374999999999848e-01 3.637075000000000102e+01 1.323669999999999902e+02 2.070154999999999745e+03
9.400000000000000022e-02 1.814520000000000022e-01 3.701614999999999611e+01 1.350765000000000100e+02 2.071025000000000091e+03
9.500000000000000111e-02 1.815594999999999848e-01 3.756985000000000241e+01 1.375690000000000168e+02 2.071850000000000364e+03
9.600000000000000200e-02 1.816585000000000005e-01 3.801740000000000208e+01 1.398040000000000020e+02 2.072619999999999891e+03
9.700000000000000289e-02 1.817485000000000073e-01 3.834650000000000603e+01 1.417515000000000214e+02 2.073310000000000400e+03
9.800000000000000377e-02 1.818274999999999753e-01 3.854755000000000109e+01 1.433870000000000005e+02 2.073925000000000182e+03
9.900000000000000466e-02 1.818945000000000145e-01 3.861424999999999841e+01 1.446965000000000146e+02 2.074444999999999709e+03
1.000000000000000056e-01 1.819500000000000006e-01 3.854415000000000191e+01 1.456759999999999877e+02 2.074880000000000109e+03
1.010000000000000064e-01 1.819925000000000015e-01 3.833865000000000123e+01 1.463319999999999936e+02 2.075220000000000255e+03
1.020000000000000073e-01 1.820235000000000047e-01 3.800310000000000343e+01 1.466790000000000020e+02 2.075465000000000146e+03
1.030000000000000082e-01 1.820430000000000104e-01 3.754640000000000555e+01 1.467409999999999854e+02 2.075625000000000000e+03
1.040000000000000091e-01 1.820509999999999906e-01 3.698094999999999999e+01 1.465494999999999948e+02 2.075699999999999818e+03
1.050000000000000100e-01 1.820499999999999896e-01 3.632155000000000200e+01 1.461425000000000125e+02 2.075699999999999818e+03
1.059999999999999970e-01 1.820404999999999940e-01 3.558534999999999826e+01 1.455585000000000093e+02 2.075635000000000218e+03
1.069999999999999979e-01 1.820239999999999914e-01 3.479040000000000532e+01 1.448419999999999845e+02 2.075519999999999982e+03
1.079999999999999988e-01 1.820019999999999971e-01 3.395524999999999949e+01 1.440350000000000250e+02 2.075360000000000127e+03
1.089999999999999997e-01 1.819759999999999989e-01 3.309819999999999851e+01 1.431779999999999973e+02 2.075170000000000073e+03
1.100000000000000006e-01 1.819479999999999986e-01 3.223645000000000493e+01 1.423075000000000045e+02 2.074954999999999927e+03
1.110000000000000014e-01 1.819184999999999830e-01 3.138544999999999874e+01 1.414569999999999936e+02 2.074730000000000018e+03
1.120000000000000023e-01 1.818890000000000229e-01 3.055845000000000056e+01 1.406514999999999986e+02 2.074510000000000218e+03
1.130000000000000032e-01 1.818609999999999949e-01 2.976600000000000179e+01 1.399110000000000014e+02 2.074295000000000073e+03
1.140000000000000041e-01 1.818339999999999956e-01 2.901579999999999870e+01 1.392475000000000023e+02 2.074085000000000036e+03
1.150000000000000050e-01 1.818099999999999994e-01 2.831235000000000213e+01 1.386659999999999968e+02 2.073894999999999982e+03
1.160000000000000059e-01 1.817880000000000051e-01 2.765709999999999980e+01 1.381645000000000039e+02 2.073730000000000018e+03
1.170000000000000068e-01 1.817684999999999995e-01 2.704844999999999899e+01 1.377350000000000136e+02 2.073574999999999818e+03
1.180000000000000077e-01 1.817515000000000103e-01 2.648199999999999932e+01 1.373620000000000232e+02 2.073440000000000055e+03
1.190000000000000085e-01 1.817360000000000086e-01 2.595094999999999885e+01 1.370264999999999986e+02 2.073320000000000164e+03
1.200000000000000094e-01 1.817215000000000080e-01 2.544660000000000011e+01 1.367044999999999959e+02 2.073204999999999927e+03
1.209999999999999964e-01 1.817070000000000074e-01 2.495884999999999820e+01 1.363704999999999927e+02 2.073090000000000146e+03
1.219999999999999973e-01 1.816924999999999790e-01 2.447679999999999723e+01 1.359979999999999905e+02 2.072974999999999909e+03
1.229999999999999982e-01 1.816760000000000042e-01 2.398945000000000149e+01 1.355600000000000023e+02 2.072845000000000255e+03
1.239999999999999991e-01 1.816570000000000129e-01 2.348629999999999995e+01 1.350339999999999918e+02 2.072699999999999818e+03
1.250000000000000000e-01 1.816349999999999909e-01 2.295789999999999864e+01 1.343994999999999891e+02 2.072534999999999854e+03
1.260000000000000009e-01 1.816094999999999793e-01 2.239665000000000106e+01 1.336405000000000030e+02 2.072335000000000036e+03
1.270000000000000018e-01 1.815789999999999904e-01 2.179699999999999704e+01 1.327464999999999975e+02 2.072110000000000127e+03
1.280000000000000027e-01 1.815434999999999965e-01 2.115579999999999927e+01 1.317160000000000082e+02 2.071840000000000146e+03
1.290000000000000036e-01 1.815034999999999843e-01 2.047265000000000157e+01 1.305510000000000161e+02 2.071529999999999745e+03
1.300000000000000044e-01 1.814580000000000082e-01 1.975000000000000000e+01 1.292620000000000005e+02 2.071190000000000055e+03
1.310000000000000053e-01 1.814089999999999869e-01 1.899285000000000068e+01 1.278659999999999997e+02 2.070815000000000055e+03
1.320000000000000062e-01 1.813555000000000028e-01 1.820870000000000033e+01 1.263849999999999909e+02 2.070414999999999964e+03
1.330000000000000071e-01 1.812989999999999879e-01 1.740715000000000146e+01 1.248449999999999989e+02 2.069980000000000018e+03
1.340000000000000080e-01 1.812404999999999988e-01 1.659929999999999950e+01 1.232764999999999986e+02 2.069539999999999964e+03
1.350000000000000089e-01 1.811804999999999943e-01 1.579744999999999955e+01 1.217109999999999985e+02 2.069085000000000036e+03
1.360000000000000098e-01 1.811209999999999765e-01 1.501425000000000054e+01 1.201804999999999950e+02 2.068630000000000109e+03
1.370000000000000107e-01 1.810620000000000007e-01 1.426224999999999810e+01 1.187164999999999964e+02 2.068185000000000400e+03
1.380000000000000115e-01 1.810060000000000002e-01 1.355320000000000036e+01 1.173460000000000036e+02 2.067755000000000109e+03
1.390000000000000124e-01 1.809530000000000027e-01 1.289760000000000062e+01 1.160935000000000059e+02 2.067349999999999909e+03
1.400000000000000133e-01 1.809040000000000092e-01 1.230429999999999957e+01 1.149784999999999968e+02 2.066974999999999909e+03
1.410000000000000142e-01 1.808605000000000074e-01 1.178000000000000114e+01 1.140150000000000006e+02 2.066635000000000218e+03
1.420000000000000151e-01 1.808214999999999961e-01 1.132921999999999940e+01 1.132109999999999985e+02 2.066340000000000146e+03
1.430000000000000160e-01 1.807894999999999919e-01 1.095420999999999978e+01 1.125699999999999932e+02 2.066085000000000036e+03
1.440000000000000169e-01 1.807624999999999926e-01 1.065477500000000077e+01 1.120875000000000057e+02 2.065875000000000000e+03
1.450000000000000178e-01 1.807414999999999994e-01 1.042871500000000040e+01 1.117570000000000050e+02 2.065710000000000036e+03
1.459999999999999909e-01 1.807259999999999978e-01 1.027172000000000018e+01 1.115660000000000025e+02 2.065585000000000036e+03
1.469999999999999918e-01 1.807155000000000011e-01 1.017797499999999999e+01 1.114979999999999905e+02 2.065500000000000000e+03
1.479999999999999927e-01 1.807099999999999818e-01 1.014023500000000055e+01 1.115360000000000014e+02 2.065449999999999818e+03
1.489999999999999936e-01 1.807084999999999941e-01 1.015042000000000044e+01 1.116604999999999990e+02 2.065435000000000400e+03
1.499999999999999944e-01 1.807099999999999818e-01 1.019974500000000006e+01 1.118515000000000015e+02 2.065444999999999709e+03
1.509999999999999953e-01 1.807145000000000001e-01 1.027929500000000118e+01 1.120889999999999986e+02 2.065470000000000255e+03
1.519999999999999962e-01 1.807215000000000071e-01 1.038006999999999991e+01 1.123534999999999968e+02 2.065519999999999982e+03
1.529999999999999971e-01 1.807290000000000008e-01 1.049365000000000059e+01 1.126285000000000025e+02 2.065569999999999709e+03
1.539999999999999980e-01 1.807374999999999954e-01 1.061214999999999975e+01 1.128974999999999937e+02 2.065630000000000109e+03
1.549999999999999989e-01 1.807460000000000178e-01 1.072845000000000049e+01 1.131479999999999961e+02 2.065699999999999818e+03
1.559999999999999998e-01 1.807539999999999980e-01 1.083660000000000068e+01 1.133689999999999998e+02 2.065760000000000218e+03
1.570000000000000007e-01 1.807614999999999916e-01 1.093159999999999954e+01 1.135515000000000043e+02 2.065815000000000055e+03
1.580000000000000016e-01 1.807674999999999976e-01 1.100969999999999871e+01 1.136914999999999907e+02 2.065860000000000127e+03
1.590000000000000024e-01 1.807725000000000026e-01 1.106840000000000046e+01 1.137844999999999942e+02 2.065894999999999982e+03
