# t [s], A [cm^2], U [cm/s], P [cPa], c [cm/s]
1.000000000000000021e-03 5.143820000000000059e-01 5.173449999999996107e-03 1.075185000000000031e+02 1.586719999999999800e+03
2.000000000000000042e-03 5.143739999999999979e-01 -1.597234499999999847e-03 1.074945000000000022e+02 1.586715000000000146e+03
3.000000000000000062e-03 5.144104999999999928e-01 7.326705000000000023e-02 1.075739999999999981e+02 1.586735000000000127e+03
4.000000000000000083e-03 5.144529999999999381e-01 1.659038499999999916e-01 1.076929999999999978e+02 1.586764999999999873e+03
5.000000000000000104e-03 5.144455000000000000e-01 1.635659999999999892e-01 1.076809999999999974e+02 1.586764999999999873e+03
6.000000000000000125e-03 5.144005000000000383e-01 8.191699999999998982e-02 1.075155000000000030e+02 1.586730000000000018e+03
7.000000000000000146e-03 5.143590000000000106e-01 2.358000000000026741e-03 1.072890000000000015e+02 1.586679999999999836e+03
8.000000000000000167e-03 5.143064999999999998e-01 -1.097524999999999751e-01 1.069780000000000086e+02 1.586605000000000018e+03
9.000000000000001055e-03 5.142145000000000188e-01 -3.178649999999999531e-01 1.064985000000000070e+02 1.586500000000000000e+03
1.000000000000000194e-02 5.140765000000000473e-01 -6.340850000000000097e-01 1.058019999999999925e+02 1.586335000000000036e+03
1.099999999999999936e-02 5.138840000000000074e-01 -1.070420000000000149e+00 1.048404999999999916e+02 1.586115000000000009e+03
1.200000000000000025e-02 5.136240000000000805e-01 -1.640899999999999803e+00 1.035576000000000079e+02 1.585809999999999945e+03
1.300000000000000114e-02 5.133039999999999825e-01 -2.309819999999999762e+00 1.019546500000000009e+02 1.585424999999999955e+03
1.400000000000000203e-02 5.129595000000000127e-01 -2.974604999999999944e+00 1.001330999999999989e+02 1.584970000000000027e+03
1.499999999999999944e-02 5.126370000000000093e-01 -3.507264999999999855e+00 9.825894999999999868e+01 1.584490000000000009e+03
1.600000000000000033e-02 5.123655000000000292e-01 -3.811128499999999697e+00 9.648810000000000286e+01 1.584005000000000109e+03
1.700000000000000122e-02 5.121510000000000229e-01 -3.851778299999999877e+00 9.491155000000000541e+01 1.583554999999999836e+03
1.800000000000000211e-02 5.119779999999999331e-01 -3.655082999999999860e+00 9.353730000000000189e+01 1.583139999999999873e+03
1.900000000000000300e-02 5.118175000000000363e-01 -3.284825000000000106e+00 9.230610000000000070e+01 1.582750000000000000e+03
2.000000000000000042e-02 5.116425000000000001e-01 -2.814377499999999976e+00 9.112515000000000498e+01 1.582365000000000009e+03
2.100000000000000130e-02 5.114354999999999318e-01 -2.302156000000000091e+00 8.990500000000000114e+01 1.581980000000000018e+03
2.200000000000000219e-02 5.111909999999999510e-01 -1.776954999999999840e+00 8.858895000000001119e+01 1.581565000000000055e+03
2.299999999999999961e-02 5.109159999999999258e-01 -1.236434999999999951e+00 8.716604999999999848e+01 1.581130000000000109e+03
2.400000000000000050e-02 5.106254999999999544e-01 -6.579399999999997473e-01 8.566564999999999941e+01 1.580670000000000073e+03
2.500000000000000139e-02 5.103354999999999420e-01 -1.611999999999991218e-02 8.413705000000000211e+01 1.580204999999999927e+03
2.600000000000000228e-02 5.100540000000000074e-01 7.001949999999999008e-01 8.262479999999999336e+01 1.579735000000000127e+03
2.700000000000000316e-02 5.097819999999999574e-01 1.477815000000000101e+00 8.114840000000000941e+01 1.579275000000000091e+03
2.800000000000000058e-02 5.095089999999999897e-01 2.277855000000000185e+00 7.969204999999999472e+01 1.578815000000000055e+03
2.900000000000000147e-02 5.092179999999999485e-01 3.042190000000000616e+00 7.820720000000000027e+01 1.578349999999999909e+03
3.000000000000000236e-02 5.088924999999999699e-01 3.705295000000000449e+00 7.662335000000000207e+01 1.577865000000000009e+03
3.099999999999999978e-02 5.085159999999999680e-01 4.208230000000000359e+00 7.486709999999999354e+01 1.577345000000000027e+03
3.200000000000000067e-02 5.080804999999999350e-01 4.511629999999999363e+00 7.288210000000000832e+01 1.576769999999999982e+03
3.300000000000000155e-02 5.075884999999999980e-01 4.604095000000000049e+00 7.064639999999999986e+01 1.576144999999999982e+03
3.400000000000000244e-02 5.070520000000000582e-01 4.504714999999999137e+00 6.818180000000000973e+01 1.575465000000000146e+03
3.500000000000000333e-02 5.064910000000000245e-01 4.257895000000000429e+00 6.555339999999999634e+01 1.574740000000000009e+03
3.600000000000000422e-02 5.059320000000000483e-01 3.924124999999999641e+00 6.285954999999999870e+01 1.573994999999999891e+03
3.700000000000000511e-02 5.053990000000000427e-01 3.568170000000000286e+00 6.021665000000000134e+01 1.573260000000000218e+03
3.799999999999999906e-02 5.049150000000000027e-01 3.249515000000000153e+00 5.774269999999999925e+01 1.572554999999999836e+03
3.899999999999999994e-02 5.044975000000000431e-01 3.015765000000000029e+00 5.554305000000000092e+01 1.571914999999999964e+03
4.000000000000000083e-02 5.041575000000000362e-01 2.899829999999999686e+00 5.370170000000000243e+01 1.571355000000000018e+03
4.100000000000000172e-02 5.039009999999999323e-01 2.920905000000000307e+00 5.227679999999999438e+01 1.570909999999999854e+03
4.200000000000000261e-02 5.037304999999999700e-01 3.087402499999999606e+00 5.130180000000000007e+01 1.570565000000000055e+03
4.300000000000000350e-02 5.036450000000000093e-01 3.401100000000000012e+00 5.078920000000000101e+01 1.570355000000000018e+03
4.400000000000000439e-02 5.036429999999999518e-01 3.861144999999999605e+00 5.073669999999999902e+01 1.570259999999999991e+03
4.499999999999999833e-02 5.037220000000000031e-01 4.467084999999999972e+00 5.113315000000000055e+01 1.570295000000000073e+03
4.599999999999999922e-02 5.038799999999999946e-01 5.220285000000000508e+00 5.196354999999999791e+01 1.570450000000000045e+03
4.700000000000000011e-02 5.041145000000000209e-01 6.123665000000000802e+00 5.321189999999999998e+01 1.570720000000000027e+03
4.800000000000000100e-02 5.044245000000000534e-01 7.180139999999999745e+00 5.486149999999999238e+01 1.571110000000000127e+03
4.900000000000000189e-02 5.048064999999999358e-01 8.390444999999999709e+00 5.689430000000000121e+01 1.571615000000000009e+03
5.000000000000000278e-02 5.052579999999999849e-01 9.750825000000000742e+00 5.928815000000000168e+01 1.572214999999999918e+03
5.100000000000000366e-02 5.057724999999999582e-01 1.125174499999999966e+01 6.201514999999999844e+01 1.572920000000000073e+03
5.200000000000000455e-02 5.063414999999999999e-01 1.287741500000000094e+01 6.504025000000000034e+01 1.573710000000000036e+03
5.300000000000000544e-02 5.069569999999999910e-01 1.460611499999999907e+01 6.832139999999999702e+01 1.574579999999999927e+03
5.399999999999999939e-02 5.076089999999999769e-01 1.641193499999999972e+01 7.181040000000000134e+01 1.575519999999999982e+03
5.500000000000000028e-02 5.082860000000000156e-01 1.826675499999999985e+01 7.545555000000000234e+01 1.576505000000000109e+03
5.600000000000000117e-02 5.089789999999999592e-01 2.014195000000000135e+01 7.920435000000000514e+01 1.577539999999999964e+03
5.700000000000000205e-02 5.096780000000000754e-01 2.201105000000000089e+01 8.300674999999999670e+01 1.578595000000000027e+03
5.800000000000000294e-02 5.103760000000000518e-01 2.385060000000000002e+01 8.681864999999999100e+01 1.579664999999999964e+03
5.900000000000000383e-02 5.110670000000000490e-01 2.564159999999999684e+01 9.060195000000000221e+01 1.580744999999999891e+03
6.000000000000000472e-02 5.117464999999999931e-01 2.736979999999999791e+01 9.432835000000000036e+01 1.581815000000000055e+03
6.099999999999999867e-02 5.124130000000000074e-01 2.902560000000000073e+01 9.797944999999999993e+01 1.582869999999999891e+03
6.199999999999999956e-02 5.130645000000000344e-01 3.060369999999999635e+01 1.015439499999999953e+02 1.583910000000000082e+03
6.300000000000000044e-02 5.137024999999999508e-01 3.210215000000000174e+01 1.050201500000000010e+02 1.584934999999999945e+03
6.400000000000000133e-02 5.143275000000000485e-01 3.352159999999999940e+01 1.084114000000000004e+02 1.585940000000000055e+03
6.500000000000000222e-02 5.149424999999999697e-01 3.486475000000000080e+01 1.117259999999999991e+02 1.586924999999999955e+03
6.600000000000000311e-02 5.155490000000000350e-01 3.613514999999999588e+01 1.149759999999999991e+02 1.587900000000000091e+03
6.700000000000000400e-02 5.161480000000000512e-01 3.733689999999999998e+01 1.181730000000000018e+02 1.588855000000000018e+03
6.800000000000000488e-02 5.167435000000000223e-01 3.847379999999999711e+01 1.213284999999999911e+02 1.589799999999999955e+03
6.900000000000000577e-02 5.173349999999999893e-01 3.954869999999999663e+01 1.244519999999999982e+02 1.590735000000000127e+03
7.000000000000000666e-02 5.179245000000000099e-01 4.056354999999999933e+01 1.275499999999999972e+02 1.591664999999999964e+03
7.100000000000000755e-02 5.185104999999999853e-01 4.151869999999999550e+01 1.306245000000000118e+02 1.592590000000000146e+03
7.200000000000000844e-02 5.190930000000000266e-01 4.241290000000000049e+01 1.336724999999999852e+02 1.593505000000000109e+03
7.300000000000000933e-02 5.196689999999999365e-01 4.324344999999999573e+01 1.366870000000000118e+02 1.594414999999999964e+03
7.399999999999999634e-02 5.202360000000000317e-01 4.400605000000000189e+01 1.396570000000000107e+02 1.595309999999999945e+03
7.499999999999999722e-02 5.207915000000000738e-01 4.469559999999999889e+01 1.425664999999999907e+02 1.596190000000000055e+03
7.599999999999999811e-02 5.213315000000000587e-01 4.530630000000000024e+01 1.453979999999999961e+02 1.597054999999999836e+03
7.699999999999999900e-02 5.218524999999999414e-01 4.583214999999999861e+01 1.481320000000000050e+02 1.597889999999999873e+03
7.799999999999999989e-02 5.223505000000000509e-01 4.626754999999999995e+01 1.507490000000000236e+02 1.598694999999999936e+03
7.900000000000000078e-02 5.228220000000000089e-01 4.660745000000000005e+01 1.532299999999999898e+02 1.599464999999999918e+03
8.000000000000000167e-02 5.232645000000000213e-01 4.684794999999999732e+01 1.555579999999999927e+02 1.600190000000000055e+03
8.100000000000000255e-02 5.236754999999999605e-01 4.698635000000000161e+01 1.577180000000000177e+02 1.600875000000000000e+03
8.200000000000000344e-02 5.240525000000000322e-01 4.702124999999999488e+01 1.596985000000000241e+02 1.601505000000000109e+03
8.300000000000000433e-02 5.243949999999999445e-01 4.695279999999999632e+01 1.614909999999999854e+02 1.602079999999999927e+03
8.400000000000000522e-02 5.247015000000000429e-01 4.678265000000000384e+01 1.630910000000000082e+02 1.602609999999999900e+03
8.500000000000000611e-02 5.249725000000000641e-01 4.651380000000000337e+01 1.644975000000000023e+02 1.603074999999999818e+03
8.600000000000000699e-02 5.252084999999999670e-01 4.615080000000000382e+01 1.657124999999999773e+02 1.603490000000000009e+03
8.700000000000000788e-02 5.254105000000000025e-01 4.569944999999999879e+01 1.667425000000000068e+02 1.603849999999999909e+03
8.800000000000000877e-02 5.255805000000000060e-01 4.516679999999999495e+01 1.675960000000000036e+02 1.604155000000000200e+03
8.899999999999999578e-02 5.257209999999999939e-01 4.456119999999999948e+01 1.682839999999999918e+02 1.604414999999999964e+03
8.999999999999999667e-02 5.258335000000000647e-01 4.389185000000000514e+01 1.688210000000000264e+02 1.604619999999999891e+03
9.099999999999999756e-02 5.259224999999999595e-01 4.316884999999999906e+01 1.692220000000000084e+02 1.604789999999999964e+03
9.199999999999999845e-02 5.259894999999999987e-01 4.240279999999999916e+01 1.695049999999999955e+02 1.604914999999999964e+03
9.299999999999999933e-02 5.260390000000000343e-01 4.160439999999999827e+01 1.696860000000000070e+02 1.605014999999999873e+03
9.400000000000000022e-02 5.260730000000000128e-01 4.078444999999999965e+01 1.697855000000000132e+02 1.605079999999999927e+03
9.500000000000000111e-02 5.260964999999999669e-01 3.995329999999999870e+01 1.698199999999999932e+02 1.605125000000000000e+03
9.600000000000000200e-02 5.261109999999999953e-01 3.912035000000000196e+01 1.698054999999999950e+02 1.605144999999999982e+03
9.700000000000000289e-02 5.261194999999999622e-01 3.829384999999999906e+01 1.697579999999999814e+02 1.605154999999999973e+03
9.800000000000000377e-02 5.261240000000000361e-01 3.748080000000000211e+01 1.696904999999999859e+02 1.605154999999999973e+03
9.900000000000000466e-02 5.261265000000000525e-01 3.668625000000000114e+01 1.696115000000000066e+02 1.605144999999999982e+03
1.000000000000000056e-01 5.261275000000000812e-01 3.591384999999999650e+01 1.695279999999999916e+02 1.605134999999999991e+03
1.010000000000000064e-01 5.261270000000000113e-01 3.516510000000000247e+01 1.694445000000000050e+02 1.605115000000000009e+03
1.020000000000000073e-01 5.261255000000000237e-01 3.443999999999999773e+01 1.693615000000000066e+02 1.605095000000000027e+03
1.030000000000000082e-01 5.261219999999999786e-01 3.373689999999999856e+01 1.692760000000000105e+02 1.605069999999999936e+03
1.040000000000000091e-01 5.261160000000000281e-01 3.305275000000000318e+01 1.691839999999999975e+02 1.605045000000000073e+03
1.050000000000000100e-01 5.261050000000000448e-01 3.238354999999999961e+01 1.690780000000000030e+02 1.605019999999999982e+03
1.059999999999999970e-01 5.260884999999999589e-01 3.172460000000000235e+01 1.689510000000000218e+02 1.604974999999999909e+03
1.069999999999999979e-01 5.260639999999999761e-01 3.107059999999999889e+01 1.687924999999999898e+02 1.604934999999999945e+03
1.079999999999999988e-01 5.260299999999999976e-01 3.041635000000000133e+01 1.685944999999999823e+02 1.604875000000000000e+03
1.089999999999999997e-01 5.259860000000000646e-01 2.975670000000000215e+01 1.683480000000000132e+02 1.604809999999999945e+03
1.100000000000000006e-01 5.259294999999999387e-01 2.908709999999999951e+01 1.680444999999999993e+02 1.604724999999999909e+03
1.110000000000000014e-01 5.258605000000000640e-01 2.840364999999999895e+01 1.676784999999999854e+02 1.604630000000000109e+03
1.120000000000000023e-01 5.257779999999999676e-01 2.770329999999999870e+01 1.672450000000000045e+02 1.604509999999999991e+03
1.130000000000000032e-01 5.256815000000000238e-01 2.698425000000000296e+01 1.667414999999999736e+02 1.604369999999999891e+03
1.140000000000000041e-01 5.255710000000000104e-01 2.624575000000000102e+01 1.661680000000000064e+02 1.604214999999999918e+03
1.150000000000000050e-01 5.254480000000000262e-01 2.548829999999999885e+01 1.655264999999999986e+02 1.604034999999999854e+03
1.160000000000000059e-01 5.253130000000000299e-01 2.471379999999999910e+01 1.648224999999999909e+02 1.603839999999999918e+03
1.170000000000000068e-01 5.251684999999999270e-01 2.392530000000000001e+01 1.640620000000000118e+02 1.603625000000000000e+03
1.180000000000000077e-01 5.250150000000000095e-01 2.312689999999999912e+01 1.632545000000000073e+02 1.603400000000000091e+03
1.190000000000000085e-01 5.248559999999999892e-01 2.232390000000000185e+01 1.624110000000000014e+02 1.603164999999999964e+03
1.200000000000000094e-01 5.246935000000000349e-01 2.152224999999999966e+01 1.615434999999999945e+02 1.602920000000000073e+03
1.209999999999999964e-01 5.245295000000000929e-01 2.072844999999999871e+01 1.606649999999999920e+02 1.602664999999999964e+03
1.219999999999999973e-01 5.243670000000000275e-01 1.994960000000000022e+01 1.597900000000000205e+02 1.602414999999999964e+03
1.229999999999999982e-01 5.242089999999999250e-01 1.919249999999999901e+01 1.589325000000000045e+02 1.602164999999999964e+03
1.239999999999999991e-01 5.240574999999999539e-01 1.846405000000000030e+01 1.581045000000000016e+02 1.601925000000000182e+03
1.250000000000000000e-01 5.239145000000000607e-01 1.777049999999999841e+01 1.573204999999999814e+02 1.601684999999999945e+03
1.260000000000000009e-01 5.237834999999999575e-01 1.711749999999999972e+01 1.565889999999999986e+02 1.601465000000000146e+03
1.270000000000000018e-01 5.236634999999999485e-01 1.650979999999999848e+01 1.559209999999999923e+02 1.601259999999999991e+03
1.280000000000000027e-01 5.235575000000000090e-01 1.595100000000000051e+01 1.553224999999999909e+02 1.601075000000000045e+03
1.290000000000000036e-01 5.234655000000000280e-01 1.544350000000000023e+01 1.547984999999999900e+02 1.600904999999999973e+03
1.300000000000000044e-01 5.233875000000000055e-01 1.498855000000000004e+01 1.543514999999999873e+02 1.600759999999999991e+03
1.310000000000000053e-01 5.233240000000000114e-01 1.458605000000000018e+01 1.539805000000000064e+02 1.600634999999999991e+03
1.320000000000000062e-01 5.232735000000000580e-01 1.423470000000000013e+01 1.536829999999999927e+02 1.600525000000000091e+03
1.330000000000000071e-01 5.232350000000000056e-01 1.393210000000000015e+01 1.534549999999999841e+02 1.600440000000000055e+03
1.340000000000000080e-01 5.232075000000000475e-01 1.367505000000000059e+01 1.532895000000000039e+02 1.600375000000000000e+03
1.350000000000000089e-01 5.231894999999999740e-01 1.345950000000000024e+01 1.531789999999999736e+02 1.600320000000000164e+03
1.360000000000000098e-01 5.231794999999999085e-01 1.328079999999999927e+01 1.531145000000000209e+02 1.600284999999999854e+03
1.370000000000000107e-01 5.231750000000000567e-01 1.313414999999999999e+01 1.530875000000000057e+02 1.600259999999999991e+03
1.380000000000000115e-01 5.231755000000000155e-01 1.301454999999999984e+01 1.530880000000000223e+02 1.600240000000000009e+03
1.390000000000000124e-01 5.231780000000000319e-01 1.291720000000000113e+01 1.531080000000000041e+02 1.600230000000000018e+03
1.400000000000000133e-01 5.231829999999999536e-01 1.283749999999999858e+01 1.531385000000000218e+02 1.600230000000000018e+03
1.410000000000000142e-01 5.231870000000000687e-01 1.277120000000000033e+01 1.531730000000000018e+02 1.600230000000000018e+03
1.420000000000000151e-01 5.231905000000000028e-01 1.271464999999999890e+01 1.532059999999999889e+02 1.600230000000000018e+03
1.430000000000000160e-01 5.231930000000000192e-01 1.266474999999999973e+01 1.532330000000000041e+02 1.600230000000000018e+03
1.440000000000000169e-01 5.231930000000000192e-01 1.261895000000000167e+01 1.532495000000000118e+02 1.600235000000000127e+03
1.450000000000000178e-01 5.231909999999999616e-01 1.257529999999999859e+01 1.532555000000000121e+02 1.600230000000000018e+03
1.459999999999999909e-01 5.231875000000000275e-01 1.253245000000000076e+01 1.532489999999999952e+02 1.600224999999999909e+03
1.469999999999999918e-01 5.231820000000000359e-01 1.248939999999999984e+01 1.532309999999999945e+02 1.600215000000000146e+03
1.479999999999999927e-01 5.231740000000000279e-01 1.244575000000000031e+01 1.532035000000000196e+02 1.600204999999999927e+03
1.489999999999999936e-01 5.231649999999999912e-01 1.240139999999999887e+01 1.531664999999999850e+02 1.600195000000000164e+03
1.499999999999999944e-01 5.231554999999999955e-01 1.235650000000000048e+01 1.531239999999999952e+02 1.600184999999999945e+03
1.509999999999999953e-01 5.231459999999999999e-01 1.231145000000000067e+01 1.530774999999999864e+02 1.600170000000000073e+03
1.519999999999999962e-01 5.231360000000000454e-01 1.226670000000000016e+01 1.530305000000000177e+02 1.600160000000000082e+03
1.529999999999999971e-01 5.231270000000000087e-01 1.222295000000000087e+01 1.529855000000000018e+02 1.600144999999999982e+03
1.539999999999999980e-01 5.231185000000000418e-01 1.218074999999999974e+01 1.529435000000000002e+02 1.600130000000000109e+03
1.549999999999999989e-01 5.231120000000000214e-01 1.214065000000000083e+01 1.529074999999999989e+02 1.600119999999999891e+03
1.559999999999999998e-01 5.231065000000000298e-01 1.210309999999999953e+01 1.528790000000000191e+02 1.600115000000000009e+03
1.570000000000000007e-01 5.231029999999999847e-01 1.206859999999999999e+01 1.528580000000000041e+02 1.600105000000000018e+03
1.580000000000000016e-01 5.231004999999999683e-01 1.203715000000000046e+01 1.528464999999999918e+02 1.600099999999999909e+03
1.590000000000000024e-01 5.231004999999999683e-01 1.200900000000000034e+01 1.528429999999999893e+02 1.600099999999999909e+03
