# t [s], A [cm^2], U [cm/s], P [cPa], c [cm/s]
1.000000000000000021e-03 4.767914999999999792e-01 3.405999999999999306e-03 1.063409999999999940e+02 1.434244999999999891e+03
2.000000000000000042e-03 4.767854999999999732e-01 5.688464999999999754e-04 1.063265000000000100e+02 1.434240000000000009e+03
3.000000000000000062e-03 4.768105000000000260e-01 4.930410000000000348e-02 1.063704999999999927e+02 1.434255000000000109e+03
4.000000000000000083e-03 4.768525000000000125e-01 1.310357000000000049e-01 1.064675000000000011e+02 1.434289999999999964e+03
5.000000000000000104e-03 4.768629999999999813e-01 1.529988999999999932e-01 1.064994999999999976e+02 1.434304999999999836e+03
6.000000000000000125e-03 4.768375000000000252e-01 1.046571000000000029e-01 1.064219999999999970e+02 1.434289999999999964e+03
7.000000000000000146e-03 4.768040000000000056e-01 3.759550000000000392e-02 1.062750000000000057e+02 1.434250000000000000e+03
8.000000000000000167e-03 4.767700000000000271e-01 -3.389949999999997132e-02 1.060805000000000007e+02 1.434200000000000045e+03
9.000000000000001055e-03 4.767160000000000286e-01 -1.536639999999999673e-01 1.057934999999999945e+02 1.434125000000000000e+03
1.000000000000000194e-02 4.766270000000000229e-01 -3.506350000000000300e-01 1.053679999999999950e+02 1.434005000000000109e+03
1.099999999999999936e-02 4.764990000000000059e-01 -6.306400000000000894e-01 1.047729999999999961e+02 1.433840000000000146e+03
1.200000000000000025e-02 4.763244999999999840e-01 -1.002789999999999848e+00 1.039735000000000014e+02 1.433615000000000009e+03
1.300000000000000114e-02 4.760950000000000459e-01 -1.471360000000000223e+00 1.029369000000000085e+02 1.433315000000000055e+03
1.400000000000000203e-02 4.758170000000000455e-01 -2.009060000000000290e+00 1.016664000000000101e+02 1.432934999999999945e+03
1.499999999999999944e-02 4.755125000000000046e-01 -2.549760000000000026e+00 1.002182999999999993e+02 1.432490000000000009e+03
1.600000000000000033e-02 4.752115000000000089e-01 -3.008989999999999831e+00 9.868755000000000166e+01 1.432005000000000109e+03
1.700000000000000122e-02 4.749375000000000124e-01 -3.314075000000000326e+00 9.717669999999999675e+01 1.431509999999999991e+03
1.800000000000000211e-02 4.747029999999999861e-01 -3.424887999999999710e+00 9.576069999999999993e+01 1.431019999999999982e+03
1.900000000000000300e-02 4.745034999999999670e-01 -3.338885000000000325e+00 9.447405000000000541e+01 1.430554999999999836e+03
2.000000000000000042e-02 4.743254999999999555e-01 -3.083697000000000354e+00 9.330895000000001005e+01 1.430110000000000127e+03
2.100000000000000130e-02 4.741524999999999768e-01 -2.703586000000000045e+00 9.222690000000000055e+01 1.429679999999999836e+03
2.200000000000000219e-02 4.739674999999999860e-01 -2.244879999999999765e+00 9.117510000000000048e+01 1.429259999999999991e+03
2.299999999999999961e-02 4.737605000000000288e-01 -1.744169999999999998e+00 9.010380000000000678e+01 1.428829999999999927e+03
2.400000000000000050e-02 4.735264999999999613e-01 -1.221530000000000005e+00 8.897919999999999163e+01 1.428384999999999991e+03
2.500000000000000139e-02 4.732699999999999685e-01 -6.799949999999999051e-01 8.778995000000000459e+01 1.427914999999999964e+03
2.600000000000000228e-02 4.729984999999999884e-01 -1.106350000000002609e-01 8.654554999999999154e+01 1.427434999999999945e+03
2.700000000000000316e-02 4.727215000000000167e-01 4.990299999999998626e-01 8.526830000000001064e+01 1.426944999999999936e+03
2.800000000000000058e-02 4.724444999999999895e-01 1.156500000000000306e+00 8.398265000000000668e+01 1.426440000000000055e+03
2.900000000000000147e-02 4.721710000000000074e-01 1.858140000000000125e+00 8.270529999999999404e+01 1.425945000000000164e+03
3.000000000000000236e-02 4.718984999999999985e-01 2.586789999999999701e+00 8.143834999999999980e+01 1.425445000000000164e+03
3.099999999999999978e-02 4.716190000000000104e-01 3.313179999999999570e+00 8.016759999999999309e+01 1.424944999999999936e+03
3.200000000000000067e-02 4.713230000000000475e-01 4.000360000000000582e+00 7.886510000000001241e+01 1.424434999999999945e+03
3.300000000000000155e-02 4.710019999999999762e-01 4.609854999999999592e+00 7.749514999999999532e+01 1.423904999999999973e+03
3.400000000000000244e-02 4.706464999999999677e-01 5.108469999999999622e+00 7.602264999999999873e+01 1.423349999999999909e+03
3.500000000000000333e-02 4.702545000000000197e-01 5.473929999999999296e+00 7.442130000000000223e+01 1.422759999999999991e+03
3.600000000000000422e-02 4.698259999999999659e-01 5.698939999999999451e+00 7.268155000000000143e+01 1.422134999999999991e+03
3.700000000000000511e-02 4.693680000000000074e-01 5.792175000000000296e+00 7.081440000000000623e+01 1.421470000000000027e+03
3.799999999999999906e-02 4.688924999999999899e-01 5.776870000000000616e+00 6.885210000000000719e+01 1.420779999999999973e+03
3.899999999999999994e-02 4.684144999999999559e-01 5.686519999999999797e+00 6.684540000000001214e+01 1.420069999999999936e+03
4.000000000000000083e-02 4.679504999999999915e-01 5.560315000000000119e+00 6.485745000000000005e+01 1.419375000000000000e+03
4.100000000000000172e-02 4.675150000000000139e-01 5.437715000000000742e+00 6.295734999999999815e+01 1.418690000000000055e+03
4.200000000000000261e-02 4.671235000000000248e-01 5.354645000000000543e+00 6.121300000000000097e+01 1.418055000000000064e+03
4.300000000000000350e-02 4.667864999999999931e-01 5.340815000000000090e+00 5.968565000000000254e+01 1.417485000000000127e+03
4.400000000000000439e-02 4.665130000000000110e-01 5.418501499999999638e+00 5.842614999999999981e+01 1.416994999999999891e+03
4.499999999999999833e-02 4.663085000000000147e-01 5.603040000000000020e+00 5.747289999999999566e+01 1.416599999999999909e+03
4.599999999999999922e-02 4.661764999999999937e-01 5.903915000000000468e+00 5.685214999999999463e+01 1.416304999999999836e+03
4.700000000000000011e-02 4.661180000000000323e-01 6.326274999999999871e+00 5.657864999999999611e+01 1.416130000000000109e+03
4.800000000000000100e-02 4.661335000000000339e-01 6.872854999999999492e+00 5.665824999999999534e+01 1.416070000000000164e+03
4.900000000000000189e-02 4.662220000000000253e-01 7.545180000000000220e+00 5.708979999999999677e+01 1.416135000000000218e+03
5.000000000000000278e-02 4.663829999999999920e-01 8.344374999999999432e+00 5.786779999999999546e+01 1.416315000000000055e+03
5.100000000000000366e-02 4.666139999999999732e-01 9.271304999999999907e+00 5.898315000000000197e+01 1.416619999999999891e+03
5.200000000000000455e-02 4.669145000000000101e-01 1.032608499999999907e+01 6.042450000000000188e+01 1.417039999999999964e+03
5.300000000000000544e-02 4.672804999999999875e-01 1.150753000000000092e+01 6.217825000000000557e+01 1.417570000000000164e+03
5.399999999999999939e-02 4.677105000000000290e-01 1.281195000000000128e+01 6.422769999999999868e+01 1.418204999999999927e+03
5.500000000000000028e-02 4.681990000000000318e-01 1.423272499999999852e+01 6.655320000000000391e+01 1.418945000000000164e+03
5.600000000000000117e-02 4.687409999999999632e-01 1.575975500000000018e+01 6.913110000000000355e+01 1.419779999999999973e+03
5.700000000000000205e-02 4.693300000000000249e-01 1.737959000000000032e+01 7.193404999999999916e+01 1.420699999999999818e+03
5.800000000000000294e-02 4.699594999999999745e-01 1.907569999999999766e+01 7.493110000000000070e+01 1.421699999999999818e+03
5.900000000000000383e-02 4.706215000000000259e-01 2.082945000000000135e+01 7.808850000000001046e+01 1.422759999999999991e+03
6.000000000000000472e-02 4.713080000000000602e-01 2.262075000000000102e+01 8.137080000000000268e+01 1.423875000000000000e+03
6.099999999999999867e-02 4.720109999999999584e-01 2.442954999999999899e+01 8.474280000000000257e+01 1.425034999999999854e+03
6.199999999999999956e-02 4.727239999999999776e-01 2.623655000000000115e+01 8.816939999999999600e+01 1.426230000000000018e+03
6.300000000000000044e-02 4.734404999999999863e-01 2.802384999999999948e+01 9.161955000000000382e+01 1.427440000000000055e+03
6.400000000000000133e-02 4.741549999999999931e-01 2.977609999999999957e+01 9.506520000000000437e+01 1.428664999999999964e+03
6.500000000000000222e-02 4.748640000000000083e-01 3.148044999999999760e+01 9.848284999999999911e+01 1.429889999999999873e+03
6.600000000000000311e-02 4.755635000000000279e-01 3.312704999999999700e+01 1.018539999999999992e+02 1.431115000000000009e+03
6.700000000000000400e-02 4.762514999999999943e-01 3.470855000000000246e+01 1.051655999999999977e+02 1.432320000000000164e+03
6.800000000000000488e-02 4.769265000000000310e-01 3.622020000000000550e+01 1.084097500000000025e+02 1.433519999999999982e+03
6.900000000000000577e-02 4.775900000000000145e-01 3.765930000000000177e+01 1.115825499999999977e+02 1.434699999999999818e+03
7.000000000000000666e-02 4.782404999999999573e-01 3.902505000000000024e+01 1.146839999999999975e+02 1.435855000000000018e+03
7.100000000000000755e-02 4.788795000000000135e-01 4.031780000000000541e+01 1.177170000000000130e+02 1.436994999999999891e+03
7.200000000000000844e-02 4.795085000000000042e-01 4.153875000000000028e+01 1.206854999999999905e+02 1.438115000000000009e+03
7.300000000000000933e-02 4.801269999999999705e-01 4.268970000000000198e+01 1.235960000000000036e+02 1.439219999999999800e+03
7.399999999999999634e-02 4.807375000000000398e-01 4.377235000000000298e+01 1.264535000000000053e+02 1.440305000000000064e+03
7.499999999999999722e-02 4.813399999999999901e-01 4.478829999999999956e+01 1.292640000000000100e+02 1.441375000000000000e+03
7.599999999999999811e-02 4.819354999999999611e-01 4.573875000000000313e+01 1.320295000000000130e+02 1.442429999999999836e+03
7.699999999999999900e-02 4.825234999999999941e-01 4.662420000000000186e+01 1.347529999999999859e+02 1.443480000000000018e+03
7.799999999999999989e-02 4.831029999999999491e-01 4.744424999999999670e+01 1.374339999999999975e+02 1.444505000000000109e+03
7.900000000000000078e-02 4.836740000000000483e-01 4.819785000000000252e+01 1.400690000000000168e+02 1.445519999999999982e+03
8.000000000000000167e-02 4.842339999999999423e-01 4.888325000000000387e+01 1.426530000000000200e+02 1.446514999999999873e+03
8.100000000000000255e-02 4.847819999999999907e-01 4.949790000000000134e+01 1.451775000000000091e+02 1.447490000000000009e+03
8.200000000000000344e-02 4.853155000000000108e-01 5.003879999999999484e+01 1.476345000000000027e+02 1.448445000000000164e+03
8.300000000000000433e-02 4.858320000000000416e-01 5.050260000000000105e+01 1.500120000000000005e+02 1.449375000000000000e+03
8.400000000000000522e-02 4.863284999999999414e-01 5.088604999999999734e+01 1.522989999999999782e+02 1.450269999999999982e+03
8.500000000000000611e-02 4.868029999999999857e-01 5.118594999999999828e+01 1.544825000000000159e+02 1.451130000000000109e+03
8.600000000000000699e-02 4.872529999999999917e-01 5.139955000000000496e+01 1.565509999999999877e+02 1.451954999999999927e+03
8.700000000000000788e-02 4.876759999999999984e-01 5.152465000000000117e+01 1.584944999999999879e+02 1.452740000000000009e+03
8.800000000000000877e-02 4.880704999999999627e-01 5.155975000000000108e+01 1.603020000000000209e+02 1.453470000000000027e+03
8.899999999999999578e-02 4.884349999999999525e-01 5.150435000000000230e+01 1.619654999999999916e+02 1.454154999999999973e+03
8.999999999999999667e-02 4.887675000000000214e-01 5.135889999999999844e+01 1.634795000000000016e+02 1.454784999999999854e+03
9.099999999999999756e-02 4.890680000000000027e-01 5.112474999999999881e+01 1.648400000000000034e+02 1.455359999999999900e+03
9.199999999999999845e-02 4.893359999999999932e-01 5.080445000000000277e+01 1.660455000000000041e+02 1.455875000000000000e+03
9.299999999999999933e-02 4.895720000000000072e-01 5.040129999999999910e+01 1.670954999999999870e+02 1.456345000000000027e+03
9.400000000000000022e-02 4.897764999999999480e-01 4.991979999999999507e+01 1.679939999999999998e+02 1.456750000000000000e+03
9.500000000000000111e-02 4.899504999999999555e-01 4.936534999999999940e+01 1.687459999999999809e+02 1.457099999999999909e+03
9.600000000000000200e-02 4.900960000000000316e-01 4.874389999999999645e+01 1.693574999999999875e+02 1.457394999999999982e+03
9.700000000000000289e-02 4.902140000000000386e-01 4.806239999999999668e+01 1.698380000000000223e+02 1.457639999999999873e+03
9.800000000000000377e-02 4.903070000000000483e-01 4.732815000000000083e+01 1.701959999999999980e+02 1.457844999999999800e+03
9.900000000000000466e-02 4.903775000000000217e-01 4.654910000000000281e+01 1.704440000000000168e+02 1.457994999999999891e+03
1.000000000000000056e-01 4.904269999999999463e-01 4.573329999999999984e+01 1.705930000000000177e+02 1.458110000000000127e+03
1.010000000000000064e-01 4.904594999999999927e-01 4.488904999999999745e+01 1.706564999999999941e+02 1.458184999999999945e+03
1.020000000000000073e-01 4.904760000000000231e-01 4.402445000000000164e+01 1.706454999999999984e+02 1.458235000000000127e+03
1.030000000000000082e-01 4.904800000000000271e-01 4.314735000000000298e+01 1.705740000000000123e+02 1.458250000000000000e+03
1.040000000000000091e-01 4.904735000000000067e-01 4.226524999999999466e+01 1.704540000000000077e+02 1.458244999999999891e+03
1.050000000000000100e-01 4.904589999999999783e-01 4.138495000000000346e+01 1.702950000000000159e+02 1.458214999999999918e+03
1.059999999999999970e-01 4.904379999999999851e-01 4.051239999999999952e+01 1.701084999999999923e+02 1.458179999999999836e+03
1.069999999999999979e-01 4.904129999999999878e-01 3.965260000000000673e+01 1.699025000000000034e+02 1.458125000000000000e+03
1.079999999999999988e-01 4.903839999999999866e-01 3.880939999999999657e+01 1.696840000000000259e+02 1.458059999999999945e+03
1.089999999999999997e-01 4.903524999999999689e-01 3.798564999999999969e+01 1.694585000000000150e+02 1.457994999999999891e+03
1.100000000000000006e-01 4.903195000000000192e-01 3.718285000000000196e+01 1.692289999999999850e+02 1.457914999999999964e+03
1.110000000000000014e-01 4.902850000000000263e-01 3.640149999999999864e+01 1.689975000000000023e+02 1.457840000000000146e+03
1.120000000000000023e-01 4.902484999999999760e-01 3.564090000000000202e+01 1.687629999999999768e+02 1.457755000000000109e+03
1.130000000000000032e-01 4.902090000000000058e-01 3.489945000000000164e+01 1.685240000000000009e+02 1.457675000000000182e+03
1.140000000000000041e-01 4.901665000000000050e-01 3.417470000000000141e+01 1.682775000000000034e+02 1.457579999999999927e+03
1.150000000000000050e-01 4.901204999999999590e-01 3.346365000000000123e+01 1.680180000000000007e+02 1.457484999999999900e+03
1.160000000000000059e-01 4.900685000000000180e-01 3.276265000000000072e+01 1.677420000000000186e+02 1.457380000000000109e+03
1.170000000000000068e-01 4.900100000000000011e-01 3.206794999999999618e+01 1.674424999999999955e+02 1.457269999999999982e+03
1.180000000000000077e-01 4.899445000000000050e-01 3.137575000000000003e+01 1.671145000000000209e+02 1.457154999999999973e+03
1.190000000000000085e-01 4.898700000000000276e-01 3.068234999999999957e+01 1.667520000000000095e+02 1.457025000000000091e+03
1.200000000000000094e-01 4.897865000000000135e-01 2.998434999999999917e+01 1.663505000000000109e+02 1.456880000000000109e+03
1.209999999999999964e-01 4.896924999999999750e-01 2.927864999999999895e+01 1.659060000000000059e+02 1.456720000000000027e+03
1.219999999999999973e-01 4.895880000000000232e-01 2.856284999999999741e+01 1.654145000000000039e+02 1.456539999999999964e+03
1.229999999999999982e-01 4.894724999999999770e-01 2.783520000000000039e+01 1.648739999999999952e+02 1.456349999999999909e+03
1.239999999999999991e-01 4.893459999999999477e-01 2.709455000000000169e+01 1.642839999999999918e+02 1.456139999999999873e+03
1.250000000000000000e-01 4.892090000000000050e-01 2.634060000000000201e+01 1.636444999999999936e+02 1.455914999999999964e+03
1.260000000000000009e-01 4.890615000000000379e-01 2.557365000000000066e+01 1.629579999999999984e+02 1.455670000000000073e+03
1.270000000000000018e-01 4.889044999999999641e-01 2.479495000000000005e+01 1.622270000000000039e+02 1.455409999999999854e+03
1.280000000000000027e-01 4.887394999999999934e-01 2.400629999999999953e+01 1.614560000000000173e+02 1.455139999999999873e+03
1.290000000000000036e-01 4.885669999999999735e-01 2.321025000000000205e+01 1.606505000000000223e+02 1.454849999999999909e+03
1.300000000000000044e-01 4.883895000000000319e-01 2.240984999999999872e+01 1.598154999999999859e+02 1.454549999999999955e+03
1.310000000000000053e-01 4.882075000000000164e-01 2.160865000000000080e+01 1.589590000000000032e+02 1.454244999999999891e+03
1.320000000000000062e-01 4.880229999999999846e-01 2.081070000000000064e+01 1.580885000000000105e+02 1.453929999999999836e+03
1.330000000000000071e-01 4.878374999999999795e-01 2.002025000000000077e+01 1.572110000000000127e+02 1.453610000000000127e+03
1.340000000000000080e-01 4.876524999999999888e-01 1.924170000000000158e+01 1.563344999999999914e+02 1.453289999999999964e+03
1.350000000000000089e-01 4.874705000000000288e-01 1.847944999999999993e+01 1.554680000000000177e+02 1.452970000000000027e+03
1.360000000000000098e-01 4.872925000000000173e-01 1.773799999999999955e+01 1.546179999999999950e+02 1.452659999999999854e+03
1.370000000000000107e-01 4.871199999999999974e-01 1.702139999999999986e+01 1.537925000000000182e+02 1.452349999999999909e+03
1.380000000000000115e-01 4.869539999999999980e-01 1.633360000000000056e+01 1.529970000000000141e+02 1.452049999999999955e+03
1.390000000000000124e-01 4.867960000000000065e-01 1.567810000000000059e+01 1.522375000000000114e+02 1.451759999999999991e+03
1.400000000000000133e-01 4.866469999999999962e-01 1.505785000000000196e+01 1.515194999999999936e+02 1.451485000000000127e+03
1.410000000000000142e-01 4.865080000000000515e-01 1.447521000000000058e+01 1.508464999999999918e+02 1.451220000000000027e+03
1.420000000000000151e-01 4.863785000000000469e-01 1.393209000000000053e+01 1.502214999999999918e+02 1.450974999999999909e+03
1.430000000000000160e-01 4.862599999999999700e-01 1.342953999999999937e+01 1.496444999999999936e+02 1.450740000000000009e+03
1.440000000000000169e-01 4.861509999999999998e-01 1.296808000000000050e+01 1.491184999999999832e+02 1.450529999999999973e+03
1.450000000000000178e-01 4.860530000000000128e-01 1.254761999999999844e+01 1.486410000000000196e+02 1.450335000000000036e+03
1.459999999999999909e-01 4.859645000000000215e-01 1.216741000000000028e+01 1.482110000000000127e+02 1.450154999999999973e+03
1.469999999999999918e-01 4.858850000000000113e-01 1.182614999999999839e+01 1.478269999999999982e+02 1.449990000000000009e+03
1.479999999999999927e-01 4.858130000000000503e-01 1.152203000000000088e+01 1.474844999999999970e+02 1.449844999999999800e+03
1.489999999999999936e-01 4.857500000000000151e-01 1.125287000000000148e+01 1.471800000000000068e+02 1.449710000000000036e+03
1.499999999999999944e-01 4.856929999999999858e-01 1.101612499999999883e+01 1.469095000000000084e+02 1.449589999999999918e+03
1.509999999999999953e-01 4.856420000000000181e-01 1.080903999999999954e+01 1.466684999999999945e+02 1.449480000000000018e+03
1.519999999999999962e-01 4.855955000000000132e-01 1.062870500000000007e+01 1.464524999999999864e+02 1.449380000000000109e+03
1.529999999999999971e-01 4.855519999999999836e-01 1.047212499999999835e+01 1.462560000000000002e+02 1.449289999999999964e+03
1.539999999999999980e-01 4.855125000000000135e-01 1.033632500000000043e+01 1.460749999999999886e+02 1.449210000000000036e+03
1.549999999999999989e-01 4.854745000000000310e-01 1.021848499999999937e+01 1.459060000000000059e+02 1.449125000000000000e+03
1.559999999999999998e-01 4.854380000000000361e-01 1.011571999999999960e+01 1.457439999999999998e+02 1.449054999999999836e+03
1.570000000000000007e-01 4.854014999999999858e-01 1.002557499999999990e+01 1.455865000000000009e+02 1.448985000000000127e+03
1.580000000000000016e-01 4.853659999999999641e-01 9.945619999999999905e+00 1.454304999999999950e+02 1.448914999999999964e+03
1.590000000000000024e-01 4.853294999999999693e-01 9.873715000000000686e+00 1.452729999999999961e+02 1.448849999999999909e+03
