# t [s], A [cm^2], U [cm/s], P [cPa], c [cm/s]
1.000000000000000021e-03 6.673405000000000031e-01 2.245499999999997498e-03 9.186670000000000869e+01 1.688134999999999991e+03
2.000000000000000042e-03 6.673445000000000071e-01 2.729089999999999988e-02 9.185374999999999091e+01 1.688125000000000000e+03
3.000000000000000062e-03 6.674370000000000580e-01 2.087104999999999932e-01 9.205400000000000205e+01 1.688170000000000073e+03
4.000000000000000083e-03 6.674364999999999881e-01 2.421484999999999888e-01 9.206704999999999472e+01 1.688174999999999955e+03
5.000000000000000104e-03 6.673329999999999540e-01 8.665899999999998604e-02 9.172875000000000512e+01 1.688110000000000127e+03
6.000000000000000125e-03 6.672259999999999858e-01 -9.419999999999995044e-02 9.122265000000000157e+01 1.688000000000000000e+03
7.000000000000000146e-03 6.670540000000000358e-01 -4.129649999999999155e-01 9.043784999999999741e+01 1.687835000000000036e+03
8.000000000000000167e-03 6.667669999999999986e-01 -9.629550000000000054e-01 8.919769999999999754e+01 1.687570000000000164e+03
9.000000000000001055e-03 6.663760000000000794e-01 -1.710684999999999789e+00 8.747100000000000364e+01 1.687200000000000045e+03
1.000000000000000194e-02 6.658515000000000406e-01 -2.682220000000000049e+00 8.516955000000000098e+01 1.686694999999999936e+03
1.099999999999999936e-02 6.651819999999999400e-01 -3.866165000000000074e+00 8.224145000000000039e+01 1.686034999999999854e+03
1.200000000000000025e-02 6.644550000000000178e-01 -5.058184999999999931e+00 7.891495000000000459e+01 1.685275000000000091e+03
1.300000000000000114e-02 6.638234999999998998e-01 -5.929612499999999287e+00 7.568539999999998713e+01 1.684494999999999891e+03
1.400000000000000203e-02 6.633934999999999693e-01 -6.232314999999999827e+00 7.304269999999999641e+01 1.683815000000000055e+03
1.499999999999999944e-02 6.631754999999999178e-01 -5.924884999999999735e+00 7.122124999999999773e+01 1.683285000000000082e+03
1.600000000000000033e-02 6.630875000000000519e-01 -5.162480000000000402e+00 7.012604999999999222e+01 1.682900000000000091e+03
1.700000000000000122e-02 6.630130000000000745e-01 -4.205074999999999896e+00 6.941335000000000832e+01 1.682605000000000018e+03
1.800000000000000211e-02 6.628475000000000339e-01 -3.299405000000000143e+00 6.866084999999999638e+01 1.682324999999999818e+03
1.900000000000000300e-02 6.625445000000000917e-01 -2.581535500000000205e+00 6.755105000000000359e+01 1.681990000000000009e+03
2.000000000000000042e-02 6.621224999999999472e-01 -2.044704999999999995e+00 6.598255000000000337e+01 1.681569999999999936e+03
2.100000000000000130e-02 6.616419999999999524e-01 -1.586695000000000189e+00 6.405585000000000662e+01 1.681075000000000045e+03
2.200000000000000219e-02 6.611629999999999452e-01 -1.098805000000000254e+00 6.196195000000000164e+01 1.680529999999999973e+03
2.299999999999999961e-02 6.607099999999999085e-01 -5.403999999999999915e-01 5.985170000000000101e+01 1.679974999999999909e+03
2.400000000000000050e-02 6.602649999999999908e-01 3.159499999999981767e-02 5.774994999999999834e+01 1.679404999999999973e+03
2.500000000000000139e-02 6.597764999999999880e-01 4.778449999999998532e-01 5.553640000000000043e+01 1.678820000000000164e+03
2.600000000000000228e-02 6.591744999999999965e-01 6.214549999999996466e-01 5.298579999999999757e+01 1.678154999999999973e+03
2.700000000000000316e-02 6.584019999999999317e-01 3.054749999999999410e-01 4.984830000000000183e+01 1.677375000000000000e+03
2.800000000000000058e-02 6.574299999999999589e-01 -5.540300000000000225e-01 4.594355000000000189e+01 1.676430000000000064e+03
2.900000000000000147e-02 6.562759999999999705e-01 -1.936250000000000249e+00 4.123794999999999789e+01 1.675309999999999945e+03
3.000000000000000236e-02 6.549974999999998992e-01 -3.716569999999999929e+00 3.587700000000000244e+01 1.674045000000000073e+03
3.099999999999999978e-02 6.536839999999999318e-01 -5.697134999999999394e+00 3.016424999999999912e+01 1.672679999999999836e+03
3.200000000000000067e-02 6.524320000000000119e-01 -7.652754999999999974e+00 2.449978999999999729e+01 1.671299999999999955e+03
3.300000000000000155e-02 6.513305000000000344e-01 -9.373695000000001443e+00 1.930514999999999759e+01 1.669990000000000009e+03
3.400000000000000244e-02 6.504505000000000425e-01 -1.069462500000000027e+01 1.495620350000000087e+01 1.668849999999999909e+03
3.500000000000000333e-02 6.498359999999999692e-01 -1.150702000000000069e+01 1.173751500000000014e+01 1.667945000000000164e+03
3.600000000000000422e-02 6.495064999999999866e-01 -1.175755999999999979e+01 9.821709999999999496e+00 1.667329999999999927e+03
3.700000000000000511e-02 6.494649999999999590e-01 -1.143710000000000093e+01 9.271599999999999397e+00 1.667025000000000091e+03
3.799999999999999906e-02 6.496950000000000225e-01 -1.056640499999999960e+01 1.005911000000000044e+01 1.667045000000000073e+03
3.899999999999999994e-02 6.501744999999999886e-01 -9.182479999999999976e+00 1.209199500000000072e+01 1.667369999999999891e+03
4.000000000000000083e-02 6.508780000000000676e-01 -7.329839999999999023e+00 1.524040499999999909e+01 1.667990000000000009e+03
4.100000000000000172e-02 6.517745000000000344e-01 -5.057679999999999509e+00 1.935551000000000244e+01 1.668855000000000018e+03
4.200000000000000261e-02 6.528340000000000254e-01 -2.422050000000000480e+00 2.427893000000000256e+01 1.669944999999999936e+03
4.300000000000000350e-02 6.540219999999999922e-01 5.100500000000005585e-01 2.984440000000000026e+01 1.671215000000000146e+03
4.400000000000000439e-02 6.553024999999998990e-01 3.657899999999999707e+00 3.587604999999999933e+01 1.672630000000000109e+03
4.499999999999999833e-02 6.566324999999999523e-01 6.927759999999999252e+00 4.218819999999999482e+01 1.674134999999999991e+03
4.599999999999999922e-02 6.579705000000000137e-01 1.021714500000000037e+01 4.858950000000000102e+01 1.675694999999999936e+03
4.700000000000000011e-02 6.592765000000000430e-01 1.342249750000000041e+01 5.489179999999999637e+01 1.677259999999999991e+03
4.800000000000000100e-02 6.605140000000000455e-01 1.644785999999999859e+01 6.092190000000000083e+01 1.678780000000000200e+03
4.900000000000000189e-02 6.616549999999999931e-01 1.921300000000000097e+01 6.653484999999999161e+01 1.680240000000000009e+03
5.000000000000000278e-02 6.626819999999999933e-01 2.165919999999999845e+01 7.162420000000000186e+01 1.681585000000000036e+03
5.100000000000000366e-02 6.635849999999999804e-01 2.375229999999999819e+01 7.612944999999999141e+01 1.682809999999999945e+03
5.200000000000000455e-02 6.643674999999999997e-01 2.548259999999999792e+01 8.003740000000000521e+01 1.683900000000000091e+03
5.300000000000000544e-02 6.650389999999999358e-01 2.686220000000000141e+01 8.337845000000000084e+01 1.684860000000000127e+03
5.399999999999999939e-02 6.656169999999999032e-01 2.792089999999999961e+01 8.621965000000000146e+01 1.685700000000000045e+03
5.500000000000000028e-02 6.661224999999999508e-01 2.870159999999999911e+01 8.865479999999999450e+01 1.686429999999999836e+03
5.600000000000000117e-02 6.665794999999999915e-01 2.925585000000000235e+01 9.079470000000000596e+01 1.687085000000000036e+03
5.700000000000000205e-02 6.670110000000000205e-01 2.964039999999999964e+01 9.275804999999999723e+01 1.687684999999999945e+03
5.800000000000000294e-02 6.674415000000000209e-01 2.991445000000000221e+01 9.466365000000000407e+01 1.688255000000000109e+03
5.900000000000000383e-02 6.678934999999999178e-01 3.013680000000000092e+01 9.662430000000000518e+01 1.688820000000000164e+03
6.000000000000000472e-02 6.683874999999999122e-01 3.036364999999999981e+01 9.874170000000000869e+01 1.689414999999999964e+03
6.099999999999999867e-02 6.689399999999999791e-01 3.064535000000000053e+01 1.011009999999999991e+02 1.690055000000000064e+03
6.199999999999999956e-02 6.695630000000000193e-01 3.102315000000000111e+01 1.037669999999999959e+02 1.690759999999999991e+03
6.300000000000000044e-02 6.702624999999999833e-01 3.152599999999999980e+01 1.067770000000000010e+02 1.691545000000000073e+03
6.400000000000000133e-02 6.710380000000000233e-01 3.216779999999999973e+01 1.101390000000000100e+02 1.692400000000000091e+03
6.500000000000000222e-02 6.718819999999999792e-01 3.294615000000000293e+01 1.138305000000000007e+02 1.693335000000000036e+03
6.600000000000000311e-02 6.727799999999999336e-01 3.384210000000000207e+01 1.177950000000000017e+02 1.694344999999999800e+03
6.700000000000000400e-02 6.737115000000000187e-01 3.482224999999999682e+01 1.219495000000000005e+02 1.695405000000000200e+03
6.800000000000000488e-02 6.746529999999999472e-01 3.584140000000000015e+01 1.261875000000000000e+02 1.696485000000000127e+03
6.900000000000000577e-02 6.755765000000000242e-01 3.684690000000000509e+01 1.303880000000000052e+02 1.697574999999999818e+03
7.000000000000000666e-02 6.764559999999999462e-01 3.778289999999999793e+01 1.344234999999999900e+02 1.698630000000000109e+03
7.100000000000000755e-02 6.772650000000000059e-01 3.859465000000000146e+01 1.381714999999999804e+02 1.699630000000000109e+03
7.200000000000000844e-02 6.779809999999999448e-01 3.923260000000000502e+01 1.415215000000000032e+02 1.700545000000000073e+03
7.300000000000000933e-02 6.785874999999998991e-01 3.965569999999999595e+01 1.443810000000000002e+02 1.701345000000000027e+03
7.399999999999999634e-02 6.790709999999999802e-01 3.983330000000000126e+01 1.466845000000000141e+02 1.702019999999999982e+03
7.499999999999999722e-02 6.794260000000000854e-01 3.974734999999999729e+01 1.483924999999999841e+02 1.702549999999999955e+03
7.599999999999999811e-02 6.796524999999999928e-01 3.939244999999999663e+01 1.494954999999999927e+02 1.702924999999999955e+03
7.699999999999999900e-02 6.797554999999999570e-01 3.877564999999999884e+01 1.500124999999999886e+02 1.703164999999999964e+03
7.799999999999999989e-02 6.797469999999999901e-01 3.791594999999999516e+01 1.499875000000000114e+02 1.703255000000000109e+03
7.900000000000000078e-02 6.796409999999999396e-01 3.684239999999999782e+01 1.494864999999999782e+02 1.703219999999999800e+03
8.000000000000000167e-02 6.794560000000000599e-01 3.559239999999999782e+01 1.485935000000000059e+02 1.703085000000000036e+03
8.100000000000000255e-02 6.792130000000000667e-01 3.420944999999999681e+01 1.474025000000000034e+02 1.702855000000000018e+03
8.200000000000000344e-02 6.789325000000000498e-01 3.274074999999999847e+01 1.460140000000000100e+02 1.702565000000000055e+03
8.300000000000000433e-02 6.786364999999999759e-01 3.123469999999999658e+01 1.445299999999999727e+02 1.702230000000000018e+03
8.400000000000000522e-02 6.783444999999999059e-01 2.973825000000000074e+01 1.430464999999999804e+02 1.701889999999999873e+03
8.500000000000000611e-02 6.780740000000000656e-01 2.829495000000000005e+01 1.416519999999999868e+02 1.701545000000000073e+03
8.600000000000000699e-02 6.778405000000000680e-01 2.694225000000000136e+01 1.404200000000000159e+02 1.701235000000000127e+03
8.700000000000000788e-02 6.776550000000000074e-01 2.571059999999999945e+01 1.394080000000000155e+02 1.700965000000000146e+03
8.800000000000000877e-02 6.775249999999999329e-01 2.462154999999999916e+01 1.386555000000000177e+02 1.700755000000000109e+03
8.899999999999999578e-02 6.774534999999999307e-01 2.368755000000000166e+01 1.381829999999999927e+02 1.700599999999999909e+03
8.999999999999999667e-02 6.774389999999999024e-01 2.291140000000000043e+01 1.379909999999999854e+02 1.700514999999999873e+03
9.099999999999999756e-02 6.774774999999999547e-01 2.228685000000000116e+01 1.380620000000000118e+02 1.700490000000000009e+03
9.199999999999999845e-02 6.775610000000000799e-01 2.179930000000000234e+01 1.383634999999999877e+02 1.700525000000000091e+03
9.299999999999999933e-02 6.776780000000000026e-01 2.142709999999999937e+01 1.388485000000000014e+02 1.700614999999999782e+03
9.400000000000000022e-02 6.778174999999999617e-01 2.114300000000000068e+01 1.394594999999999914e+02 1.700735000000000127e+03
9.500000000000000111e-02 6.779649999999999288e-01 2.091610000000000014e+01 1.401340000000000146e+02 1.700875000000000000e+03
9.600000000000000200e-02 6.781060000000000976e-01 2.071334999999999837e+01 1.408060000000000116e+02 1.701025000000000091e+03
9.700000000000000289e-02 6.782280000000000530e-01 2.050205000000000055e+01 1.414114999999999895e+02 1.701170000000000073e+03
9.800000000000000377e-02 6.783190000000000053e-01 2.025130000000000052e+01 1.418905000000000030e+02 1.701284999999999854e+03
9.900000000000000466e-02 6.783689999999999998e-01 1.993390000000000128e+01 1.421924999999999955e+02 1.701365000000000009e+03
1.000000000000000056e-01 6.783694999999999586e-01 1.952779999999999916e+01 1.422769999999999868e+02 1.701400000000000091e+03
1.010000000000000064e-01 6.783164999999999889e-01 1.901720000000000255e+01 1.421170000000000186e+02 1.701380000000000109e+03
1.020000000000000073e-01 6.782079999999999220e-01 1.839349999999999952e+01 1.417005000000000052e+02 1.701299999999999955e+03
1.030000000000000082e-01 6.780464999999999964e-01 1.765500000000000114e+01 1.410294999999999845e+02 1.701159999999999854e+03
1.040000000000000091e-01 6.778355000000000352e-01 1.680790000000000006e+01 1.401209999999999809e+02 1.700954999999999927e+03
1.050000000000000100e-01 6.775830000000000464e-01 1.586485000000000056e+01 1.390035000000000025e+02 1.700700000000000045e+03
1.059999999999999970e-01 6.772979999999999556e-01 1.484468000000000032e+01 1.377189999999999941e+02 1.700400000000000091e+03
1.069999999999999979e-01 6.769924999999999971e-01 1.377130499999999991e+01 1.363174999999999955e+02 1.700070000000000164e+03
1.079999999999999988e-01 6.766780000000000017e-01 1.267209500000000055e+01 1.348545000000000016e+02 1.699710000000000036e+03
1.089999999999999997e-01 6.763669999999999405e-01 1.157653499999999980e+01 1.333890000000000100e+02 1.699349999999999909e+03
1.100000000000000006e-01 6.760725000000000762e-01 1.051449000000000034e+01 1.319799999999999898e+02 1.698994999999999891e+03
1.110000000000000014e-01 6.758055000000000589e-01 9.514409999999999812e+00 1.306825000000000045e+02 1.698654999999999973e+03
1.120000000000000023e-01 6.755754999999999955e-01 8.602040000000000575e+00 1.295434999999999945e+02 1.698355000000000018e+03
1.130000000000000032e-01 6.753905000000000047e-01 7.798724999999999241e+00 1.286034999999999968e+02 1.698095000000000027e+03
1.140000000000000041e-01 6.752555000000000085e-01 7.120570000000000732e+00 1.278894999999999982e+02 1.697880000000000109e+03
1.150000000000000050e-01 6.751724999999999532e-01 6.577545000000000641e+00 1.274174999999999898e+02 1.697730000000000018e+03
1.160000000000000059e-01 6.751415000000000610e-01 6.173235000000000028e+00 1.271899999999999977e+02 1.697634999999999991e+03
1.170000000000000068e-01 6.751590000000000646e-01 5.904830000000000467e+00 1.271979999999999933e+02 1.697599999999999909e+03
1.180000000000000077e-01 6.752205000000000013e-01 5.763524999999999565e+00 1.274189999999999969e+02 1.697615000000000009e+03
1.190000000000000085e-01 6.753179999999999739e-01 5.735219999999999985e+00 1.278225000000000051e+02 1.697679999999999836e+03
1.200000000000000094e-01 6.754424999999999457e-01 5.801479999999999748e+00 1.283695000000000164e+02 1.697784999999999854e+03
1.209999999999999964e-01 6.755849999999999911e-01 5.940620000000000012e+00 1.290155000000000030e+02 1.697920000000000073e+03
1.219999999999999973e-01 6.757349999999999746e-01 6.128960000000000186e+00 1.297144999999999868e+02 1.698075000000000045e+03
1.229999999999999982e-01 6.758824999999999417e-01 6.342055000000000220e+00 1.304174999999999898e+02 1.698235000000000127e+03
1.239999999999999991e-01 6.760184999999999667e-01 6.555939999999999657e+00 1.310805000000000007e+02 1.698394999999999982e+03
1.250000000000000000e-01 6.761340000000000128e-01 6.748230000000000395e+00 1.316620000000000061e+02 1.698534999999999854e+03
1.260000000000000009e-01 6.762224999999999486e-01 6.899094999999999978e+00 1.321274999999999977e+02 1.698659999999999854e+03
1.270000000000000018e-01 6.762795000000000334e-01 6.992085000000000328e+00 1.324490000000000123e+02 1.698744999999999891e+03
1.280000000000000027e-01 6.763004999999999711e-01 7.014685000000000059e+00 1.326080000000000041e+02 1.698800000000000182e+03
1.290000000000000036e-01 6.762844999999999551e-01 6.958705000000000140e+00 1.325944999999999823e+02 1.698815000000000055e+03
1.300000000000000044e-01 6.762314999999999854e-01 6.820389999999999731e+00 1.324060000000000059e+02 1.698789999999999964e+03
1.310000000000000053e-01 6.761444999999999261e-01 6.600369999999999848e+00 1.320490000000000066e+02 1.698720000000000027e+03
1.320000000000000062e-01 6.760249999999999870e-01 6.303374999999999950e+00 1.315380000000000109e+02 1.698615000000000009e+03
1.330000000000000071e-01 6.758790000000000076e-01 5.937754999999999228e+00 1.308924999999999841e+02 1.698470000000000027e+03
1.340000000000000080e-01 6.757124999999999382e-01 5.514899999999999913e+00 1.301374999999999886e+02 1.698300000000000182e+03
1.350000000000000089e-01 6.755305000000000337e-01 5.048519999999999897e+00 1.293019999999999925e+02 1.698105000000000018e+03
1.360000000000000098e-01 6.753405000000000102e-01 4.553795000000000037e+00 1.284155000000000086e+02 1.697889999999999873e+03
1.370000000000000107e-01 6.751489999999999991e-01 4.046590000000000131e+00 1.275084999999999980e+02 1.697670000000000073e+03
1.380000000000000115e-01 6.749604999999999633e-01 3.542592500000000033e+00 1.266105000000000018e+02 1.697444999999999936e+03
1.390000000000000124e-01 6.747810000000000752e-01 3.056494999999999962e+00 1.257475000000000023e+02 1.697230000000000018e+03
1.400000000000000133e-01 6.746159999999999934e-01 2.601343500000000031e+00 1.249405000000000143e+02 1.697019999999999982e+03
1.410000000000000142e-01 6.744670000000000387e-01 2.187927499999999803e+00 1.242079999999999984e+02 1.696825000000000045e+03
1.420000000000000151e-01 6.743369999999999642e-01 1.824370000000000047e+00 1.235604999999999905e+02 1.696650000000000091e+03
1.430000000000000160e-01 6.742270000000000207e-01 1.515873550000000014e+00 1.230055000000000121e+02 1.696494999999999891e+03
1.440000000000000169e-01 6.741354999999999986e-01 1.264667999999999903e+00 1.225425000000000040e+02 1.696360000000000127e+03
1.450000000000000178e-01 6.740625000000000089e-01 1.070083499999999965e+00 1.221664999999999992e+02 1.696250000000000000e+03
1.459999999999999909e-01 6.740045000000000064e-01 9.288060000000000205e-01 1.218675000000000068e+02 1.696154999999999973e+03
1.469999999999999918e-01 6.739584999999999049e-01 8.352454999999999741e-01 1.216324999999999932e+02 1.696079999999999927e+03
1.479999999999999927e-01 6.739215000000000622e-01 7.819940000000000779e-01 1.214455000000000098e+02 1.696019999999999982e+03
1.489999999999999936e-01 6.738880000000000425e-01 7.603665000000000562e-01 1.212880000000000109e+02 1.695960000000000036e+03
1.499999999999999944e-01 6.738560000000000105e-01 7.609194999999999709e-01 1.211419999999999959e+02 1.695910000000000082e+03
1.509999999999999953e-01 6.738210000000000033e-01 7.740230000000000166e-01 1.209894999999999925e+02 1.695860000000000127e+03
1.519999999999999962e-01 6.737790000000000168e-01 7.903715000000000046e-01 1.208135000000000048e+02 1.695809999999999945e+03
1.529999999999999971e-01 6.737284999999999524e-01 8.014485000000000081e-01 1.206009999999999991e+02 1.695750000000000000e+03
1.539999999999999980e-01 6.736664999999999459e-01 7.999342000000000397e-01 1.203410000000000082e+02 1.695679999999999836e+03
1.549999999999999989e-01 6.735915000000000097e-01 7.800214999999999232e-01 1.200244999999999891e+02 1.695594999999999800e+03
1.559999999999999998e-01 6.735039999999999916e-01 7.376300000000000079e-01 1.196485000000000127e+02 1.695500000000000000e+03
1.570000000000000007e-01 6.734029999999999738e-01 6.705579999999999874e-01 1.192129999999999939e+02 1.695394999999999982e+03
1.580000000000000016e-01 6.732905000000000140e-01 5.784960000000000102e-01 1.187210000000000036e+02 1.695269999999999982e+03
1.590000000000000024e-01 6.731674999999999187e-01 4.629725000000000645e-01 1.181794999999999902e+02 1.695134999999999991e+03
