# t [s], A [cm^2], U [cm/s], P [cPa], c [cm/s]
1.000000000000000021e-03 7.865165000000000628e-01 6.818650000000002487e-03 1.037999999999999972e+02 1.715219999999999800e+03
2.000000000000000042e-03 7.865014999999999645e-01 -5.642076499999999946e-03 1.037674999999999983e+02 1.715210000000000036e+03
3.000000000000000062e-03 7.865514999999999590e-01 6.648835000000000162e-02 1.038520000000000039e+02 1.715230000000000018e+03
4.000000000000000083e-03 7.866140000000000354e-01 1.678153000000000006e-01 1.039869999999999948e+02 1.715259999999999991e+03
5.000000000000000104e-03 7.865984999999999783e-01 1.686484999999999790e-01 1.039679999999999893e+02 1.715259999999999991e+03
6.000000000000000125e-03 7.865235000000000420e-01 8.105950000000003430e-02 1.037700000000000102e+02 1.715215000000000146e+03
7.000000000000000146e-03 7.864655000000000395e-01 1.315199999999999703e-02 1.035349999999999966e+02 1.715164999999999964e+03
8.000000000000000167e-03 7.863925000000000498e-01 -8.852100000000001634e-02 1.032230000000000132e+02 1.715095000000000027e+03
9.000000000000001055e-03 7.862605000000000288e-01 -2.959399999999999809e-01 1.027339999999999947e+02 1.714985000000000127e+03
1.000000000000000194e-02 7.860639999999999850e-01 -6.186799999999998967e-01 1.020219999999999914e+02 1.714829999999999927e+03
1.099999999999999936e-02 7.857844999999999969e-01 -1.080080000000000151e+00 1.010212999999999965e+02 1.714615000000000009e+03
1.200000000000000025e-02 7.854034999999999211e-01 -1.696139999999999759e+00 9.966544999999999277e+01 1.714319999999999936e+03
1.300000000000000114e-02 7.849504999999999955e-01 -2.403480000000000061e+00 9.799080000000000723e+01 1.713940000000000055e+03
1.400000000000000203e-02 7.844975000000000698e-01 -3.063004999999999978e+00 9.616200000000000614e+01 1.713514999999999873e+03
1.499999999999999944e-02 7.841134999999999078e-01 -3.534964500000000065e+00 9.438259999999999650e+01 1.713085000000000036e+03
1.600000000000000033e-02 7.838239999999999652e-01 -3.744756499999999821e+00 9.279364999999999952e+01 1.712680000000000064e+03
1.700000000000000122e-02 7.836094999999999589e-01 -3.698517999999999972e+00 9.142804999999999893e+01 1.712315000000000055e+03
1.800000000000000211e-02 7.834240000000000093e-01 -3.459261999999999837e+00 9.022290000000000987e+01 1.711974999999999909e+03
1.900000000000000300e-02 7.832179999999999698e-01 -3.108708000000000027e+00 8.906614999999999327e+01 1.711639999999999873e+03
2.000000000000000042e-02 7.829585000000000017e-01 -2.713473899999999883e+00 8.784960000000000946e+01 1.711289999999999964e+03
2.100000000000000130e-02 7.826364999999999572e-01 -2.305276999999999799e+00 8.650845000000001050e+01 1.710920000000000073e+03
2.200000000000000219e-02 7.822670000000000456e-01 -1.878204999999999902e+00 8.503845000000001164e+01 1.710514999999999873e+03
2.299999999999999961e-02 7.818775000000000031e-01 -1.401344999999999841e+00 8.348699999999999477e+01 1.710090000000000146e+03
2.400000000000000050e-02 7.814969999999999972e-01 -8.401099999999999124e-01 8.192634999999999934e+01 1.709660000000000082e+03
2.500000000000000139e-02 7.811414999999999331e-01 -1.772550000000001624e-01 8.041980000000000928e+01 1.709240000000000009e+03
2.600000000000000228e-02 7.808114999999999917e-01 5.740600000000000147e-01 7.899475000000001046e+01 1.708829999999999927e+03
2.700000000000000316e-02 7.804900000000000171e-01 1.368235000000000090e+00 7.762995000000000800e+01 1.708440000000000055e+03
2.800000000000000058e-02 7.801450000000000884e-01 2.135264999999999969e+00 7.625929999999999609e+01 1.708045000000000073e+03
2.900000000000000147e-02 7.797465000000000090e-01 2.795844999999999914e+00 7.478880000000000905e+01 1.707635000000000218e+03
3.000000000000000236e-02 7.792669999999999320e-01 3.279550000000000409e+00 7.312245000000000061e+01 1.707190000000000055e+03
3.099999999999999978e-02 7.786939999999999973e-01 3.541665000000000063e+00 7.119094999999998663e+01 1.706690000000000055e+03
3.200000000000000067e-02 7.780344999999999622e-01 3.573705000000000354e+00 6.897379999999999711e+01 1.706125000000000000e+03
3.300000000000000155e-02 7.773145000000000193e-01 3.404085000000000250e+00 6.650890000000001123e+01 1.705509999999999991e+03
3.400000000000000244e-02 7.765694999999999126e-01 3.089004999999999779e+00 6.388585000000000491e+01 1.704860000000000127e+03
3.500000000000000333e-02 7.758419999999999206e-01 2.697604999999999809e+00 6.122744999999999749e+01 1.704195000000000164e+03
3.600000000000000422e-02 7.751680000000000792e-01 2.296950000000000269e+00 5.866580000000000439e+01 1.703545000000000073e+03
3.700000000000000511e-02 7.745759999999999312e-01 1.941304999999999836e+00 5.632134999999999536e+01 1.702940000000000055e+03
3.799999999999999906e-02 7.740810000000000191e-01 1.666999999999999815e+00 5.428889999999999816e+01 1.702400000000000091e+03
3.899999999999999994e-02 7.736914999999999765e-01 1.493094999999999839e+00 5.263174999999999670e+01 1.701944999999999936e+03
4.000000000000000083e-02 7.734069999999999556e-01 1.425454999999999917e+00 5.138315000000000055e+01 1.701585000000000036e+03
4.100000000000000172e-02 7.732235000000000635e-01 1.462765000000000093e+00 5.055259999999999820e+01 1.701325000000000045e+03
4.200000000000000261e-02 7.731375000000000330e-01 1.602496499999999990e+00 5.013500000000000512e+01 1.701170000000000073e+03
4.300000000000000350e-02 7.731459999999999999e-01 1.845455000000000068e+00 5.011965000000000003e+01 1.701115000000000009e+03
4.400000000000000439e-02 7.732475000000000875e-01 2.197919999999999874e+00 5.049689999999999657e+01 1.701160000000000082e+03
4.499999999999999833e-02 7.734445000000000903e-01 2.671060500000000282e+00 5.126120000000000232e+01 1.701309999999999945e+03
4.599999999999999922e-02 7.737389999999999546e-01 3.278252000000000166e+00 5.241080000000000183e+01 1.701555000000000064e+03
4.700000000000000011e-02 7.741325000000000012e-01 4.031152500000000138e+00 5.394389999999999930e+01 1.701900000000000091e+03
4.800000000000000100e-02 7.746239999999999792e-01 4.935964499999999866e+00 5.585399999999999920e+01 1.702345000000000027e+03
4.900000000000000189e-02 7.752065000000000206e-01 5.990731400000000484e+00 5.812545000000000073e+01 1.702875000000000000e+03
5.000000000000000278e-02 7.758724999999999650e-01 7.184274499999999897e+00 6.073029999999999973e+01 1.703494999999999891e+03
5.100000000000000366e-02 7.766075000000000061e-01 8.496859999999999857e+00 6.362839999999999918e+01 1.704194999999999936e+03
5.200000000000000455e-02 7.773965000000000458e-01 9.901970000000000383e+00 6.676824999999999477e+01 1.704960000000000036e+03
5.300000000000000544e-02 7.782225000000000392e-01 1.136923499999999976e+01 7.009090000000000487e+01 1.705785000000000082e+03
5.399999999999999939e-02 7.790694999999999704e-01 1.286720000000000041e+01 7.353419999999999845e+01 1.706644999999999982e+03
5.500000000000000028e-02 7.799225000000000740e-01 1.436627999999999972e+01 7.703764999999999930e+01 1.707529999999999973e+03
5.600000000000000117e-02 7.807690000000000463e-01 1.584071499999999943e+01 8.054644999999999300e+01 1.708425000000000182e+03
5.700000000000000205e-02 7.816000000000000725e-01 1.726975000000000193e+01 8.401474999999999227e+01 1.709320000000000164e+03
5.800000000000000294e-02 7.824094999999999800e-01 1.863830000000000098e+01 8.740770000000000550e+01 1.710204999999999927e+03
5.900000000000000383e-02 7.831930000000000280e-01 1.993630000000000280e+01 9.070050000000000523e+01 1.711075000000000045e+03
6.000000000000000472e-02 7.839504999999999946e-01 2.115820000000000078e+01 9.388034999999999286e+01 1.711914999999999964e+03
6.099999999999999867e-02 7.846815000000000317e-01 2.230190000000000339e+01 9.694270000000000209e+01 1.712740000000000009e+03
6.199999999999999956e-02 7.853879999999999750e-01 2.336775000000000091e+01 9.988929999999999154e+01 1.713529999999999973e+03
6.300000000000000044e-02 7.860724999999999518e-01 2.435750000000000171e+01 1.027279000000000053e+02 1.714295000000000073e+03
6.400000000000000133e-02 7.867379999999999374e-01 2.527369999999999806e+01 1.054672999999999945e+02 1.715039999999999964e+03
6.500000000000000222e-02 7.873859999999999193e-01 2.611860000000000070e+01 1.081179999999999950e+02 1.715764999999999873e+03
6.600000000000000311e-02 7.880179999999999962e-01 2.689419999999999789e+01 1.106894999999999953e+02 1.716460000000000036e+03
6.700000000000000400e-02 7.886344999999999050e-01 2.760130000000000194e+01 1.131875000000000000e+02 1.717144999999999982e+03
6.800000000000000488e-02 7.892354999999999787e-01 2.823960000000000292e+01 1.156140000000000043e+02 1.717804999999999836e+03
6.900000000000000577e-02 7.898194999999998966e-01 2.880754999999999910e+01 1.179685000000000059e+02 1.718454999999999927e+03
7.000000000000000666e-02 7.903850000000000042e-01 2.930279999999999774e+01 1.202444999999999879e+02 1.719079999999999927e+03
7.100000000000000755e-02 7.909279999999999644e-01 2.972204999999999941e+01 1.224339999999999975e+02 1.719684999999999945e+03
7.200000000000000844e-02 7.914464999999999417e-01 3.006204999999999927e+01 1.245250000000000057e+02 1.720259999999999991e+03
7.300000000000000933e-02 7.919359999999999733e-01 3.031974999999999909e+01 1.265054999999999978e+02 1.720815000000000055e+03
7.399999999999999634e-02 7.923940000000000428e-01 3.049275000000000091e+01 1.283629999999999995e+02 1.721329999999999927e+03
7.499999999999999722e-02 7.928174999999999528e-01 3.057975000000000065e+01 1.300835000000000150e+02 1.721820000000000164e+03
7.599999999999999811e-02 7.932055000000000078e-01 3.058050000000000068e+01 1.316594999999999800e+02 1.722269999999999982e+03
7.699999999999999900e-02 7.935550000000000104e-01 3.049595000000000056e+01 1.330810000000000173e+02 1.722679999999999836e+03
7.799999999999999989e-02 7.938659999999999606e-01 3.032799999999999940e+01 1.343439999999999941e+02 1.723049999999999955e+03
7.900000000000000078e-02 7.941380000000000106e-01 3.007945000000000135e+01 1.354439999999999884e+02 1.723375000000000000e+03
8.000000000000000167e-02 7.943705000000000904e-01 2.975379999999999825e+01 1.363810000000000002e+02 1.723654999999999973e+03
8.100000000000000255e-02 7.945645000000000069e-01 2.935519999999999996e+01 1.371560000000000059e+02 1.723900000000000091e+03
8.200000000000000344e-02 7.947195000000000231e-01 2.888820000000000121e+01 1.377715000000000032e+02 1.724099999999999909e+03
8.300000000000000433e-02 7.948385000000000034e-01 2.835829999999999984e+01 1.382330000000000041e+02 1.724255000000000109e+03
8.400000000000000522e-02 7.949215000000000586e-01 2.777145000000000152e+01 1.385464999999999804e+02 1.724369999999999891e+03
8.500000000000000611e-02 7.949720000000000120e-01 2.713449999999999918e+01 1.387224999999999966e+02 1.724454999999999927e+03
8.600000000000000699e-02 7.949920000000000320e-01 2.645524999999999949e+01 1.387699999999999818e+02 1.724494999999999891e+03
8.700000000000000788e-02 7.949855000000000116e-01 2.574214999999999876e+01 1.387035000000000196e+02 1.724505000000000109e+03
8.800000000000000877e-02 7.949549999999999672e-01 2.500424999999999898e+01 1.385364999999999895e+02 1.724485000000000127e+03
8.899999999999999578e-02 7.949060000000000015e-01 2.425104999999999933e+01 1.382855000000000132e+02 1.724444999999999936e+03
8.999999999999999667e-02 7.948420000000000485e-01 2.349195000000000277e+01 1.379660000000000082e+02 1.724380000000000109e+03
9.099999999999999756e-02 7.947659999999999725e-01 2.273590000000000089e+01 1.375964999999999918e+02 1.724295000000000073e+03
9.199999999999999845e-02 7.946835000000000981e-01 2.199115000000000109e+01 1.371915000000000191e+02 1.724204999999999927e+03
9.299999999999999933e-02 7.945964999999999279e-01 2.126454999999999984e+01 1.367655000000000030e+02 1.724099999999999909e+03
9.400000000000000022e-02 7.945070000000000743e-01 2.056134999999999735e+01 1.363315000000000055e+02 1.723994999999999891e+03
9.500000000000000111e-02 7.944185000000000274e-01 1.988534999999999897e+01 1.358979999999999961e+02 1.723880000000000109e+03
9.600000000000000200e-02 7.943299999999999805e-01 1.923830000000000240e+01 1.354724999999999966e+02 1.723764999999999873e+03
9.700000000000000289e-02 7.942439999999999500e-01 1.862040000000000006e+01 1.350579999999999927e+02 1.723654999999999973e+03
9.800000000000000377e-02 7.941584999999999894e-01 1.803014999999999901e+01 1.346560000000000059e+02 1.723549999999999955e+03
9.900000000000000466e-02 7.940734999999999877e-01 1.746474999999999866e+01 1.342640000000000100e+02 1.723440000000000055e+03
1.000000000000000056e-01 7.939875000000000682e-01 1.692044999999999888e+01 1.338779999999999859e+02 1.723335000000000036e+03
1.010000000000000064e-01 7.938990000000000213e-01 1.639260000000000161e+01 1.334925000000000068e+02 1.723224999999999909e+03
1.020000000000000073e-01 7.938060000000000116e-01 1.587624999999999886e+01 1.331014999999999873e+02 1.723115000000000009e+03
1.030000000000000082e-01 7.937075000000000102e-01 1.536619999999999919e+01 1.326980000000000075e+02 1.723009999999999991e+03
1.040000000000000091e-01 7.936015000000000708e-01 1.485745000000000005e+01 1.322750000000000057e+02 1.722894999999999982e+03
1.050000000000000100e-01 7.934875000000000123e-01 1.434529999999999994e+01 1.318269999999999982e+02 1.722775000000000091e+03
1.059999999999999970e-01 7.933645000000000280e-01 1.382559999999999967e+01 1.313480000000000132e+02 1.722644999999999982e+03
1.069999999999999979e-01 7.932310000000000194e-01 1.329506499999999924e+01 1.308354999999999961e+02 1.722509999999999991e+03
1.079999999999999988e-01 7.930874999999999453e-01 1.275117499999999993e+01 1.302864999999999895e+02 1.722369999999999891e+03
1.089999999999999997e-01 7.929344999999999866e-01 1.219270500000000013e+01 1.297019999999999982e+02 1.722215000000000146e+03
1.100000000000000006e-01 7.927724999999999911e-01 1.161929999999999907e+01 1.290829999999999984e+02 1.722055000000000064e+03
1.110000000000000014e-01 7.926035000000000164e-01 1.103209499999999998e+01 1.284339999999999975e+02 1.721889999999999873e+03
1.120000000000000023e-01 7.924290000000000500e-01 1.043318499999999993e+01 1.277609999999999957e+02 1.721715000000000146e+03
1.130000000000000032e-01 7.922515000000001084e-01 9.825820000000000221e+00 1.270720000000000027e+02 1.721534999999999854e+03
1.140000000000000041e-01 7.920734999999999859e-01 9.214249999999999829e+00 1.263770000000000095e+02 1.721355000000000018e+03
1.150000000000000050e-01 7.918990000000000196e-01 8.603485000000000937e+00 1.256859999999999928e+02 1.721170000000000073e+03
1.160000000000000059e-01 7.917294999999999749e-01 7.999119999999999564e+00 1.250109999999999957e+02 1.721000000000000000e+03
1.170000000000000068e-01 7.915689999999999671e-01 7.407035000000000480e+00 1.243640000000000043e+02 1.720824999999999818e+03
1.180000000000000077e-01 7.914200000000000124e-01 6.833280000000000243e+00 1.237575000000000074e+02 1.720664999999999964e+03
1.190000000000000085e-01 7.912855000000000860e-01 6.283595000000000041e+00 1.232009999999999934e+02 1.720509999999999991e+03
1.200000000000000094e-01 7.911679999999999824e-01 5.763335000000000541e+00 1.227069999999999936e+02 1.720375000000000000e+03
1.209999999999999964e-01 7.910690000000000222e-01 5.277169999999999916e+00 1.222820000000000107e+02 1.720255000000000109e+03
1.219999999999999973e-01 7.909905000000000408e-01 4.828850000000000087e+00 1.219334999999999951e+02 1.720154999999999973e+03
1.229999999999999982e-01 7.909319999999999684e-01 4.421110000000000539e+00 1.216649999999999920e+02 1.720075000000000045e+03
1.239999999999999991e-01 7.908945000000000558e-01 4.055530000000000079e+00 1.214795000000000016e+02 1.720014999999999873e+03
1.250000000000000000e-01 7.908775000000000110e-01 3.732505000000000184e+00 1.213750000000000000e+02 1.719970000000000027e+03
1.260000000000000009e-01 7.908794999999999575e-01 3.451315000000000133e+00 1.213490000000000038e+02 1.719950000000000045e+03
1.270000000000000018e-01 7.908990000000000187e-01 3.210135000000000183e+00 1.213965000000000032e+02 1.719949999999999818e+03
1.280000000000000027e-01 7.909340000000000259e-01 3.006260000000000154e+00 1.215099999999999909e+02 1.719965000000000146e+03
1.290000000000000036e-01 7.909820000000000739e-01 2.836244999999999905e+00 1.216800000000000068e+02 1.720000000000000000e+03
1.300000000000000044e-01 7.910409999999999942e-01 2.696094999999999686e+00 1.218979999999999961e+02 1.720039999999999964e+03
1.310000000000000053e-01 7.911070000000000046e-01 2.581510000000000193e+00 1.221529999999999916e+02 1.720099999999999909e+03
1.320000000000000062e-01 7.911790000000000767e-01 2.488049999999999873e+00 1.224339999999999975e+02 1.720164999999999964e+03
1.330000000000000071e-01 7.912540000000000129e-01 2.411290000000000155e+00 1.227314999999999969e+02 1.720235000000000127e+03
1.340000000000000080e-01 7.913295000000000190e-01 2.347030000000000172e+00 1.230354999999999990e+02 1.720309999999999945e+03
1.350000000000000089e-01 7.914034999999999265e-01 2.291339999999999932e+00 1.233370000000000033e+02 1.720380000000000109e+03
1.360000000000000098e-01 7.914749999999999286e-01 2.240650000000000031e+00 1.236289999999999907e+02 1.720454999999999927e+03
1.370000000000000107e-01 7.915415000000000090e-01 2.191850000000000076e+00 1.239050000000000011e+02 1.720530000000000200e+03
1.380000000000000115e-01 7.916024999999999867e-01 2.142240000000000144e+00 1.241590000000000060e+02 1.720595000000000027e+03
1.390000000000000124e-01 7.916570000000000551e-01 2.089630000000000098e+00 1.243880000000000052e+02 1.720659999999999854e+03
1.400000000000000133e-01 7.917045000000000332e-01 2.032259999999999955e+00 1.245875000000000057e+02 1.720710000000000036e+03
1.410000000000000142e-01 7.917449999999999211e-01 1.968865000000000087e+00 1.247574999999999932e+02 1.720759999999999991e+03
1.420000000000000151e-01 7.917780000000000928e-01 1.898595000000000033e+00 1.248954999999999984e+02 1.720795000000000073e+03
1.430000000000000160e-01 7.918030000000000346e-01 1.821035000000000181e+00 1.250030000000000001e+02 1.720829999999999927e+03
1.440000000000000169e-01 7.918214999999999559e-01 1.736124999999999918e+00 1.250794999999999959e+02 1.720855000000000018e+03
1.450000000000000178e-01 7.918330000000000091e-01 1.644134999999999902e+00 1.251270000000000095e+02 1.720875000000000000e+03
1.459999999999999909e-01 7.918385000000000007e-01 1.545605000000000118e+00 1.251475000000000080e+02 1.720880000000000109e+03
1.469999999999999918e-01 7.918374999999999719e-01 1.441259999999999986e+00 1.251419999999999959e+02 1.720884999999999991e+03
1.479999999999999927e-01 7.918320000000000913e-01 1.331974999999999909e+00 1.251135000000000019e+02 1.720884999999999991e+03
1.489999999999999936e-01 7.918205000000000382e-01 1.218646000000000118e+00 1.250635000000000048e+02 1.720869999999999891e+03
1.499999999999999944e-01 7.918054999999999399e-01 1.102189000000000085e+00 1.249934999999999974e+02 1.720860000000000127e+03
1.509999999999999953e-01 7.917859999999999898e-01 9.834469999999999601e-01 1.249064999999999941e+02 1.720840000000000146e+03
1.519999999999999962e-01 7.917635000000000645e-01 8.631619999999999848e-01 1.248025000000000091e+02 1.720815000000000055e+03
1.529999999999999971e-01 7.917365000000000652e-01 7.419654999999999445e-01 1.246839999999999975e+02 1.720789999999999964e+03
1.539999999999999980e-01 7.917065000000000907e-01 6.203600000000000225e-01 1.245499999999999972e+02 1.720755000000000109e+03
1.549999999999999989e-01 7.916719999999999313e-01 4.987281650000000011e-01 1.244014999999999986e+02 1.720719999999999800e+03
1.559999999999999998e-01 7.916345000000000187e-01 3.773869999999999725e-01 1.242384999999999877e+02 1.720679999999999836e+03
1.570000000000000007e-01 7.915935000000000610e-01 2.566074999999999884e-01 1.240610000000000070e+02 1.720634999999999991e+03
1.580000000000000016e-01 7.915479999999999183e-01 1.366674999999999973e-01 1.238684999999999974e+02 1.720590000000000146e+03
1.590000000000000024e-01 7.914989999999999526e-01 1.790349999999996111e-02 1.236614999999999895e+02 1.720535000000000082e+03
