# t [s], A [cm^2], U [cm/s], P [cPa], c [cm/s]
1.000000000000000021e-03 1.392174999999999940e-01 3.851702499999999918e-01 8.792754999999999654e+01 2.060894999999999982e+03
2.000000000000000042e-03 1.391824999999999868e-01 1.862182000000000226e+00 8.459790000000000987e+01 2.060485000000000127e+03
3.000000000000000062e-03 1.390875000000000028e-01 3.638542000000000165e+00 8.019245000000000800e+01 2.059414999999999964e+03
4.000000000000000083e-03 1.389600000000000002e-01 5.621727499999999544e+00 7.563835000000000264e+01 2.058000000000000000e+03
5.000000000000000104e-03 1.388245000000000173e-01 7.736969999999999459e+00 7.175145000000000550e+01 2.056500000000000000e+03
6.000000000000000125e-03 1.386939999999999840e-01 9.794000000000000483e+00 6.865269999999999584e+01 2.055074999999999818e+03
7.000000000000000146e-03 1.385715000000000141e-01 1.159888499999999922e+01 6.598619999999999663e+01 2.053760000000000218e+03
8.000000000000000167e-03 1.384584999999999844e-01 1.311404500000000084e+01 6.356289999999999907e+01 2.052570000000000164e+03
9.000000000000001055e-03 1.383594999999999964e-01 1.439045000000000130e+01 6.147660000000000480e+01 2.051534999999999854e+03
1.000000000000000194e-02 1.382754999999999956e-01 1.545299999999999940e+01 5.977570000000000050e+01 2.050664999999999964e+03
1.099999999999999936e-02 1.382050000000000223e-01 1.630914999999999893e+01 5.840609999999999502e+01 2.049949999999999818e+03
1.200000000000000025e-02 1.381475000000000064e-01 1.696659999999999968e+01 5.729104999999999848e+01 2.049375000000000000e+03
1.300000000000000114e-02 1.380994999999999862e-01 1.742705000000000126e+01 5.632720000000000482e+01 2.048900000000000091e+03
1.400000000000000203e-02 1.380589999999999873e-01 1.771405000000000030e+01 5.543534999999999968e+01 2.048500000000000000e+03
1.499999999999999944e-02 1.380244999999999944e-01 1.791639999999999944e+01 5.470420000000000016e+01 2.048170000000000073e+03
1.600000000000000033e-02 1.380020000000000135e-01 1.818135000000000190e+01 5.444154999999999944e+01 2.047954999999999927e+03
1.700000000000000122e-02 1.379989999999999828e-01 1.864515000000000100e+01 5.502015000000000100e+01 2.047934999999999945e+03
1.800000000000000211e-02 1.380204999999999904e-01 1.935454999999999970e+01 5.662335000000000207e+01 2.048164999999999964e+03
1.900000000000000300e-02 1.380669999999999953e-01 2.023519999999999897e+01 5.908119999999999550e+01 2.048644999999999982e+03
2.000000000000000042e-02 1.381304999999999894e-01 2.112140000000000128e+01 6.189594999999999914e+01 2.049305000000000291e+03
2.100000000000000130e-02 1.381979999999999875e-01 2.182400000000000162e+01 6.442525000000000546e+01 2.050014999999999873e+03
2.200000000000000219e-02 1.382570000000000188e-01 2.220025000000000048e+01 6.611679999999999779e+01 2.050635000000000218e+03
2.299999999999999961e-02 1.382955000000000156e-01 2.219794999999999874e+01 6.668765000000000498e+01 2.051059999999999945e+03
2.400000000000000050e-02 1.383099999999999885e-01 2.185989999999999966e+01 6.618569999999999709e+01 2.051239999999999782e+03
2.500000000000000139e-02 1.383030000000000093e-01 2.129420000000000002e+01 6.492404999999999404e+01 2.051190000000000055e+03
2.600000000000000228e-02 1.382805000000000006e-01 2.062650000000000006e+01 6.333199999999999363e+01 2.050980000000000018e+03
2.700000000000000316e-02 1.382504999999999984e-01 1.995519999999999783e+01 6.179059999999999775e+01 2.050679999999999836e+03
2.800000000000000058e-02 1.382205000000000239e-01 1.932589999999999719e+01 6.051794999999999902e+01 2.050365000000000236e+03
2.900000000000000147e-02 1.381930000000000103e-01 1.873075000000000045e+01 5.953480000000000416e+01 2.050074999999999818e+03
3.000000000000000236e-02 1.381674999999999986e-01 1.812684999999999746e+01 5.870820000000000505e+01 2.049815000000000055e+03
3.099999999999999978e-02 1.381419999999999870e-01 1.746515000000000128e+01 5.784205000000000041e+01 2.049550000000000182e+03
3.200000000000000067e-02 1.381135000000000002e-01 1.671809999999999974e+01 5.677734999999999843e+01 2.049260000000000218e+03
3.300000000000000155e-02 1.380794999999999939e-01 1.589730000000000132e+01 5.546790000000000020e+01 2.048909999999999854e+03
3.400000000000000244e-02 1.380414999999999837e-01 1.505685000000000073e+01 5.401084999999999781e+01 2.048519999999999982e+03
3.500000000000000333e-02 1.380020000000000135e-01 1.428170000000000073e+01 5.262444999999999595e+01 2.048110000000000127e+03
3.600000000000000422e-02 1.379670000000000063e-01 1.366489999999999938e+01 5.158364999999999867e+01 2.047744999999999891e+03
3.700000000000000511e-02 1.379420000000000091e-01 1.328185000000000038e+01 5.113635000000000019e+01 2.047485000000000127e+03
3.799999999999999906e-02 1.379330000000000001e-01 1.316920000000000002e+01 5.142699999999999960e+01 2.047369999999999891e+03
3.899999999999999994e-02 1.379414999999999947e-01 1.331455000000000055e+01 5.245105000000000217e+01 2.047440000000000055e+03
4.000000000000000083e-02 1.379670000000000063e-01 1.365810000000000102e+01 5.405024999999999835e+01 2.047690000000000055e+03
4.100000000000000172e-02 1.380049999999999888e-01 1.410555000000000092e+01 5.594674999999999443e+01 2.048079999999999927e+03
4.200000000000000261e-02 1.380494999999999917e-01 1.454609999999999914e+01 5.780089999999999861e+01 2.048529999999999745e+03
4.300000000000000350e-02 1.380925000000000069e-01 1.487199999999999989e+01 5.927689999999999770e+01 2.048970000000000255e+03
4.400000000000000439e-02 1.381259999999999988e-01 1.499484999999999957e+01 6.010009999999999764e+01 2.049320000000000164e+03
4.499999999999999833e-02 1.381435000000000024e-01 1.485524999999999984e+01 6.009380000000000166e+01 2.049510000000000218e+03
4.599999999999999922e-02 1.381410000000000138e-01 1.442655000000000065e+01 5.919344999999999857e+01 2.049489999999999782e+03
4.700000000000000011e-02 1.381165000000000032e-01 1.371219999999999928e+01 5.743784999999999741e+01 2.049244999999999891e+03
4.800000000000000100e-02 1.380704999999999849e-01 1.273985000000000056e+01 5.494530000000000314e+01 2.048779999999999745e+03
4.900000000000000189e-02 1.380049999999999888e-01 1.155301000000000045e+01 5.188245000000000573e+01 2.048119999999999891e+03
5.000000000000000278e-02 1.379245000000000054e-01 1.020395500000000055e+01 4.843474999999999397e+01 2.047289999999999964e+03
5.100000000000000366e-02 1.378325000000000244e-01 8.747785000000000366e+00 4.478310000000000457e+01 2.046345000000000255e+03
5.200000000000000455e-02 1.377335000000000087e-01 7.239254999999999995e+00 4.109080000000000155e+01 2.045319999999999936e+03
5.300000000000000544e-02 1.376310000000000033e-01 5.731300000000000061e+00 3.749944999999999595e+01 2.044264999999999873e+03
5.399999999999999939e-02 1.375299999999999856e-01 4.275174999999999947e+00 3.413155000000000427e+01 2.043215000000000146e+03
5.500000000000000028e-02 1.374334999999999862e-01 2.920958500000000235e+00 3.109604999999999819e+01 2.042210000000000036e+03
5.600000000000000117e-02 1.373449999999999949e-01 1.717810000000000059e+00 2.849410000000000309e+01 2.041284999999999854e+03
5.700000000000000205e-02 1.372674999999999867e-01 7.134500000000000286e-01 2.642179999999999751e+01 2.040480000000000018e+03
5.800000000000000294e-02 1.372035000000000060e-01 -4.727000000000003421e-02 2.497015000000000029e+01 2.039809999999999945e+03
5.900000000000000383e-02 1.371574999999999878e-01 -5.244794999999999874e-01 2.422064999999999912e+01 2.039315000000000055e+03
6.000000000000000472e-02 1.371299999999999741e-01 -6.858729999999999549e-01 2.423979999999999890e+01 2.039014999999999873e+03
6.099999999999999867e-02 1.371244999999999825e-01 -5.091605000000000159e-01 2.507189999999999941e+01 2.038934999999999945e+03
6.199999999999999956e-02 1.371410000000000129e-01 1.601299999999999946e-02 2.673340000000000316e+01 2.039085000000000036e+03
6.300000000000000044e-02 1.371815000000000118e-01 8.870415000000000383e-01 2.920929999999999893e+01 2.039480000000000018e+03
6.400000000000000133e-02 1.372440000000000049e-01 2.088334999999999830e+00 3.245260000000000389e+01 2.040110000000000127e+03
6.500000000000000222e-02 1.373289999999999789e-01 3.592336500000000044e+00 3.638694999999999879e+01 2.040965000000000146e+03
6.600000000000000311e-02 1.374345000000000150e-01 5.361340000000000217e+00 4.091159999999999997e+01 2.042039999999999964e+03
6.700000000000000400e-02 1.375569999999999848e-01 7.349915000000000198e+00 4.590855000000000530e+01 2.043294999999999845e+03
6.800000000000000488e-02 1.376944999999999975e-01 9.507645000000000124e+00 5.125010000000000332e+01 2.044704999999999927e+03
6.900000000000000577e-02 1.378429999999999933e-01 1.178196000000000154e+01 5.680705000000000382e+01 2.046234999999999900e+03
7.000000000000000666e-02 1.379994999999999972e-01 1.412075499999999906e+01 6.245589999999999975e+01 2.047855000000000018e+03
7.100000000000000755e-02 1.381600000000000050e-01 1.647514999999999930e+01 6.808525000000000205e+01 2.049529999999999745e+03
7.200000000000000844e-02 1.383225000000000149e-01 1.880144999999999911e+01 7.360120000000000573e+01 2.051224999999999909e+03
7.300000000000000933e-02 1.384834999999999816e-01 2.106309999999999860e+01 7.893099999999999739e+01 2.052909999999999854e+03
7.399999999999999634e-02 1.386410000000000142e-01 2.323199999999999932e+01 8.402575000000000216e+01 2.054569999999999709e+03
7.499999999999999722e-02 1.387935000000000141e-01 2.528885000000000005e+01 8.886070000000000846e+01 2.056179999999999836e+03
7.599999999999999811e-02 1.389405000000000223e-01 2.722395000000000209e+01 9.343434999999999491e+01 2.057729999999999563e+03
7.699999999999999900e-02 1.390814999999999968e-01 2.903564999999999685e+01 9.776654999999999518e+01 2.059225000000000364e+03
7.799999999999999989e-02 1.392165000000000208e-01 3.072994999999999877e+01 1.018924000000000092e+02 2.060654999999999745e+03
7.900000000000000078e-02 1.393459999999999976e-01 3.231855000000000189e+01 1.058592000000000013e+02 2.062039999999999964e+03
8.000000000000000167e-02 1.394714999999999983e-01 3.381700000000000017e+01 1.097189999999999941e+02 2.063380000000000109e+03
8.100000000000000255e-02 1.395945000000000102e-01 3.524244999999999806e+01 1.135244999999999891e+02 2.064690000000000055e+03
8.200000000000000344e-02 1.397154999999999925e-01 3.661230000000000473e+01 1.173220000000000027e+02 2.065984999999999673e+03
8.300000000000000433e-02 1.398360000000000158e-01 3.794180000000000064e+01 1.211490000000000009e+02 2.067279999999999745e+03
8.400000000000000522e-02 1.399569999999999981e-01 3.924299999999999500e+01 1.250304999999999893e+02 2.068569999999999709e+03
8.500000000000000611e-02 1.400790000000000091e-01 4.052374999999999972e+01 1.289764999999999873e+02 2.069880000000000109e+03
8.600000000000000699e-02 1.402019999999999933e-01 4.178725000000000023e+01 1.329819999999999993e+02 2.071194999999999709e+03
8.700000000000000788e-02 1.403265000000000207e-01 4.303170000000000073e+01 1.370285000000000082e+02 2.072525000000000091e+03
8.800000000000000877e-02 1.404515000000000069e-01 4.425065000000000026e+01 1.410855000000000246e+02 2.073864999999999782e+03
8.899999999999999578e-02 1.405764999999999931e-01 4.543370000000000175e+01 1.451109999999999900e+02 2.075204999999999927e+03
8.999999999999999667e-02 1.407005000000000061e-01 4.656714999999999804e+01 1.490589999999999975e+02 2.076534999999999854e+03
9.099999999999999756e-02 1.408220000000000027e-01 4.763504999999999967e+01 1.528759999999999764e+02 2.077840000000000146e+03
9.199999999999999845e-02 1.409394999999999953e-01 4.862005000000000621e+01 1.565109999999999957e+02 2.079105000000000018e+03
9.299999999999999933e-02 1.410520000000000107e-01 4.950480000000000302e+01 1.599114999999999895e+02 2.080319999999999709e+03
9.400000000000000022e-02 1.411574999999999913e-01 5.027259999999999707e+01 1.630310000000000059e+02 2.081460000000000036e+03
9.500000000000000111e-02 1.412555000000000061e-01 5.090859999999999985e+01 1.658310000000000173e+02 2.082525000000000091e+03
9.600000000000000200e-02 1.413449999999999984e-01 5.140050000000000097e+01 1.682789999999999964e+02 2.083494999999999891e+03
9.700000000000000289e-02 1.414239999999999942e-01 5.173930000000000007e+01 1.703525000000000205e+02 2.084355000000000018e+03
9.800000000000000377e-02 1.414925000000000210e-01 5.191984999999999673e+01 1.720400000000000205e+02 2.085105000000000018e+03
9.900000000000000466e-02 1.415500000000000091e-01 5.194105000000000416e+01 1.733410000000000082e+02 2.085739999999999782e+03
1.000000000000000056e-01 1.415965000000000140e-01 5.180595000000000283e+01 1.742649999999999864e+02 2.086255000000000109e+03
1.010000000000000064e-01 1.416319999999999801e-01 5.152199999999999847e+01 1.748319999999999936e+02 2.086650000000000091e+03
1.020000000000000073e-01 1.416574999999999918e-01 5.110025000000000261e+01 1.750720000000000027e+02 2.086934999999999945e+03
1.030000000000000082e-01 1.416729999999999934e-01 5.055525000000000091e+01 1.750194999999999936e+02 2.087114999999999782e+03
1.040000000000000091e-01 1.416800000000000004e-01 4.990415000000000134e+01 1.747185000000000059e+02 2.087204999999999927e+03
1.050000000000000100e-01 1.416784999999999850e-01 4.916610000000000014e+01 1.742139999999999986e+02 2.087199999999999818e+03
1.059999999999999970e-01 1.416715000000000058e-01 4.836110000000000042e+01 1.735534999999999854e+02 2.087130000000000109e+03
1.069999999999999979e-01 1.416585000000000205e-01 4.750965000000000060e+01 1.727844999999999800e+02 2.087005000000000109e+03
1.079999999999999988e-01 1.416425000000000045e-01 4.663139999999999930e+01 1.719495000000000005e+02 2.086829999999999927e+03
1.089999999999999997e-01 1.416229999999999989e-01 4.574445000000000050e+01 1.710894999999999868e+02 2.086630000000000109e+03
1.100000000000000006e-01 1.416020000000000056e-01 4.486504999999999654e+01 1.702375000000000114e+02 2.086404999999999745e+03
1.110000000000000014e-01 1.415804999999999980e-01 4.400655000000000427e+01 1.694205000000000041e+02 2.086175000000000182e+03
1.120000000000000023e-01 1.415589999999999904e-01 4.317934999999999945e+01 1.686575000000000273e+02 2.085949999999999818e+03
1.130000000000000032e-01 1.415385000000000115e-01 4.239069999999999538e+01 1.679594999999999914e+02 2.085719999999999800e+03
1.140000000000000041e-01 1.415190000000000059e-01 4.164424999999999955e+01 1.673299999999999841e+02 2.085515000000000327e+03
1.150000000000000050e-01 1.415005000000000013e-01 4.094039999999999679e+01 1.667640000000000100e+02 2.085309999999999945e+03
1.160000000000000059e-01 1.414839999999999987e-01 4.027669999999999817e+01 1.662515000000000214e+02 2.085130000000000109e+03
1.170000000000000068e-01 1.414679999999999827e-01 3.964780000000000371e+01 1.657750000000000057e+02 2.084954999999999927e+03
1.180000000000000077e-01 1.414529999999999954e-01 3.904625000000000057e+01 1.653145000000000095e+02 2.084784999999999854e+03
1.190000000000000085e-01 1.414380000000000082e-01 3.846305000000000263e+01 1.648449999999999989e+02 2.084625000000000000e+03
1.200000000000000094e-01 1.414230000000000209e-01 3.788795000000000357e+01 1.643414999999999964e+02 2.084454999999999927e+03
1.209999999999999964e-01 1.414070000000000049e-01 3.731040000000000134e+01 1.637794999999999845e+02 2.084279999999999745e+03
1.219999999999999973e-01 1.413885000000000003e-01 3.672025000000000006e+01 1.631340000000000146e+02 2.084085000000000036e+03
1.229999999999999982e-01 1.413685000000000080e-01 3.610810000000000031e+01 1.623860000000000241e+02 2.083869999999999891e+03
1.239999999999999991e-01 1.413459999999999994e-01 3.546590000000000487e+01 1.615180000000000007e+02 2.083614999999999782e+03
1.250000000000000000e-01 1.413194999999999868e-01 3.478754999999999598e+01 1.605194999999999936e+02 2.083340000000000146e+03
1.260000000000000009e-01 1.412899999999999989e-01 3.406925000000000381e+01 1.593855000000000075e+02 2.083019999999999982e+03
1.270000000000000018e-01 1.412565000000000071e-01 3.330949999999999989e+01 1.581169999999999902e+02 2.082659999999999854e+03
1.280000000000000027e-01 1.412189999999999834e-01 3.250939999999999941e+01 1.567210000000000036e+02 2.082264999999999873e+03
1.290000000000000036e-01 1.411784999999999846e-01 3.167265000000000086e+01 1.552115000000000009e+02 2.081829999999999927e+03
1.300000000000000044e-01 1.411344999999999961e-01 3.080525000000000091e+01 1.536069999999999993e+02 2.081359999999999673e+03
1.310000000000000053e-01 1.410879999999999912e-01 2.991550000000000153e+01 1.519314999999999998e+02 2.080855000000000018e+03
1.320000000000000062e-01 1.410389999999999977e-01 2.901314999999999600e+01 1.502115000000000009e+02 2.080335000000000036e+03
1.330000000000000071e-01 1.409885000000000166e-01 2.810925000000000296e+01 1.484775000000000205e+02 2.079795000000000073e+03
1.340000000000000080e-01 1.409374999999999933e-01 2.721565000000000012e+01 1.467595000000000027e+02 2.079255000000000109e+03
1.350000000000000089e-01 1.408869999999999845e-01 2.634420000000000073e+01 1.450869999999999891e+02 2.078710000000000036e+03
1.360000000000000098e-01 1.408375000000000044e-01 2.550645000000000095e+01 1.434879999999999995e+02 2.078175000000000182e+03
1.370000000000000107e-01 1.407895000000000119e-01 2.471289999999999765e+01 1.419884999999999877e+02 2.077659999999999854e+03
1.380000000000000115e-01 1.407444999999999946e-01 2.397285000000000110e+01 1.406080000000000041e+02 2.077175000000000182e+03
1.390000000000000124e-01 1.407019999999999937e-01 2.329379999999999740e+01 1.393639999999999759e+02 2.076715000000000146e+03
1.400000000000000133e-01 1.406629999999999825e-01 2.268124999999999858e+01 1.382680000000000007e+02 2.076300000000000182e+03
1.410000000000000142e-01 1.406284999999999896e-01 2.213870000000000005e+01 1.373249999999999886e+02 2.075925000000000182e+03
1.420000000000000151e-01 1.405980000000000008e-01 2.166740000000000066e+01 1.365355000000000132e+02 2.075590000000000146e+03
1.430000000000000160e-01 1.405715000000000159e-01 2.126660000000000039e+01 1.358965000000000032e+02 2.075305000000000291e+03
1.440000000000000169e-01 1.405494999999999939e-01 2.093365000000000009e+01 1.353980000000000246e+02 2.075059999999999945e+03
1.450000000000000178e-01 1.405315000000000036e-01 2.066420000000000101e+01 1.350289999999999964e+02 2.074860000000000127e+03
1.459999999999999909e-01 1.405170000000000030e-01 2.045244999999999891e+01 1.347735000000000127e+02 2.074699999999999818e+03
1.469999999999999918e-01 1.405065000000000064e-01 2.029175000000000040e+01 1.346159999999999854e+02 2.074574999999999818e+03
1.479999999999999927e-01 1.404980000000000118e-01 2.017445000000000022e+01 1.345380000000000109e+02 2.074489999999999782e+03
1.489999999999999936e-01 1.404925000000000201e-01 2.009275000000000233e+01 1.345204999999999984e+02 2.074425000000000182e+03
1.499999999999999944e-01 1.404894999999999894e-01 2.003860000000000241e+01 1.345475000000000136e+02 2.074385000000000218e+03
1.509999999999999953e-01 1.404874999999999874e-01 2.000424999999999898e+01 1.346009999999999991e+02 2.074359999999999673e+03
1.519999999999999962e-01 1.404865000000000141e-01 1.998245000000000005e+01 1.346675000000000182e+02 2.074350000000000364e+03
1.529999999999999971e-01 1.404865000000000141e-01 1.996645000000000181e+01 1.347314999999999827e+02 2.074345000000000255e+03
1.539999999999999980e-01 1.404865000000000141e-01 1.995054999999999978e+01 1.347839999999999918e+02 2.074344999999999800e+03
1.549999999999999989e-01 1.404870000000000008e-01 1.992995000000000161e+01 1.348165000000000191e+02 2.074345000000000255e+03
1.559999999999999998e-01 1.404865000000000141e-01 1.990095000000000169e+01 1.348220000000000027e+02 2.074340000000000146e+03
1.570000000000000007e-01 1.404859999999999998e-01 1.986090000000000089e+01 1.347980000000000018e+02 2.074335000000000036e+03
1.580000000000000016e-01 1.404845000000000121e-01 1.980839999999999890e+01 1.347439999999999998e+02 2.074319999999999709e+03
1.590000000000000024e-01 1.404829999999999968e-01 1.974289999999999878e+01 1.346600000000000250e+02 2.074304999999999836e+03
