# t [s], A [cm^2], U [cm/s], P [cPa], c [cm/s]
1.000000000000000021e-03 7.941814999999999847e-01 4.982500000000000817e-03 9.374559999999999604e+01 1.699424999999999955e+03
2.000000000000000042e-03 7.941720000000001001e-01 3.592249999999999957e-03 9.371645000000000891e+01 1.699420000000000073e+03
3.000000000000000062e-03 7.942575000000000607e-01 1.365118499999999901e-01 9.386539999999999395e+01 1.699454999999999927e+03
4.000000000000000083e-03 7.942994999999999362e-01 2.220353499999999924e-01 9.396684999999999377e+01 1.699480000000000018e+03
5.000000000000000104e-03 7.942279999999999340e-01 1.457149999999999834e-01 9.380455000000000609e+01 1.699445000000000164e+03
6.000000000000000125e-03 7.941340000000000066e-01 2.504199999999995319e-02 9.348589999999998668e+01 1.699375000000000000e+03
7.000000000000000146e-03 7.940350000000000463e-01 -1.176850000000000396e-01 9.306754999999999711e+01 1.699279999999999973e+03
8.000000000000000167e-03 7.938529999999999198e-01 -4.021900000000000475e-01 9.239634999999999820e+01 1.699134999999999991e+03
9.000000000000001055e-03 7.935775000000000468e-01 -8.480749999999999122e-01 9.139759999999999707e+01 1.698920000000000073e+03
1.000000000000000194e-02 7.931970000000000409e-01 -1.463219999999999743e+00 9.001210000000000377e+01 1.698615000000000009e+03
1.099999999999999936e-02 7.926794999999999813e-01 -2.276015000000000121e+00 8.814939999999999998e+01 1.698190000000000055e+03
1.200000000000000025e-02 7.920485000000000442e-01 -3.224755000000000038e+00 8.583305000000000007e+01 1.697664999999999964e+03
1.300000000000000114e-02 7.914060000000000539e-01 -4.121120000000000339e+00 8.329214999999999236e+01 1.697065000000000055e+03
1.400000000000000203e-02 7.908644999999999703e-01 -4.748437000000000019e+00 8.086164999999999736e+01 1.696470000000000027e+03
1.499999999999999944e-02 7.904820000000000180e-01 -4.978298999999999808e+00 7.880799999999999272e+01 1.695930000000000064e+03
1.600000000000000033e-02 7.902420000000000000e-01 -4.813845000000000596e+00 7.722169999999999845e+01 1.695480000000000018e+03
1.700000000000000122e-02 7.900745000000000129e-01 -4.362129999999999619e+00 7.601404999999999745e+01 1.695105000000000018e+03
1.800000000000000211e-02 7.898969999999999603e-01 -3.773115000000000219e+00 7.498414999999999964e+01 1.694765000000000100e+03
1.900000000000000300e-02 7.896464999999999179e-01 -3.176234999999999697e+00 7.391515000000001123e+01 1.694425000000000182e+03
2.000000000000000042e-02 7.893010000000000304e-01 -2.636313889999999827e+00 7.266069999999999141e+01 1.694055000000000064e+03
2.100000000000000130e-02 7.888819999999999721e-01 -2.144099999999999895e+00 7.118874999999999886e+01 1.693644999999999982e+03
2.200000000000000219e-02 7.884329999999999394e-01 -1.642794999999999783e+00 6.956719999999999970e+01 1.693200000000000045e+03
2.299999999999999961e-02 7.879975000000000174e-01 -1.073334999999999928e+00 6.790654999999999575e+01 1.692744999999999891e+03
2.400000000000000050e-02 7.875950000000000450e-01 -4.142899999999998251e-01 6.629265000000000896e+01 1.692295000000000073e+03
2.500000000000000139e-02 7.872135000000000105e-01 2.992449999999999832e-01 6.473985000000000412e+01 1.691849999999999909e+03
2.600000000000000228e-02 7.868135000000000545e-01 9.799699999999997857e-01 6.317714999999999748e+01 1.691400000000000091e+03
2.700000000000000316e-02 7.863419999999999854e-01 1.510319999999999885e+00 6.146519999999999584e+01 1.690924999999999955e+03
2.800000000000000058e-02 7.857490000000000308e-01 1.774020000000000152e+00 5.943735000000000213e+01 1.690390000000000100e+03
2.900000000000000147e-02 7.850014999999999077e-01 1.688394999999999868e+00 5.695165000000000077e+01 1.689755000000000109e+03
3.000000000000000236e-02 7.840985000000000316e-01 1.228465000000000362e+00 5.393940000000000623e+01 1.689005000000000109e+03
3.099999999999999978e-02 7.830694999999999739e-01 4.347899999999995657e-01 5.043390000000000128e+01 1.688144999999999982e+03
3.200000000000000067e-02 7.819720000000000004e-01 -5.971150000000005065e-01 4.657040000000000646e+01 1.687195000000000164e+03
3.300000000000000155e-02 7.808764999999999734e-01 -1.740489999999999426e+00 4.256000000000000227e+01 1.686199999999999818e+03
3.400000000000000244e-02 7.798510000000000719e-01 -2.864719999999999711e+00 3.864824999999999733e+01 1.685219999999999800e+03
3.500000000000000333e-02 7.789530000000000065e-01 -3.857370000000000410e+00 3.507300000000000040e+01 1.684295000000000073e+03
3.600000000000000422e-02 7.782229999999999981e-01 -4.636974999999999625e+00 3.203190000000000026e+01 1.683480000000000018e+03
3.700000000000000511e-02 7.776804999999999968e-01 -5.156104499999999646e+00 2.966339999999999932e+01 1.682809999999999945e+03
3.799999999999999906e-02 7.773320000000000229e-01 -5.397079999999999878e+00 2.804204999999999970e+01 1.682309999999999945e+03
3.899999999999999994e-02 7.771710000000000562e-01 -5.362915000000000099e+00 2.718574999999999875e+01 1.682000000000000000e+03
4.000000000000000083e-02 7.771855000000000846e-01 -5.067444999999999311e+00 2.706974999999999909e+01 1.681865000000000009e+03
4.100000000000000172e-02 7.773624999999999563e-01 -4.526740000000000208e+00 2.764439999999999742e+01 1.681914999999999964e+03
4.200000000000000261e-02 7.776870000000000172e-01 -3.754200999999999677e+00 2.884960000000000235e+01 1.682125000000000000e+03
4.300000000000000350e-02 7.781480000000000619e-01 -2.759904999999999831e+00 3.062429999999999808e+01 1.682490000000000009e+03
4.400000000000000439e-02 7.787334999999999674e-01 -1.553465000000000096e+00 3.290950000000000131e+01 1.682994999999999891e+03
4.499999999999999833e-02 7.794315000000000548e-01 -1.485049999999996651e-01 3.564615000000000578e+01 1.683619999999999891e+03
4.599999999999999922e-02 7.802255000000000162e-01 1.433290000000000397e+00 3.877040000000000219e+01 1.684349999999999909e+03
4.700000000000000011e-02 7.810960000000000125e-01 3.160080000000000222e+00 4.221025000000000205e+01 1.685174999999999955e+03
4.800000000000000100e-02 7.820200000000000484e-01 4.990334999999999965e+00 4.588374999999999915e+01 1.686070000000000164e+03
4.900000000000000189e-02 7.829734999999999889e-01 6.875555000000000305e+00 4.970089999999999719e+01 1.687014999999999873e+03
5.000000000000000278e-02 7.839294999999999458e-01 8.764641499999999752e+00 5.356844999999999857e+01 1.687985000000000127e+03
5.100000000000000366e-02 7.848665000000000225e-01 1.060837000000000074e+01 5.739620000000000033e+01 1.688960000000000036e+03
5.200000000000000455e-02 7.857659999999999645e-01 1.236382000000000048e+01 6.110414999999999708e+01 1.689920000000000073e+03
5.300000000000000544e-02 7.866130000000000067e-01 1.399720999999999904e+01 6.462770000000000437e+01 1.690849999999999909e+03
5.399999999999999939e-02 7.873999999999999888e-01 1.548554500000000012e+01 6.792199999999999704e+01 1.691735000000000127e+03
5.500000000000000028e-02 7.881245000000000056e-01 1.681674999999999898e+01 7.096335000000000548e+01 1.692559999999999945e+03
5.600000000000000117e-02 7.887889999999999624e-01 1.798879999999999768e+01 7.374840000000000373e+01 1.693335000000000036e+03
5.700000000000000205e-02 7.893989999999999618e-01 1.900784999999999769e+01 7.629179999999999495e+01 1.694045000000000073e+03
5.800000000000000294e-02 7.899639999999999995e-01 1.988654999999999973e+01 7.862260000000000559e+01 1.694710000000000036e+03
5.900000000000000383e-02 7.904940000000000300e-01 2.064195000000000135e+01 8.078000000000000114e+01 1.695325000000000045e+03
6.000000000000000472e-02 7.910014999999999130e-01 2.129400000000000048e+01 8.280944999999999823e+01 1.695909999999999854e+03
6.099999999999999867e-02 7.914970000000000061e-01 2.186390000000000100e+01 8.475844999999999629e+01 1.696464999999999918e+03
6.199999999999999956e-02 7.919914999999999594e-01 2.237259999999999849e+01 8.667289999999999850e+01 1.697009999999999991e+03
6.300000000000000044e-02 7.924940000000000317e-01 2.283954999999999913e+01 8.859379999999998745e+01 1.697549999999999955e+03
6.400000000000000133e-02 7.930120000000000502e-01 2.328119999999999834e+01 9.055389999999999873e+01 1.698094999999999800e+03
6.500000000000000222e-02 7.935490000000000599e-01 2.370974999999999966e+01 9.257560000000000855e+01 1.698650000000000091e+03
6.600000000000000311e-02 7.941059999999999786e-01 2.413230000000000075e+01 9.466859999999999786e+01 1.699224999999999909e+03
6.700000000000000400e-02 7.946805000000000119e-01 2.455055000000000121e+01 9.682935000000000514e+01 1.699804999999999836e+03
6.800000000000000488e-02 7.952660000000000284e-01 2.496059999999999945e+01 9.904124999999999091e+01 1.700410000000000082e+03
6.900000000000000577e-02 7.958545000000000202e-01 2.535360000000000014e+01 1.012759999999999962e+02 1.701009999999999991e+03
7.000000000000000666e-02 7.964354999999999629e-01 2.571710000000000207e+01 1.034964999999999975e+02 1.701615000000000009e+03
7.100000000000000755e-02 7.969969999999999555e-01 2.603600000000000136e+01 1.056585000000000036e+02 1.702200000000000045e+03
7.200000000000000844e-02 7.975274999999999448e-01 2.629435000000000144e+01 1.077160000000000082e+02 1.702765000000000100e+03
7.300000000000000933e-02 7.980154999999999887e-01 2.647644999999999982e+01 1.096225000000000023e+02 1.703299999999999955e+03
7.399999999999999634e-02 7.984514999999999807e-01 2.656855000000000189e+01 1.113379999999999939e+02 1.703784999999999854e+03
7.499999999999999722e-02 7.988269999999999538e-01 2.655924999999999869e+01 1.128250000000000028e+02 1.704215000000000146e+03
7.599999999999999811e-02 7.991364999999999164e-01 2.644069999999999965e+01 1.140585000000000093e+02 1.704579999999999927e+03
7.699999999999999900e-02 7.993765000000000454e-01 2.620880000000000010e+01 1.150199999999999960e+02 1.704884999999999991e+03
7.799999999999999989e-02 7.995464999999999378e-01 2.586355000000000004e+01 1.157034999999999911e+02 1.705110000000000127e+03
7.900000000000000078e-02 7.996490000000000542e-01 2.540885000000000105e+01 1.161124999999999972e+02 1.705269999999999982e+03
8.000000000000000167e-02 7.996864999999999668e-01 2.485240000000000293e+01 1.162580000000000098e+02 1.705355000000000018e+03
8.100000000000000255e-02 7.996654999999999180e-01 2.420519999999999783e+01 1.161634999999999991e+02 1.705380000000000109e+03
8.200000000000000344e-02 7.995939999999999159e-01 2.348124999999999929e+01 1.158559999999999945e+02 1.705349999999999909e+03
8.300000000000000433e-02 7.994805000000000383e-01 2.269650000000000034e+01 1.153689999999999998e+02 1.705259999999999991e+03
8.400000000000000522e-02 7.993335000000000301e-01 2.186860000000000070e+01 1.147409999999999997e+02 1.705134999999999991e+03
8.500000000000000611e-02 7.991639999999999855e-01 2.101579999999999870e+01 1.140109999999999957e+02 1.704970000000000027e+03
8.600000000000000699e-02 7.989809999999999413e-01 2.015615000000000023e+01 1.132175000000000011e+02 1.704784999999999854e+03
8.700000000000000788e-02 7.987935000000000452e-01 1.930675000000000097e+01 1.123990000000000009e+02 1.704589999999999918e+03
8.800000000000000877e-02 7.986100000000000421e-01 1.848304999999999865e+01 1.115895000000000010e+02 1.704389999999999873e+03
8.899999999999999578e-02 7.984369999999999523e-01 1.769794999999999874e+01 1.108185000000000002e+02 1.704190000000000055e+03
8.999999999999999667e-02 7.982789999999999608e-01 1.696154999999999902e+01 1.101085000000000065e+02 1.704000000000000000e+03
9.099999999999999756e-02 7.981404999999999195e-01 1.628054999999999808e+01 1.094770000000000039e+02 1.703829999999999927e+03
9.199999999999999845e-02 7.980225000000000790e-01 1.565810000000000102e+01 1.089335000000000093e+02 1.703674999999999955e+03
9.299999999999999933e-02 7.979245000000000365e-01 1.509405000000000108e+01 1.084799999999999898e+02 1.703545000000000073e+03
9.400000000000000022e-02 7.978460000000000552e-01 1.458505000000000074e+01 1.081115000000000066e+02 1.703429999999999836e+03
9.500000000000000111e-02 7.977825000000000610e-01 1.412469999999999892e+01 1.078195000000000050e+02 1.703335000000000036e+03
9.600000000000000200e-02 7.977315000000000378e-01 1.370449999999999946e+01 1.075865000000000009e+02 1.703259999999999991e+03
9.700000000000000289e-02 7.976864999999999650e-01 1.331390000000000029e+01 1.073950000000000102e+02 1.703190000000000055e+03
9.800000000000000377e-02 7.976430000000001019e-01 1.294140000000000157e+01 1.072229999999999990e+02 1.703134999999999991e+03
9.900000000000000466e-02 7.975955000000000128e-01 1.257509999999999906e+01 1.070474999999999994e+02 1.703075000000000045e+03
1.000000000000000056e-01 7.975375000000000103e-01 1.220313499999999962e+01 1.068470000000000084e+02 1.703014999999999873e+03
1.010000000000000064e-01 7.974655000000000493e-01 1.181465000000000032e+01 1.065995000000000061e+02 1.702944999999999936e+03
1.020000000000000073e-01 7.973749999999999449e-01 1.140034999999999954e+01 1.062884999999999991e+02 1.702865000000000009e+03
1.030000000000000082e-01 7.972630000000000550e-01 1.095289999999999964e+01 1.059000000000000057e+02 1.702759999999999991e+03
1.040000000000000091e-01 7.971289999999999765e-01 1.046752000000000038e+01 1.054260000000000019e+02 1.702639999999999873e+03
1.050000000000000100e-01 7.969720000000000137e-01 9.942114999999999370e+00 1.048615000000000066e+02 1.702500000000000000e+03
1.059999999999999970e-01 7.967930000000000845e-01 9.377565000000000595e+00 1.042100000000000080e+02 1.702335000000000036e+03
1.069999999999999979e-01 7.965960000000000818e-01 8.777530000000000499e+00 1.034793999999999983e+02 1.702154999999999973e+03
1.079999999999999988e-01 7.963845000000000507e-01 8.148460000000000036e+00 1.026830500000000086e+02 1.701954999999999927e+03
1.089999999999999997e-01 7.961624999999999952e-01 7.499005000000000365e+00 1.018395999999999901e+02 1.701744999999999891e+03
1.100000000000000006e-01 7.959374999999999645e-01 6.839800000000000324e+00 1.009694499999999948e+02 1.701519999999999982e+03
1.110000000000000014e-01 7.957144999999999913e-01 6.182764999999999844e+00 1.000981000000000023e+02 1.701299999999999955e+03
1.120000000000000023e-01 7.955010000000000137e-01 5.540409999999999613e+00 9.925000000000000000e+01 1.701075000000000045e+03
1.130000000000000032e-01 7.953025000000000233e-01 4.925279999999999880e+00 9.845069999999999766e+01 1.700865000000000009e+03
1.140000000000000041e-01 7.951254999999999296e-01 4.349229999999999485e+00 9.772419999999999618e+01 1.700664999999999964e+03
1.150000000000000050e-01 7.949745000000000283e-01 3.822809999999999597e+00 9.709165000000000134e+01 1.700490000000000009e+03
1.160000000000000059e-01 7.948530000000000317e-01 3.354754999999999932e+00 9.656899999999998840e+01 1.700340000000000146e+03
1.170000000000000068e-01 7.947634999999999561e-01 2.951559999999999739e+00 9.616974999999999341e+01 1.700224999999999909e+03
1.180000000000000077e-01 7.947079999999999700e-01 2.617245000000000044e+00 9.590029999999998722e+01 1.700130000000000109e+03
1.190000000000000085e-01 7.946845000000000159e-01 2.353204999999999991e+00 9.576234999999999786e+01 1.700075000000000045e+03
1.200000000000000094e-01 7.946934999999999416e-01 2.158259999999999845e+00 9.575209999999999866e+01 1.700049999999999955e+03
1.209999999999999964e-01 7.947314999999999241e-01 2.028840000000000199e+00 9.586074999999999591e+01 1.700054999999999836e+03
1.219999999999999973e-01 7.947940000000000005e-01 1.959270000000000067e+00 9.607525000000001114e+01 1.700095000000000027e+03
1.229999999999999982e-01 7.948770000000000557e-01 1.942129999999999912e+00 9.637899999999999068e+01 1.700150000000000091e+03
1.239999999999999991e-01 7.949760000000000160e-01 1.968729999999999869e+00 9.675305000000000177e+01 1.700230000000000018e+03
1.250000000000000000e-01 7.950855000000000006e-01 2.029519999999999769e+00 9.717689999999998918e+01 1.700324999999999818e+03
1.260000000000000009e-01 7.951995000000000591e-01 2.114564999999999806e+00 9.762975000000000136e+01 1.700430000000000064e+03
1.270000000000000018e-01 7.953145000000000353e-01 2.213975000000000026e+00 9.809125000000000227e+01 1.700539999999999964e+03
1.280000000000000027e-01 7.954255000000000075e-01 2.318290000000000184e+00 9.854234999999999900e+01 1.700650000000000091e+03
1.290000000000000036e-01 7.955274999999999430e-01 2.418785000000000185e+00 9.896635000000000559e+01 1.700759999999999991e+03
1.300000000000000044e-01 7.956180000000000474e-01 2.507775000000000087e+00 9.934810000000000230e+01 1.700860000000000127e+03
1.310000000000000053e-01 7.956944999999999713e-01 2.578780000000000072e+00 9.967680000000000007e+01 1.700945000000000164e+03
1.320000000000000062e-01 7.957549999999999901e-01 2.626680000000000348e+00 9.994304999999999950e+01 1.701019999999999982e+03
1.330000000000000071e-01 7.957984999999999642e-01 2.647794999999999899e+00 1.001422500000000042e+02 1.701079999999999927e+03
1.340000000000000080e-01 7.958244999999999347e-01 2.639899999999999913e+00 1.002720000000000056e+02 1.701125000000000000e+03
1.350000000000000089e-01 7.958339999999999304e-01 2.602184999999999970e+00 1.003319999999999936e+02 1.701150000000000091e+03
1.360000000000000098e-01 7.958270000000000621e-01 2.535169999999999924e+00 1.003255499999999927e+02 1.701159999999999854e+03
1.370000000000000107e-01 7.958060000000000134e-01 2.440585000000000004e+00 1.002580999999999989e+02 1.701150000000000091e+03
1.380000000000000115e-01 7.957724999999999937e-01 2.321215000000000028e+00 1.001353500000000025e+02 1.701130000000000109e+03
1.390000000000000124e-01 7.957290000000000196e-01 2.180680000000000174e+00 9.996694999999999709e+01 1.701095000000000027e+03
1.400000000000000133e-01 7.956765000000000088e-01 2.023220000000000240e+00 9.976095000000000823e+01 1.701050000000000182e+03
1.410000000000000142e-01 7.956179999999999364e-01 1.853477000000000041e+00 9.952740000000000009e+01 1.700994999999999891e+03
1.420000000000000151e-01 7.955564999999999998e-01 1.676232500000000014e+00 9.927514999999999645e+01 1.700940000000000055e+03
1.430000000000000160e-01 7.954934999999999645e-01 1.496157500000000029e+00 9.901304999999999268e+01 1.700875000000000000e+03
1.440000000000000169e-01 7.954309999999999992e-01 1.317616999999999816e+00 9.874854999999999450e+01 1.700809999999999945e+03
1.450000000000000178e-01 7.953700000000000214e-01 1.144449499999999897e+00 9.848919999999999675e+01 1.700744999999999891e+03
1.459999999999999909e-01 7.953120000000000189e-01 9.798145000000000326e-01 9.823904999999999177e+01 1.700679999999999836e+03
1.469999999999999918e-01 7.952574999999999505e-01 8.260990000000000277e-01 9.800159999999999627e+01 1.700619999999999891e+03
1.479999999999999927e-01 7.952069999999999972e-01 6.848259500000000166e-01 9.777854999999999563e+01 1.700559999999999945e+03
1.489999999999999936e-01 7.951589999999999492e-01 5.567054000000000169e-01 9.756945000000000334e+01 1.700505000000000109e+03
1.499999999999999944e-01 7.951139999999999874e-01 4.416464999999999974e-01 9.737254999999998972e+01 1.700445000000000164e+03
1.509999999999999953e-01 7.950709999999999722e-01 3.388845000000000329e-01 9.718484999999999729e+01 1.700394999999999982e+03
1.519999999999999962e-01 7.950284999999999158e-01 2.471109999999999973e-01 9.700230000000000530e+01 1.700345000000000027e+03
1.529999999999999971e-01 7.949855000000000116e-01 1.646330000000000016e-01 9.682025000000000148e+01 1.700295000000000073e+03
1.539999999999999980e-01 7.949399999999999800e-01 8.954550000000000010e-02 9.663389999999999702e+01 1.700244999999999891e+03
1.549999999999999989e-01 7.948919999999999320e-01 1.989699999999999802e-02 9.643854999999999222e+01 1.700190000000000055e+03
1.559999999999999998e-01 7.948394999999999211e-01 -4.616350000000002396e-02 9.623015000000000896e+01 1.700134999999999991e+03
1.570000000000000007e-01 7.947824999999999473e-01 -1.102605000000000113e-01 9.600534999999999286e+01 1.700075000000000045e+03
1.580000000000000016e-01 7.947204999999999409e-01 -1.736939999999999873e-01 9.576189999999999714e+01 1.700009999999999991e+03
1.590000000000000024e-01 7.946530000000000538e-01 -2.373745000000000160e-01 9.549860000000001037e+01 1.699940000000000055e+03
