# t [s], A [cm^2], U [cm/s], P [cPa], c [cm/s]
1.000000000000000021e-03 6.171140000000000514e-01 3.368000000000002936e-03 1.042254999999999967e+02 1.581464999999999918e+03
2.000000000000000042e-03 6.171090000000000186e-01 7.769249999999999247e-03 1.042049999999999983e+02 1.581460000000000036e+03
3.000000000000000062e-03 6.171794999999999920e-01 1.356616999999999962e-01 1.043395000000000010e+02 1.581500000000000000e+03
4.000000000000000083e-03 6.172154999999999170e-01 2.127486999999999850e-01 1.044329999999999927e+02 1.581525000000000091e+03
5.000000000000000104e-03 6.171675000000000910e-01 1.445409999999999751e-01 1.043040000000000020e+02 1.581500000000000000e+03
6.000000000000000125e-03 6.170949999999999491e-01 2.356950000000002099e-02 1.040165000000000077e+02 1.581429999999999836e+03
7.000000000000000146e-03 6.170139999999999514e-01 -1.237099999999999866e-01 1.036175000000000068e+02 1.581335000000000036e+03
8.000000000000000167e-03 6.168700000000000294e-01 -3.971550000000000358e-01 1.029865000000000066e+02 1.581184999999999945e+03
9.000000000000001055e-03 6.166479999999999739e-01 -8.237200000000001188e-01 1.020427499999999981e+02 1.580950000000000045e+03
1.000000000000000194e-02 6.163430000000000852e-01 -1.399050000000000127e+00 1.007438499999999948e+02 1.580630000000000109e+03
1.099999999999999936e-02 6.159330000000000638e-01 -2.142450000000000188e+00 9.901920000000001210e+01 1.580194999999999936e+03
1.200000000000000025e-02 6.154184999999999794e-01 -3.026374999999999815e+00 9.685220000000001050e+01 1.579639999999999873e+03
1.300000000000000114e-02 6.148560000000000692e-01 -3.917424999999999713e+00 9.437619999999999720e+01 1.578974999999999909e+03
1.400000000000000203e-02 6.143300000000000427e-01 -4.620487499999999415e+00 9.185599999999999454e+01 1.578279999999999973e+03
1.499999999999999944e-02 6.139075000000000504e-01 -4.976301099999999700e+00 8.956725000000000136e+01 1.577615000000000009e+03
1.600000000000000033e-02 6.136074999999999724e-01 -4.926798499999999414e+00 8.768134999999999479e+01 1.577019999999999982e+03
1.700000000000000122e-02 6.134014999999999329e-01 -4.521250000000000213e+00 8.621819999999999595e+01 1.576519999999999982e+03
1.800000000000000211e-02 6.132334999999999869e-01 -3.880249999999999755e+00 8.506430000000000291e+01 1.576085000000000036e+03
1.900000000000000300e-02 6.130459999999999798e-01 -3.143501000000000101e+00 8.403324999999999534e+01 1.575690000000000055e+03
2.000000000000000042e-02 6.127975000000001060e-01 -2.420597000000000332e+00 8.294190000000000396e+01 1.575285000000000082e+03
2.100000000000000130e-02 6.124760000000000204e-01 -1.761164999999999869e+00 8.167275000000000773e+01 1.574849999999999909e+03
2.200000000000000219e-02 6.120980000000000310e-01 -1.154199999999999893e+00 8.020095000000000596e+01 1.574369999999999891e+03
2.299999999999999961e-02 6.116935000000000011e-01 -5.537700000000000955e-01 7.857835000000000036e+01 1.573849999999999909e+03
2.400000000000000050e-02 6.112885000000000124e-01 8.451499999999967372e-02 7.688884999999999081e+01 1.573315000000000055e+03
2.500000000000000139e-02 6.108979999999999411e-01 7.737500000000001599e-01 7.519920000000000471e+01 1.572769999999999982e+03
2.600000000000000228e-02 6.105129999999999724e-01 1.482589999999999630e+00 7.352514999999999645e+01 1.572224999999999909e+03
2.700000000000000316e-02 6.101109999999999589e-01 2.139510000000000023e+00 7.182019999999999982e+01 1.571670000000000073e+03
2.800000000000000058e-02 6.096584999999999921e-01 2.650020000000000486e+00 6.998744999999999550e+01 1.571085000000000036e+03
2.900000000000000147e-02 6.091225000000000112e-01 2.920614999999999739e+00 6.790734999999999388e+01 1.570440000000000055e+03
3.000000000000000236e-02 6.084819999999999673e-01 2.883140000000000480e+00 6.547450000000000614e+01 1.569715000000000146e+03
3.099999999999999978e-02 6.077334999999999265e-01 2.513190000000000257e+00 6.263255000000000194e+01 1.568889999999999873e+03
3.200000000000000067e-02 6.068929999999999048e-01 1.838370000000000282e+00 5.939815000000000111e+01 1.567964999999999918e+03
3.300000000000000155e-02 6.059974999999999667e-01 9.332250000000001933e-01 5.586695000000000277e+01 1.566965000000000146e+03
3.400000000000000244e-02 6.050950000000000495e-01 -9.544999999999959073e-02 5.220104999999999507e+01 1.565914999999999964e+03
3.500000000000000333e-02 6.042380000000000528e-01 -1.128090000000000259e+00 4.860419999999999874e+01 1.564875000000000000e+03
3.600000000000000422e-02 6.034744999999999138e-01 -2.051039999999999530e+00 4.529090000000000060e+01 1.563889999999999873e+03
3.700000000000000511e-02 6.028454999999999231e-01 -2.770224999999999937e+00 4.245860000000000412e+01 1.563009999999999991e+03
3.799999999999999906e-02 6.023789999999999978e-01 -3.217965000000000408e+00 4.026699999999999591e+01 1.562289999999999964e+03
3.899999999999999994e-02 6.020900000000000141e-01 -3.354127999999999776e+00 3.882639999999999958e+01 1.561769999999999982e+03
4.000000000000000083e-02 6.019849999999999923e-01 -3.162329999999999863e+00 3.819545000000000101e+01 1.561460000000000036e+03
4.100000000000000172e-02 6.020604999999999984e-01 -2.643685000000000063e+00 3.838649999999999807e+01 1.561380000000000109e+03
4.200000000000000261e-02 6.023084999999999134e-01 -1.810095000000000010e+00 3.937550000000000239e+01 1.561529999999999973e+03
4.300000000000000350e-02 6.027160000000000295e-01 -6.788249999999997897e-01 4.111355000000000359e+01 1.561900000000000091e+03
4.400000000000000439e-02 6.032710000000000017e-01 7.305349999999997124e-01 4.353709999999999525e+01 1.562480000000000018e+03
4.499999999999999833e-02 6.039584999999999537e-01 2.396584999999999521e+00 4.657474999999999454e+01 1.563244999999999891e+03
4.599999999999999922e-02 6.047629999999999395e-01 4.294579999999999842e+00 5.015030000000000143e+01 1.564184999999999945e+03
4.700000000000000011e-02 6.056675000000000253e-01 6.394634999999999181e+00 5.418349999999999511e+01 1.565269999999999982e+03
4.800000000000000100e-02 6.066525000000000389e-01 8.659930000000001016e+00 5.858929999999999438e+01 1.566480000000000018e+03
4.900000000000000189e-02 6.076980000000000715e-01 1.104636849999999981e+01 6.327700000000000102e+01 1.567795000000000073e+03
5.000000000000000278e-02 6.087810000000000166e-01 1.350408000000000008e+01 6.815170000000000528e+01 1.569184999999999945e+03
5.100000000000000366e-02 6.098799999999999777e-01 1.597994499999999896e+01 7.311670000000000869e+01 1.570615000000000009e+03
5.200000000000000455e-02 6.109720000000000706e-01 1.842117000000000004e+01 7.807759999999998968e+01 1.572074999999999818e+03
5.300000000000000544e-02 6.120395000000000696e-01 2.077870000000000061e+01 8.294729999999999848e+01 1.573525000000000091e+03
5.399999999999999939e-02 6.130664999999999587e-01 2.301040000000000063e+01 8.765149999999999864e+01 1.574950000000000045e+03
5.500000000000000028e-02 6.140419999999999767e-01 2.508344999999999914e+01 9.213105000000000189e+01 1.576325000000000045e+03
5.600000000000000117e-02 6.149584999999999635e-01 2.697530000000000072e+01 9.634645000000000437e+01 1.577644999999999982e+03
5.700000000000000205e-02 6.158150000000000013e-01 2.867395000000000138e+01 1.002776499999999942e+02 1.578889999999999873e+03
5.800000000000000294e-02 6.166120000000000489e-01 3.017710000000000292e+01 1.039231499999999926e+02 1.580065000000000055e+03
5.900000000000000383e-02 6.173549999999999871e-01 3.149064999999999870e+01 1.072974000000000103e+02 1.581164999999999964e+03
6.000000000000000472e-02 6.180505000000000582e-01 3.262725000000000364e+01 1.104294999999999902e+02 1.582200000000000045e+03
6.099999999999999867e-02 6.187084999999999946e-01 3.360444999999999993e+01 1.133575000000000017e+02 1.583180000000000064e+03
6.199999999999999956e-02 6.193374999999999853e-01 3.444320000000000448e+01 1.161250000000000000e+02 1.584105000000000018e+03
6.300000000000000044e-02 6.199485000000000134e-01 3.516639999999999588e+01 1.187794999999999987e+02 1.584990000000000009e+03
6.400000000000000133e-02 6.205510000000000748e-01 3.579739999999999611e+01 1.213669999999999902e+02 1.585855000000000018e+03
6.500000000000000222e-02 6.211524999999999963e-01 3.635909999999999798e+01 1.239300000000000068e+02 1.586699999999999818e+03
6.600000000000000311e-02 6.217620000000000369e-01 3.687230000000000274e+01 1.265049999999999955e+02 1.587545000000000073e+03
6.700000000000000400e-02 6.223834999999999784e-01 3.735484999999999900e+01 1.291204999999999927e+02 1.588394999999999982e+03
6.800000000000000488e-02 6.230210000000000470e-01 3.782035000000000480e+01 1.317944999999999993e+02 1.589255000000000109e+03
6.900000000000000577e-02 6.236740000000000617e-01 3.827724999999999511e+01 1.345339999999999918e+02 1.590134999999999991e+03
7.000000000000000666e-02 6.243404999999999649e-01 3.872845000000000226e+01 1.373344999999999914e+02 1.591025000000000091e+03
7.100000000000000755e-02 6.250160000000000160e-01 3.917104999999999393e+01 1.401769999999999925e+02 1.591920000000000073e+03
7.200000000000000844e-02 6.256920000000000259e-01 3.959689999999999799e+01 1.430335000000000036e+02 1.592825000000000045e+03
7.300000000000000933e-02 6.263600000000000279e-01 3.999330000000000496e+01 1.458665000000000020e+02 1.593724999999999909e+03
7.399999999999999634e-02 6.270090000000000385e-01 4.034434999999999860e+01 1.486315000000000168e+02 1.594605000000000018e+03
7.499999999999999722e-02 6.276275000000000048e-01 4.063214999999999577e+01 1.512800000000000011e+02 1.595460000000000036e+03
7.599999999999999811e-02 6.282060000000000421e-01 4.083840000000000003e+01 1.537640000000000100e+02 1.596264999999999873e+03
7.699999999999999900e-02 6.287340000000000151e-01 4.094575000000000387e+01 1.560364999999999895e+02 1.597014999999999873e+03
7.799999999999999989e-02 6.292024999999999979e-01 4.093919999999999959e+01 1.580579999999999927e+02 1.597700000000000045e+03
7.900000000000000078e-02 6.296044999999999003e-01 4.080689999999999884e+01 1.597944999999999993e+02 1.598295000000000073e+03
8.000000000000000167e-02 6.299365000000000103e-01 4.054110000000000014e+01 1.612235000000000014e+02 1.598809999999999945e+03
8.100000000000000255e-02 6.301950000000000607e-01 4.013840000000000430e+01 1.623315000000000055e+02 1.599224999999999909e+03
8.200000000000000344e-02 6.303814999999999280e-01 3.959994999999999976e+01 1.631175000000000068e+02 1.599549999999999955e+03
8.300000000000000433e-02 6.304984999999999618e-01 3.893155000000000143e+01 1.635899999999999750e+02 1.599775000000000091e+03
8.400000000000000522e-02 6.305499999999999439e-01 3.814300000000000068e+01 1.637669999999999959e+02 1.599904999999999973e+03
8.500000000000000611e-02 6.305430000000000756e-01 3.724790000000000134e+01 1.636765000000000043e+02 1.599954999999999927e+03
8.600000000000000699e-02 6.304849999999999621e-01 3.626290000000000191e+01 1.633520000000000039e+02 1.599925000000000182e+03
8.700000000000000788e-02 6.303849999999999731e-01 3.520689999999999742e+01 1.628340000000000032e+02 1.599835000000000036e+03
8.800000000000000877e-02 6.302520000000000344e-01 3.410025000000000261e+01 1.621645000000000039e+02 1.599684999999999945e+03
8.899999999999999578e-02 6.300970000000000182e-01 3.296410000000000196e+01 1.613884999999999934e+02 1.599500000000000000e+03
8.999999999999999667e-02 6.299285000000000023e-01 3.181909999999999883e+01 1.605500000000000114e+02 1.599279999999999973e+03
9.099999999999999756e-02 6.297559999999999825e-01 3.068500000000000227e+01 1.596904999999999859e+02 1.599045000000000073e+03
9.199999999999999845e-02 6.295870000000000077e-01 2.957954999999999757e+01 1.588474999999999966e+02 1.598804999999999836e+03
9.299999999999999933e-02 6.294295000000000861e-01 2.851769999999999783e+01 1.580529999999999973e+02 1.598570000000000164e+03
9.400000000000000022e-02 6.292874999999999996e-01 2.751145000000000351e+01 1.573344999999999914e+02 1.598349999999999909e+03
9.500000000000000111e-02 6.291649999999999743e-01 2.656909999999999883e+01 1.567085000000000150e+02 1.598150000000000091e+03
9.600000000000000200e-02 6.290655000000000552e-01 2.569494999999999862e+01 1.561879999999999882e+02 1.597974999999999909e+03
9.700000000000000289e-02 6.289869999999999628e-01 2.488980000000000103e+01 1.557749999999999773e+02 1.597829999999999927e+03
9.800000000000000377e-02 6.289295000000000302e-01 2.415044999999999931e+01 1.554660000000000082e+02 1.597715000000000146e+03
9.900000000000000466e-02 6.288894999999999902e-01 2.347044999999999959e+01 1.552495000000000118e+02 1.597625000000000000e+03
1.000000000000000056e-01 6.288644999999999374e-01 2.284065000000000012e+01 1.551094999999999970e+02 1.597554999999999836e+03
1.010000000000000064e-01 6.288484999999999214e-01 2.224949999999999761e+01 1.550255000000000223e+02 1.597505000000000109e+03
1.020000000000000073e-01 6.288365000000000204e-01 2.168404999999999916e+01 1.549724999999999966e+02 1.597470000000000027e+03
1.030000000000000082e-01 6.288230000000000208e-01 2.113049999999999784e+01 1.549250000000000114e+02 1.597440000000000055e+03
1.040000000000000091e-01 6.288020000000000831e-01 2.057515000000000072e+01 1.548580000000000041e+02 1.597405000000000200e+03
1.050000000000000100e-01 6.287689999999999113e-01 2.000475000000000136e+01 1.547464999999999975e+02 1.597359999999999900e+03
1.059999999999999970e-01 6.287190000000000278e-01 1.940769999999999840e+01 1.545685000000000002e+02 1.597304999999999836e+03
1.069999999999999979e-01 6.286484999999999435e-01 1.877420000000000044e+01 1.543059999999999832e+02 1.597230000000000018e+03
1.079999999999999988e-01 6.285555000000000447e-01 1.809684999999999988e+01 1.539454999999999814e+02 1.597125000000000000e+03
1.089999999999999997e-01 6.284384999999999000e-01 1.737105000000000032e+01 1.534789999999999850e+02 1.596990000000000009e+03
1.100000000000000006e-01 6.282969999999999944e-01 1.659519999999999840e+01 1.529035000000000082e+02 1.596829999999999927e+03
1.110000000000000014e-01 6.281324999999999825e-01 1.577069999999999972e+01 1.522224999999999966e+02 1.596634999999999991e+03
1.120000000000000023e-01 6.279474999999999918e-01 1.490199999999999925e+01 1.514449999999999932e+02 1.596414999999999964e+03
1.130000000000000032e-01 6.277455000000000673e-01 1.399605999999999995e+01 1.505849999999999795e+02 1.596170000000000073e+03
1.140000000000000041e-01 6.275315000000000198e-01 1.306247499999999917e+01 1.496600000000000250e+02 1.595905000000000200e+03
1.150000000000000050e-01 6.273100000000000342e-01 1.211253999999999920e+01 1.486924999999999955e+02 1.595625000000000000e+03
1.160000000000000059e-01 6.270860000000000323e-01 1.115904499999999899e+01 1.477065000000000055e+02 1.595335000000000036e+03
1.170000000000000068e-01 6.268659999999999233e-01 1.021559500000000043e+01 1.467255000000000109e+02 1.595039999999999964e+03
1.180000000000000077e-01 6.266555000000000319e-01 9.295844999999999914e+00 1.457769999999999868e+02 1.594750000000000000e+03
1.190000000000000085e-01 6.264590000000000991e-01 8.412949999999998596e+00 1.448829999999999814e+02 1.594480000000000018e+03
1.200000000000000094e-01 6.262820000000000054e-01 7.579064999999999941e+00 1.440660000000000025e+02 1.594220000000000027e+03
1.209999999999999964e-01 6.261274999999999480e-01 6.804590000000000138e+00 1.433439999999999941e+02 1.593990000000000009e+03
1.219999999999999973e-01 6.259989999999999721e-01 6.097954999999999792e+00 1.427305000000000064e+02 1.593779999999999973e+03
1.229999999999999982e-01 6.258970000000000367e-01 5.465119999999999756e+00 1.422344999999999970e+02 1.593609999999999900e+03
1.239999999999999991e-01 6.258224999999999483e-01 4.909449999999999648e+00 1.418609999999999900e+02 1.593470000000000027e+03
1.250000000000000000e-01 6.257749999999999702e-01 4.431684999999999874e+00 1.416080000000000041e+02 1.593365000000000009e+03
1.260000000000000009e-01 6.257530000000000037e-01 4.029975000000000307e+00 1.414694999999999823e+02 1.593295000000000073e+03
1.270000000000000018e-01 6.257534999999999625e-01 3.700099999999999945e+00 1.414364999999999952e+02 1.593255000000000109e+03
1.280000000000000027e-01 6.257729999999999126e-01 3.435799999999999965e+00 1.414935000000000116e+02 1.593250000000000000e+03
1.290000000000000036e-01 6.258070000000000022e-01 3.229109999999999925e+00 1.416239999999999952e+02 1.593264999999999873e+03
1.300000000000000044e-01 6.258520000000000749e-01 3.070829999999999949e+00 1.418090000000000259e+02 1.593295000000000073e+03
1.310000000000000053e-01 6.259029999999999871e-01 2.950960000000000250e+00 1.420279999999999916e+02 1.593340000000000146e+03
1.320000000000000062e-01 6.259554999999999980e-01 2.859160000000000146e+00 1.422605000000000075e+02 1.593390000000000100e+03
1.330000000000000071e-01 6.260054999999999925e-01 2.785165000000000113e+00 1.424879999999999995e+02 1.593450000000000045e+03
1.340000000000000080e-01 6.260489999999999666e-01 2.719184999999999963e+00 1.426920000000000073e+02 1.593500000000000000e+03
1.350000000000000089e-01 6.260829999999999451e-01 2.652239999999999931e+00 1.428564999999999827e+02 1.593545000000000073e+03
1.360000000000000098e-01 6.261035000000000350e-01 2.576405000000000278e+00 1.429675000000000011e+02 1.593575000000000045e+03
1.370000000000000107e-01 6.261099999999999444e-01 2.485065000000000079e+00 1.430155000000000030e+02 1.593590000000000146e+03
1.380000000000000115e-01 6.260999999999999899e-01 2.373009999999999842e+00 1.429925000000000068e+02 1.593585000000000036e+03
1.390000000000000124e-01 6.260734999999999495e-01 2.236520000000000064e+00 1.428950000000000102e+02 1.593570000000000164e+03
1.400000000000000133e-01 6.260299999999999754e-01 2.073409999999999975e+00 1.427205000000000155e+02 1.593525000000000091e+03
1.410000000000000142e-01 6.259699999999999154e-01 1.882946500000000079e+00 1.424710000000000036e+02 1.593454999999999927e+03
1.420000000000000151e-01 6.258945000000000203e-01 1.665775999999999923e+00 1.421510000000000105e+02 1.593369999999999891e+03
1.430000000000000160e-01 6.258049999999999446e-01 1.423800500000000024e+00 1.417649999999999864e+02 1.593265000000000100e+03
1.440000000000000169e-01 6.257034999999999680e-01 1.160012499999999891e+00 1.413224999999999909e+02 1.593144999999999982e+03
1.450000000000000178e-01 6.255924999999999958e-01 8.783015000000000683e-01 1.408305000000000007e+02 1.593005000000000109e+03
1.459999999999999909e-01 6.254729999999999457e-01 5.832400000000000917e-01 1.403009999999999877e+02 1.592855000000000018e+03
1.469999999999999918e-01 6.253480000000000150e-01 2.798699999999999521e-01 1.397420000000000186e+02 1.592694999999999936e+03
1.479999999999999927e-01 6.252199999999999980e-01 -2.655499999999999527e-02 1.391655000000000086e+02 1.592525000000000091e+03
1.489999999999999936e-01 6.250900000000000345e-01 -3.307700000000000085e-01 1.385799999999999841e+02 1.592349999999999909e+03
1.499999999999999944e-01 6.249614999999999476e-01 -6.277494999999999603e-01 1.379950000000000045e+02 1.592174999999999955e+03
1.509999999999999953e-01 6.248350000000000293e-01 -9.129095000000000404e-01 1.374174999999999898e+02 1.592005000000000109e+03
1.519999999999999962e-01 6.247125000000000039e-01 -1.182300500000000198e+00 1.368555000000000064e+02 1.591824999999999818e+03
1.529999999999999971e-01 6.245939999999999825e-01 -1.432736999999999927e+00 1.363125000000000000e+02 1.591659999999999854e+03
1.539999999999999980e-01 6.244809999999999528e-01 -1.661924500000000027e+00 1.357914999999999850e+02 1.591494999999999891e+03
1.549999999999999989e-01 6.243724999999999969e-01 -1.868505499999999930e+00 1.352939999999999827e+02 1.591340000000000146e+03
1.559999999999999998e-01 6.242695000000000327e-01 -2.052095000000000002e+00 1.348199999999999932e+02 1.591190000000000055e+03
1.570000000000000007e-01 6.241704999999999615e-01 -2.213204999999999867e+00 1.343665000000000020e+02 1.591039999999999964e+03
1.580000000000000016e-01 6.240745000000000875e-01 -2.353194999999999926e+00 1.339304999999999950e+02 1.590900000000000091e+03
1.590000000000000024e-01 6.239809999999998968e-01 -2.474110000000000031e+00 1.335070000000000050e+02 1.590759999999999991e+03
