# t [s], A [cm^2], U [cm/s], P [cPa], c [cm/s]
1.000000000000000021e-03 5.741974999999999163e-01 5.456349999999998701e-03 1.087439999999999998e+02 1.612965000000000146e+03
2.000000000000000042e-03 5.741895000000000193e-01 1.861685000000000076e-03 1.087170000000000130e+02 1.612950000000000045e+03
3.000000000000000062e-03 5.742494999999999683e-01 1.197282999999999958e-01 1.088439999999999941e+02 1.612985000000000127e+03
4.000000000000000083e-03 5.742884999999999796e-01 2.098579999999999890e-01 1.089540000000000077e+02 1.613019999999999982e+03
5.000000000000000104e-03 5.742475000000000218e-01 1.533095000000000152e-01 1.088395000000000010e+02 1.612994999999999891e+03
6.000000000000000125e-03 5.741775000000000073e-01 3.392000000000000570e-02 1.085564999999999998e+02 1.612925000000000182e+03
7.000000000000000146e-03 5.741095000000000503e-01 -9.323299999999995480e-02 1.081879999999999882e+02 1.612840000000000146e+03
8.000000000000000167e-03 5.739914999999999878e-01 -3.331149999999999389e-01 1.076154999999999973e+02 1.612695000000000164e+03
9.000000000000001055e-03 5.738060000000000382e-01 -7.202299999999999258e-01 1.067545000000000073e+02 1.612485000000000127e+03
1.000000000000000194e-02 5.735535000000000494e-01 -1.246625000000000094e+00 1.055679999999999978e+02 1.612184999999999945e+03
1.099999999999999936e-02 5.732094999999999274e-01 -1.937720000000000109e+00 1.039762999999999948e+02 1.611784999999999854e+03
1.200000000000000025e-02 5.727689999999999726e-01 -2.780855000000000299e+00 1.019391499999999979e+02 1.611255000000000109e+03
1.300000000000000114e-02 5.722785000000000233e-01 -3.650449999999999751e+00 9.957310000000001082e+01 1.610625000000000000e+03
1.400000000000000203e-02 5.718190000000000772e-01 -4.346662999999999499e+00 9.713875000000000171e+01 1.609949999999999818e+03
1.499999999999999944e-02 5.714529999999999887e-01 -4.700903499999999902e+00 9.491469999999999629e+01 1.609305000000000064e+03
1.600000000000000033e-02 5.711979999999999835e-01 -4.649217499999999781e+00 9.307189999999999941e+01 1.608724999999999909e+03
1.700000000000000122e-02 5.710250000000000048e-01 -4.240059999999999718e+00 9.162279999999999802e+01 1.608230000000000018e+03
1.800000000000000211e-02 5.708790000000000253e-01 -3.596355500000000038e+00 9.044435000000000002e+01 1.607795000000000073e+03
1.900000000000000300e-02 5.707035000000000302e-01 -2.860215500000000244e+00 8.934295000000000186e+01 1.607389999999999873e+03
2.000000000000000042e-02 5.704605000000000370e-01 -2.141176000000000190e+00 8.813499999999999091e+01 1.606960000000000036e+03
2.100000000000000130e-02 5.701435000000000253e-01 -1.484344999999999803e+00 8.671244999999998981e+01 1.606490000000000009e+03
2.200000000000000219e-02 5.697714999999999863e-01 -8.696499999999998121e-01 8.506980000000000075e+01 1.605960000000000036e+03
2.299999999999999961e-02 5.693789999999999685e-01 -2.397550000000001624e-01 8.328360000000000696e+01 1.605394999999999982e+03
2.400000000000000050e-02 5.689965000000000162e-01 4.597649999999999793e-01 8.146195000000000164e+01 1.604815000000000055e+03
2.500000000000000139e-02 5.686385000000000467e-01 1.247595000000000010e+00 7.968895000000000550e+01 1.604244999999999891e+03
2.600000000000000228e-02 5.682985000000000397e-01 2.091969999999999885e+00 7.798765000000000214e+01 1.603680000000000064e+03
2.700000000000000316e-02 5.679525000000000823e-01 2.914984999999999715e+00 7.630805000000000859e+01 1.603125000000000000e+03
2.800000000000000058e-02 5.675654999999999450e-01 3.611139999999999795e+00 7.454059999999999775e+01 1.602549999999999955e+03
2.900000000000000147e-02 5.671024999999999539e-01 4.073800000000000310e+00 7.254769999999999186e+01 1.601929999999999836e+03
3.000000000000000236e-02 5.665405000000000024e-01 4.222640000000000171e+00 7.020490000000000919e+01 1.601220000000000027e+03
3.099999999999999978e-02 5.658750000000000169e-01 4.025714999999999932e+00 6.744235000000000468e+01 1.600414999999999964e+03
3.200000000000000067e-02 5.651224999999999721e-01 3.508669999999999511e+00 6.427139999999999986e+01 1.599505000000000109e+03
3.300000000000000155e-02 5.643184999999999452e-01 2.749480000000000146e+00 6.079134999999999422e+01 1.598514999999999873e+03
3.400000000000000244e-02 5.635109999999999841e-01 1.860459999999999781e+00 5.717350000000000421e+01 1.597480000000000018e+03
3.500000000000000333e-02 5.627495000000000136e-01 9.657000000000000028e-01 5.363089999999999691e+01 1.596445000000000164e+03
3.600000000000000422e-02 5.620800000000000241e-01 1.798200000000003129e-01 5.038344999999999629e+01 1.595480000000000018e+03
3.700000000000000511e-02 5.615364999999999940e-01 -4.059550000000000658e-01 4.762789999999999679e+01 1.594625000000000000e+03
3.799999999999999906e-02 5.611414999999999598e-01 -7.302849999999998509e-01 4.551684999999999803e+01 1.593934999999999945e+03
3.899999999999999994e-02 5.609055000000000568e-01 -7.610550000000000370e-01 4.414889999999999759e+01 1.593440000000000055e+03
4.000000000000000083e-02 5.608290000000000219e-01 -4.898849999999999039e-01 4.356905000000000427e+01 1.593154999999999973e+03
4.100000000000000172e-02 5.609064999999999745e-01 7.591999999999998749e-02 4.377700000000000102e+01 1.593090000000000146e+03
4.200000000000000261e-02 5.611289999999999889e-01 9.214450000000000696e-01 4.473980000000000246e+01 1.593250000000000000e+03
4.300000000000000350e-02 5.614839999999999831e-01 2.030305000000000248e+00 4.640545000000000186e+01 1.593619999999999891e+03
4.400000000000000439e-02 5.619629999999999903e-01 3.387574999999999559e+00 4.871389999999999532e+01 1.594184999999999945e+03
4.499999999999999833e-02 5.625544999999999574e-01 4.979424999999999990e+00 5.160300000000000864e+01 1.594925000000000182e+03
4.599999999999999922e-02 5.632485000000000408e-01 6.790224999999999511e+00 5.501030000000000086e+01 1.595835000000000036e+03
4.700000000000000011e-02 5.640319999999999778e-01 8.799222000000000321e+00 5.887080000000000268e+01 1.596889999999999873e+03
4.800000000000000100e-02 5.648919999999999497e-01 1.097741800000000012e+01 6.311410000000000053e+01 1.598065000000000055e+03
4.900000000000000189e-02 5.658095000000000763e-01 1.328691000000000066e+01 6.766214999999999691e+01 1.599349999999999909e+03
5.000000000000000278e-02 5.667680000000000495e-01 1.568173499999999976e+01 7.242900000000000205e+01 1.600715000000000146e+03
5.100000000000000366e-02 5.677459999999999729e-01 1.811095500000000058e+01 7.732340000000000657e+01 1.602134999999999991e+03
5.200000000000000455e-02 5.687244999999999662e-01 2.052244999999999919e+01 8.225319999999999254e+01 1.603585000000000036e+03
5.300000000000000544e-02 5.696875000000000133e-01 2.286694999999999922e+01 8.713169999999999504e+01 1.605039999999999964e+03
5.399999999999999939e-02 5.706189999999999873e-01 2.510179999999999723e+01 9.188105000000000189e+01 1.606474999999999909e+03
5.500000000000000028e-02 5.715090000000000447e-01 2.719330000000000069e+01 9.644004999999999939e+01 1.607875000000000000e+03
5.600000000000000117e-02 5.723515000000000130e-01 2.911785000000000068e+01 1.007648000000000081e+02 1.609219999999999800e+03
5.700000000000000205e-02 5.731424999999999992e-01 3.086234999999999928e+01 1.048317999999999870e+02 1.610505000000000109e+03
5.800000000000000294e-02 5.738845000000000196e-01 3.242284999999999684e+01 1.086337499999999920e+02 1.611715000000000146e+03
5.900000000000000383e-02 5.745805000000000495e-01 3.380310000000000059e+01 1.121804999999999950e+02 1.612865000000000009e+03
6.000000000000000472e-02 5.752360000000000806e-01 3.501330000000000098e+01 1.154960000000000093e+02 1.613949999999999818e+03
6.099999999999999867e-02 5.758579999999999810e-01 3.606774999999999665e+01 1.186110000000000042e+02 1.614974999999999909e+03
6.199999999999999956e-02 5.764540000000000219e-01 3.698414999999999964e+01 1.215644999999999953e+02 1.615949999999999818e+03
6.300000000000000044e-02 5.770319999999999894e-01 3.778170000000000073e+01 1.243970000000000056e+02 1.616885000000000218e+03
6.400000000000000133e-02 5.775995000000000434e-01 3.848045000000000471e+01 1.271479999999999961e+02 1.617789999999999964e+03
6.500000000000000222e-02 5.781629999999999825e-01 3.909975000000000023e+01 1.298559999999999945e+02 1.618679999999999836e+03
6.600000000000000311e-02 5.787290000000000489e-01 3.965734999999999388e+01 1.325525000000000091e+02 1.619559999999999945e+03
6.700000000000000400e-02 5.792999999999999261e-01 4.016819999999999879e+01 1.352615000000000123e+02 1.620440000000000055e+03
6.800000000000000488e-02 5.798790000000000333e-01 4.064300000000000068e+01 1.379975000000000023e+02 1.621319999999999936e+03
6.900000000000000577e-02 5.804655000000000786e-01 4.108789999999999765e+01 1.407635000000000218e+02 1.622204999999999927e+03
7.000000000000000666e-02 5.810554999999999470e-01 4.150370000000000203e+01 1.435515000000000043e+02 1.623095000000000027e+03
7.100000000000000755e-02 5.816449999999999676e-01 4.188609999999999900e+01 1.463425000000000011e+02 1.623985000000000127e+03
7.200000000000000844e-02 5.822270000000000501e-01 4.222634999999999650e+01 1.491059999999999945e+02 1.624869999999999891e+03
7.300000000000000933e-02 5.827930000000000055e-01 4.251194999999999879e+01 1.518059999999999832e+02 1.625730000000000018e+03
7.399999999999999634e-02 5.833334999999999493e-01 4.272854999999999848e+01 1.543990000000000009e+02 1.626570000000000164e+03
7.499999999999999722e-02 5.838415000000000132e-01 4.286064999999999969e+01 1.568419999999999845e+02 1.627365000000000009e+03
7.599999999999999811e-02 5.843059999999999921e-01 4.289345000000000141e+01 1.590914999999999964e+02 1.628105000000000018e+03
7.699999999999999900e-02 5.847215000000000051e-01 4.281409999999999627e+01 1.611080000000000041e+02 1.628779999999999973e+03
7.799999999999999989e-02 5.850809999999999622e-01 4.261234999999999928e+01 1.628600000000000136e+02 1.629380000000000109e+03
7.900000000000000078e-02 5.853809999999999292e-01 4.228159999999999741e+01 1.643224999999999909e+02 1.629894999999999982e+03
8.000000000000000167e-02 5.856190000000000007e-01 4.181914999999999338e+01 1.654825000000000159e+02 1.630319999999999936e+03
8.100000000000000255e-02 5.857950000000000657e-01 4.122650000000000148e+01 1.663340000000000032e+02 1.630659999999999854e+03
8.200000000000000344e-02 5.859109999999999596e-01 4.050914999999999822e+01 1.668840000000000146e+02 1.630904999999999973e+03
8.300000000000000433e-02 5.859704999999999497e-01 3.967640000000000100e+01 1.671460000000000150e+02 1.631054999999999836e+03
8.400000000000000522e-02 5.859779999999999989e-01 3.874099999999999966e+01 1.671435000000000173e+02 1.631125000000000000e+03
8.500000000000000611e-02 5.859400000000000164e-01 3.771840000000000259e+01 1.669060000000000059e+02 1.631115000000000009e+03
8.600000000000000699e-02 5.858639999999999404e-01 3.662635000000000218e+01 1.664689999999999941e+02 1.631039999999999964e+03
8.700000000000000788e-02 5.857570000000000832e-01 3.548395000000000010e+01 1.658704999999999927e+02 1.630914999999999964e+03
8.800000000000000877e-02 5.856274999999999675e-01 3.431094999999999828e+01 1.651499999999999773e+02 1.630735000000000127e+03
8.899999999999999578e-02 5.854829999999999757e-01 3.312695000000000078e+01 1.643499999999999943e+02 1.630529999999999973e+03
8.999999999999999667e-02 5.853315000000000046e-01 3.195074999999999932e+01 1.635070000000000050e+02 1.630295000000000073e+03
9.099999999999999756e-02 5.851794999999999636e-01 3.079925000000000068e+01 1.626569999999999823e+02 1.630059999999999945e+03
9.199999999999999845e-02 5.850325000000000664e-01 2.968699999999999761e+01 1.618310000000000173e+02 1.629815000000000055e+03
9.299999999999999933e-02 5.848955000000000126e-01 2.862565000000000026e+01 1.610540000000000020e+02 1.629579999999999927e+03
9.400000000000000022e-02 5.847710000000000408e-01 2.762335000000000207e+01 1.603439999999999941e+02 1.629355000000000018e+03
9.500000000000000111e-02 5.846614999999999451e-01 2.668479999999999919e+01 1.597124999999999773e+02 1.629154999999999973e+03
9.600000000000000200e-02 5.845664999999999889e-01 2.581085000000000207e+01 1.591634999999999991e+02 1.628970000000000027e+03
9.700000000000000289e-02 5.844854999999999912e-01 2.499900000000000233e+01 1.586939999999999884e+02 1.628809999999999945e+03
9.800000000000000377e-02 5.844160000000000466e-01 2.424354999999999905e+01 1.582944999999999993e+02 1.628670000000000073e+03
9.900000000000000466e-02 5.843549999999999578e-01 2.353604999999999947e+01 1.579515000000000100e+02 1.628545000000000073e+03
1.000000000000000056e-01 5.842990000000000128e-01 2.286599999999999966e+01 1.576460000000000150e+02 1.628430000000000064e+03
1.010000000000000064e-01 5.842424999999999979e-01 2.222149999999999892e+01 1.573555000000000064e+02 1.628325000000000045e+03
1.020000000000000073e-01 5.841815000000000202e-01 2.158970000000000056e+01 1.570564999999999998e+02 1.628220000000000027e+03
1.030000000000000082e-01 5.841115000000000057e-01 2.095790000000000219e+01 1.567264999999999873e+02 1.628105000000000018e+03
1.040000000000000091e-01 5.840279999999999916e-01 2.031395000000000195e+01 1.563425000000000011e+02 1.627985000000000127e+03
1.050000000000000100e-01 5.839280000000000026e-01 1.964695000000000036e+01 1.558845000000000027e+02 1.627845000000000027e+03
1.059999999999999970e-01 5.838075000000000347e-01 1.894764999999999944e+01 1.553360000000000127e+02 1.627679999999999836e+03
1.069999999999999979e-01 5.836654999999999482e-01 1.820925000000000082e+01 1.546839999999999975e+02 1.627485000000000127e+03
1.079999999999999988e-01 5.835004999999999775e-01 1.742764999999999986e+01 1.539219999999999970e+02 1.627260000000000218e+03
1.089999999999999997e-01 5.833135000000000403e-01 1.660135000000000005e+01 1.530489999999999782e+02 1.627005000000000109e+03
1.100000000000000006e-01 5.831045000000000256e-01 1.573179999999999978e+01 1.520674999999999955e+02 1.626719999999999800e+03
1.110000000000000014e-01 5.828765000000000196e-01 1.482352000000000203e+01 1.509859999999999900e+02 1.626405000000000200e+03
1.120000000000000023e-01 5.826329999999999565e-01 1.388339500000000015e+01 1.498209999999999980e+02 1.626059999999999945e+03
1.130000000000000032e-01 5.823780000000000623e-01 1.292079500000000003e+01 1.485885000000000105e+02 1.625700000000000045e+03
1.140000000000000041e-01 5.821155000000000079e-01 1.194695499999999910e+01 1.473120000000000118e+02 1.625315000000000055e+03
1.150000000000000050e-01 5.818520000000000358e-01 1.097438499999999983e+01 1.460144999999999982e+02 1.624924999999999955e+03
1.160000000000000059e-01 5.815909999999999691e-01 1.001637999999999984e+01 1.447225000000000250e+02 1.624534999999999854e+03
1.170000000000000068e-01 5.813384999999999803e-01 9.086384999999999934e+00 1.434610000000000127e+02 1.624150000000000091e+03
1.180000000000000077e-01 5.810994999999999910e-01 8.197274999999999423e+00 1.422549999999999955e+02 1.623775000000000091e+03
1.190000000000000085e-01 5.808775000000000466e-01 7.360875000000000057e+00 1.411260000000000048e+02 1.623414999999999964e+03
1.200000000000000094e-01 5.806765000000000398e-01 6.587405000000000399e+00 1.400935000000000059e+02 1.623085000000000036e+03
1.209999999999999964e-01 5.804989999999999872e-01 5.884964999999999336e+00 1.391714999999999804e+02 1.622784999999999854e+03
1.219999999999999973e-01 5.803464999999999874e-01 5.259409999999999918e+00 1.383709999999999809e+02 1.622519999999999982e+03
1.229999999999999982e-01 5.802194999999999991e-01 4.713964999999999961e+00 1.376965000000000146e+02 1.622284999999999854e+03
1.239999999999999991e-01 5.801175000000000637e-01 4.249290000000000234e+00 1.371485000000000127e+02 1.622090000000000146e+03
1.250000000000000000e-01 5.800395000000000412e-01 3.863554999999999851e+00 1.367220000000000084e+02 1.621924999999999955e+03
1.260000000000000009e-01 5.799829999999999153e-01 3.552630000000000177e+00 1.364085000000000036e+02 1.621800000000000182e+03
1.270000000000000018e-01 5.799449999999999328e-01 3.310394999999999754e+00 1.361949999999999932e+02 1.621700000000000045e+03
1.280000000000000027e-01 5.799229999999999663e-01 3.129150000000000098e+00 1.360660000000000025e+02 1.621635000000000218e+03
1.290000000000000036e-01 5.799124999999999419e-01 2.999979999999999869e+00 1.360035000000000025e+02 1.621585000000000036e+03
1.300000000000000044e-01 5.799099999999999255e-01 2.913269999999999804e+00 1.359900000000000091e+02 1.621559999999999945e+03
1.310000000000000053e-01 5.799119999999999830e-01 2.859084999999999877e+00 1.360054999999999836e+02 1.621539999999999964e+03
1.320000000000000062e-01 5.799144999999999994e-01 2.827609999999999957e+00 1.360330000000000155e+02 1.621534999999999854e+03
1.330000000000000071e-01 5.799155000000000282e-01 2.809485000000000010e+00 1.360559999999999832e+02 1.621525000000000091e+03
1.340000000000000080e-01 5.799104999999999954e-01 2.796145000000000103e+00 1.360595000000000141e+02 1.621519999999999982e+03
1.350000000000000089e-01 5.798989999999999423e-01 2.780034999999999812e+00 1.360310000000000059e+02 1.621500000000000000e+03
1.360000000000000098e-01 5.798784999999999634e-01 2.754825000000000301e+00 1.359619999999999891e+02 1.621474999999999909e+03
1.370000000000000107e-01 5.798480000000000301e-01 2.715500000000000025e+00 1.358449999999999989e+02 1.621440000000000055e+03
1.380000000000000115e-01 5.798075000000000312e-01 2.658414999999999750e+00 1.356770000000000209e+02 1.621384999999999991e+03
1.390000000000000124e-01 5.797560000000000491e-01 2.581329999999999902e+00 1.354560000000000173e+02 1.621325000000000045e+03
1.400000000000000133e-01 5.796949999999999603e-01 2.483334999999999848e+00 1.351839999999999975e+02 1.621244999999999891e+03
1.410000000000000142e-01 5.796244999999999870e-01 2.364770000000000039e+00 1.348639999999999759e+02 1.621154999999999973e+03
1.420000000000000151e-01 5.795464999999999645e-01 2.227103000000000055e+00 1.345020000000000095e+02 1.621050000000000182e+03
1.430000000000000160e-01 5.794619999999999216e-01 2.072763000000000133e+00 1.341039999999999850e+02 1.620934999999999945e+03
1.440000000000000169e-01 5.793730000000000269e-01 1.904954500000000106e+00 1.336794999999999902e+02 1.620809999999999945e+03
1.450000000000000178e-01 5.792810000000000459e-01 1.727461000000000135e+00 1.332350000000000136e+02 1.620680000000000064e+03
1.459999999999999909e-01 5.791874999999999662e-01 1.544411600000000107e+00 1.327805000000000177e+02 1.620545000000000073e+03
1.469999999999999918e-01 5.790950000000000264e-01 1.360043000000000113e+00 1.323240000000000123e+02 1.620409999999999854e+03
1.479999999999999927e-01 5.790045000000000330e-01 1.178490000000000038e+00 1.318735000000000070e+02 1.620275000000000091e+03
1.489999999999999936e-01 5.789170000000000149e-01 1.003547999999999885e+00 1.314359999999999786e+02 1.620139999999999873e+03
1.499999999999999944e-01 5.788340000000000707e-01 8.384920000000001261e-01 1.310169999999999959e+02 1.620009999999999991e+03
1.509999999999999953e-01 5.787554999999999783e-01 6.859044999999999170e-01 1.306200000000000045e+02 1.619884999999999991e+03
1.519999999999999962e-01 5.786824999999999886e-01 5.475499999999999812e-01 1.302475000000000023e+02 1.619764999999999873e+03
1.529999999999999971e-01 5.786139999999999617e-01 4.243359999999999910e-01 1.299000000000000057e+02 1.619654999999999973e+03
1.539999999999999980e-01 5.785504999999999676e-01 3.162775000000000447e-01 1.295760000000000218e+02 1.619555000000000064e+03
1.549999999999999989e-01 5.784909999999999775e-01 2.225650000000000128e-01 1.292719999999999914e+02 1.619454999999999927e+03
1.559999999999999998e-01 5.784344999999999626e-01 1.416434999999999778e-01 1.289850000000000136e+02 1.619360000000000127e+03
1.570000000000000007e-01 5.783789999999999765e-01 7.138550000000004614e-02 1.287085000000000150e+02 1.619269999999999982e+03
1.580000000000000016e-01 5.783240000000000602e-01 9.248499999999992838e-03 1.284365000000000236e+02 1.619179999999999836e+03
1.590000000000000024e-01 5.782684999999999631e-01 -4.752000000000000668e-02 1.281619999999999777e+02 1.619090000000000146e+03
