# t [s], A [cm^2], U [cm/s], P [cPa], c [cm/s]
1.000000000000000021e-03 1.757575000000000109e-01 1.023194000000000048e-01 9.985595000000000709e+01 2.066739999999999782e+03
2.000000000000000042e-03 1.757289999999999963e-01 1.347328000000000081e+00 9.726255000000000450e+01 2.066480000000000018e+03
3.000000000000000062e-03 1.756280000000000063e-01 2.990976999999999997e+00 9.354900000000000659e+01 2.065635000000000218e+03
4.000000000000000083e-03 1.754764999999999797e-01 4.874769500000000200e+00 8.910309999999999775e+01 2.064390000000000327e+03
5.000000000000000104e-03 1.753020000000000134e-01 6.941164500000000182e+00 8.466004999999999825e+01 2.062969999999999800e+03
6.000000000000000125e-03 1.751249999999999751e-01 9.093170000000000641e+00 8.071414999999998940e+01 2.061545000000000073e+03
7.000000000000000146e-03 1.749560000000000004e-01 1.116342999999999996e+01 7.734055000000000746e+01 2.060199999999999818e+03
8.000000000000000167e-03 1.747974999999999945e-01 1.299885500000000071e+01 7.435049999999999670e+01 2.058965000000000146e+03
9.000000000000001055e-03 1.746520000000000017e-01 1.455745000000000111e+01 7.164860000000000184e+01 2.057849999999999909e+03
1.000000000000000194e-02 1.745234999999999981e-01 1.586599999999999966e+01 6.929595000000000482e+01 2.056885000000000218e+03
1.099999999999999936e-02 1.744145000000000001e-01 1.695025000000000048e+01 6.734929999999999950e+01 2.056065000000000055e+03
1.200000000000000025e-02 1.743254999999999943e-01 1.782779999999999987e+01 6.580610000000000070e+01 2.055404999999999745e+03
1.300000000000000114e-02 1.742539999999999922e-01 1.851115000000000066e+01 6.462375000000000114e+01 2.054885000000000218e+03
1.400000000000000203e-02 1.741979999999999917e-01 1.900159999999999982e+01 6.371380000000000621e+01 2.054484999999999673e+03
1.499999999999999944e-02 1.741524999999999879e-01 1.930330000000000013e+01 6.296540000000000248e+01 2.054164999999999964e+03
1.600000000000000033e-02 1.741159999999999930e-01 1.945640000000000214e+01 6.233630000000000138e+01 2.053914999999999964e+03
1.700000000000000122e-02 1.740895000000000081e-01 1.955214999999999748e+01 6.193120000000000402e+01 2.053739999999999782e+03
1.800000000000000211e-02 1.740800000000000125e-01 1.970690000000000097e+01 6.197780000000000200e+01 2.053679999999999836e+03
1.900000000000000300e-02 1.740919999999999968e-01 2.001154999999999973e+01 6.270250000000000057e+01 2.053779999999999745e+03
2.000000000000000042e-02 1.741294999999999926e-01 2.049034999999999940e+01 6.419075000000000841e+01 2.054065000000000055e+03
2.100000000000000130e-02 1.741904999999999981e-01 2.109195000000000064e+01 6.631614999999999327e+01 2.054525000000000091e+03
2.200000000000000219e-02 1.742670000000000052e-01 2.171219999999999928e+01 6.876865000000000805e+01 2.055105000000000018e+03
2.299999999999999961e-02 1.743480000000000030e-01 2.223460000000000036e+01 7.115579999999999927e+01 2.055729999999999563e+03
2.400000000000000050e-02 1.744229999999999947e-01 2.256904999999999717e+01 7.312645000000000550e+01 2.056314999999999600e+03
2.500000000000000139e-02 1.744835000000000136e-01 2.267559999999999931e+01 7.446565000000001078e+01 2.056795000000000073e+03
2.600000000000000228e-02 1.745259999999999867e-01 2.256850000000000023e+01 7.513535000000000252e+01 2.057139999999999873e+03
2.700000000000000316e-02 1.745500000000000107e-01 2.230194999999999794e+01 7.525345000000000084e+01 2.057345000000000255e+03
2.800000000000000058e-02 1.745609999999999939e-01 2.194575000000000031e+01 7.502870000000000061e+01 2.057440000000000055e+03
2.900000000000000147e-02 1.745630000000000237e-01 2.155995000000000061e+01 7.467865000000000464e+01 2.057470000000000255e+03
3.000000000000000236e-02 1.745615000000000083e-01 2.117729999999999890e+01 7.435859999999999559e+01 2.057460000000000036e+03
3.099999999999999978e-02 1.745590000000000197e-01 2.079695000000000249e+01 7.412335000000000207e+01 2.057444999999999709e+03
3.200000000000000067e-02 1.745555000000000023e-01 2.039114999999999966e+01 7.392725000000000080e+01 2.057420000000000073e+03
3.300000000000000155e-02 1.745495000000000241e-01 1.991929999999999978e+01 7.365815000000000623e+01 2.057375000000000000e+03
3.400000000000000244e-02 1.745369999999999977e-01 1.934624999999999773e+01 7.318999999999999773e+01 2.057284999999999854e+03
3.500000000000000333e-02 1.745165000000000188e-01 1.865840000000000032e+01 7.243799999999998818e+01 2.057135000000000218e+03
3.600000000000000422e-02 1.744855000000000156e-01 1.787310000000000088e+01 7.139900000000000091e+01 2.056909999999999854e+03
3.700000000000000511e-02 1.744479999999999920e-01 1.703869999999999862e+01 7.016640000000001010e+01 2.056635000000000218e+03
3.799999999999999906e-02 1.744065000000000198e-01 1.622569999999999979e+01 6.891495000000000459e+01 2.056319999999999709e+03
3.899999999999999994e-02 1.743680000000000230e-01 1.551084999999999958e+01 6.786034999999999684e+01 2.056025000000000091e+03
4.000000000000000083e-02 1.743385000000000074e-01 1.495949999999999847e+01 6.720629999999999882e+01 2.055800000000000182e+03
4.100000000000000172e-02 1.743239999999999790e-01 1.461139999999999972e+01 6.709459999999999980e+01 2.055675000000000182e+03
4.200000000000000261e-02 1.743270000000000097e-01 1.447310000000000052e+01 6.757285000000000252e+01 2.055680000000000291e+03
4.300000000000000350e-02 1.743484999999999896e-01 1.451794999999999902e+01 6.858514999999999873e+01 2.055824999999999818e+03
4.400000000000000439e-02 1.743844999999999978e-01 1.469334999999999880e+01 6.998669999999999902e+01 2.056090000000000146e+03
4.499999999999999833e-02 1.744310000000000027e-01 1.493205000000000027e+01 7.157535000000000025e+01 2.056430000000000291e+03
4.599999999999999922e-02 1.744815000000000116e-01 1.516410000000000124e+01 7.313089999999999691e+01 2.056815000000000055e+03
4.700000000000000011e-02 1.745289999999999897e-01 1.532795000000000130e+01 7.445199999999999818e+01 2.057175000000000182e+03
4.800000000000000100e-02 1.745685000000000153e-01 1.537739999999999974e+01 7.538479999999999848e+01 2.057480000000000018e+03
4.900000000000000189e-02 1.745960000000000012e-01 1.528494999999999848e+01 7.583785000000000309e+01 2.057690000000000055e+03
5.000000000000000278e-02 1.746074999999999988e-01 1.504115000000000002e+01 7.578354999999999109e+01 2.057789999999999964e+03
5.100000000000000366e-02 1.746030000000000082e-01 1.465085000000000015e+01 7.524819999999999709e+01 2.057765000000000327e+03
5.200000000000000455e-02 1.745835000000000026e-01 1.412825000000000131e+01 7.429484999999999673e+01 2.057625000000000000e+03
5.300000000000000544e-02 1.745504999999999973e-01 1.349174999999999969e+01 7.300424999999999898e+01 2.057380000000000109e+03
5.399999999999999939e-02 1.745054999999999801e-01 1.276020000000000110e+01 7.145820000000000505e+01 2.057054999999999836e+03
5.500000000000000028e-02 1.744519999999999960e-01 1.195023000000000124e+01 6.972814999999999941e+01 2.056649999999999636e+03
5.600000000000000117e-02 1.743910000000000182e-01 1.107636000000000109e+01 6.787055000000000859e+01 2.056190000000000055e+03
5.700000000000000205e-02 1.743250000000000077e-01 1.015146999999999977e+01 6.592790000000000816e+01 2.055684999999999945e+03
5.800000000000000294e-02 1.742549999999999932e-01 9.188900000000000290e+00 6.393404999999999916e+01 2.055154999999999745e+03
5.900000000000000383e-02 1.741825000000000179e-01 8.204519999999998703e+00 6.192159999999999798e+01 2.054599999999999909e+03
6.000000000000000472e-02 1.741084999999999994e-01 7.217914999999999637e+00 5.992865000000000464e+01 2.054039999999999964e+03
6.099999999999999867e-02 1.740359999999999963e-01 6.253534999999999400e+00 5.800334999999999752e+01 2.053484999999999673e+03
6.199999999999999956e-02 1.739654999999999951e-01 5.340124999999999567e+00 5.620595000000000141e+01 2.052945000000000164e+03
6.300000000000000044e-02 1.739005000000000134e-01 4.509634999999999394e+00 5.460699999999999932e+01 2.052440000000000055e+03
6.400000000000000133e-02 1.738429999999999975e-01 3.795284999999999798e+00 5.328310000000000457e+01 2.052000000000000000e+03
6.500000000000000222e-02 1.737960000000000060e-01 3.229165000000000063e+00 5.231080000000000041e+01 2.051630000000000109e+03
6.600000000000000311e-02 1.737615000000000132e-01 2.839935000000000098e+00 5.175985000000000014e+01 2.051355000000000018e+03
6.700000000000000400e-02 1.737429999999999808e-01 2.650689999999999991e+00 5.168684999999999974e+01 2.051199999999999818e+03
6.800000000000000488e-02 1.737414999999999932e-01 2.677430000000000199e+00 5.213025000000000375e+01 2.051170000000000073e+03
6.900000000000000577e-02 1.737584999999999824e-01 2.928149999999999586e+00 5.310745000000000005e+01 2.051280000000000200e+03
7.000000000000000666e-02 1.737940000000000040e-01 3.402599999999999625e+00 5.461404999999999887e+01 2.051534999999999854e+03
7.100000000000000755e-02 1.738484999999999892e-01 4.092649999999999899e+00 5.662454999999999927e+01 2.051934999999999945e+03
7.200000000000000844e-02 1.739209999999999923e-01 4.983179999999999943e+00 5.909555000000000291e+01 2.052465000000000146e+03
7.300000000000000933e-02 1.740094999999999836e-01 6.053330000000000766e+00 6.196914999999999907e+01 2.053130000000000109e+03
7.399999999999999634e-02 1.741125000000000034e-01 7.277980000000000338e+00 6.517770000000000152e+01 2.053900000000000091e+03
7.499999999999999722e-02 1.742279999999999940e-01 8.629419999999999646e+00 6.864875000000000682e+01 2.054769999999999982e+03
7.599999999999999811e-02 1.743534999999999946e-01 1.007882000000000033e+01 7.230960000000000321e+01 2.055720000000000255e+03
7.699999999999999900e-02 1.744860000000000022e-01 1.159801500000000019e+01 7.609174999999999045e+01 2.056725000000000364e+03
7.799999999999999989e-02 1.746234999999999871e-01 1.316051500000000019e+01 7.993455000000000155e+01 2.057779999999999745e+03
7.900000000000000078e-02 1.747644999999999893e-01 1.474289999999999878e+01 8.378749999999999432e+01 2.058855000000000018e+03
8.000000000000000167e-02 1.749065000000000203e-01 1.632495000000000118e+01 8.761189999999999145e+01 2.059944999999999709e+03
8.100000000000000255e-02 1.750484999999999958e-01 1.789049999999999940e+01 9.138105000000000189e+01 2.061039999999999964e+03
8.200000000000000344e-02 1.751889999999999836e-01 1.942689999999999984e+01 9.507929999999998927e+01 2.062125000000000000e+03
8.300000000000000433e-02 1.753284999999999982e-01 2.092480000000000118e+01 9.869995000000000118e+01 2.063199999999999818e+03
8.400000000000000522e-02 1.754660000000000108e-01 2.237744999999999962e+01 1.022427500000000009e+02 2.064264999999999873e+03
8.500000000000000611e-02 1.756004999999999927e-01 2.377989999999999782e+01 1.057116000000000042e+02 2.065315000000000055e+03
8.600000000000000699e-02 1.757340000000000013e-01 2.512845000000000084e+01 1.091105000000000018e+02 2.066349999999999909e+03
8.700000000000000788e-02 1.758645000000000069e-01 2.642000000000000171e+01 1.124445000000000050e+02 2.067369999999999891e+03
8.800000000000000877e-02 1.759930000000000105e-01 2.765135000000000076e+01 1.157135000000000105e+02 2.068369999999999891e+03
8.899999999999999578e-02 1.761190000000000255e-01 2.881960000000000122e+01 1.189155000000000086e+02 2.069355000000000018e+03
8.999999999999999667e-02 1.762429999999999830e-01 2.992139999999999844e+01 1.220440000000000111e+02 2.070324999999999818e+03
9.099999999999999756e-02 1.763640000000000208e-01 3.095345000000000013e+01 1.250925000000000011e+02 2.071274999999999636e+03
9.199999999999999845e-02 1.764820000000000000e-01 3.191255000000000308e+01 1.280494999999999948e+02 2.072204999999999927e+03
9.299999999999999933e-02 1.765970000000000040e-01 3.279565000000000197e+01 1.309039999999999964e+02 2.073105000000000018e+03
9.400000000000000022e-02 1.767080000000000040e-01 3.360000000000000142e+01 1.336440000000000055e+02 2.073975000000000364e+03
9.500000000000000111e-02 1.768144999999999856e-01 3.432304999999999495e+01 1.362595000000000027e+02 2.074815000000000055e+03
9.600000000000000200e-02 1.769165000000000043e-01 3.496274999999999977e+01 1.387384999999999877e+02 2.075625000000000000e+03
9.700000000000000289e-02 1.770140000000000047e-01 3.551689999999999969e+01 1.410709999999999980e+02 2.076385000000000218e+03
9.800000000000000377e-02 1.771054999999999990e-01 3.598360000000000269e+01 1.432484999999999786e+02 2.077114999999999782e+03
9.900000000000000466e-02 1.771909999999999874e-01 3.636084999999999923e+01 1.452595000000000027e+02 2.077789999999999964e+03
1.000000000000000056e-01 1.772704999999999975e-01 3.664659999999999940e+01 1.470955000000000155e+02 2.078420000000000073e+03
1.010000000000000064e-01 1.773434999999999873e-01 3.683894999999999698e+01 1.487454999999999927e+02 2.079000000000000000e+03
1.020000000000000073e-01 1.774089999999999834e-01 3.693595000000000539e+01 1.502005000000000052e+02 2.079525000000000091e+03
1.030000000000000082e-01 1.774675000000000002e-01 3.693625000000000114e+01 1.514524999999999864e+02 2.079989999999999782e+03
1.040000000000000091e-01 1.775180000000000091e-01 3.683924999999999983e+01 1.524934999999999832e+02 2.080399999999999636e+03
1.050000000000000100e-01 1.775609999999999966e-01 3.664525000000000432e+01 1.533199999999999932e+02 2.080739999999999782e+03
1.059999999999999970e-01 1.775954999999999895e-01 3.635580000000000211e+01 1.539314999999999998e+02 2.081025000000000091e+03
1.069999999999999979e-01 1.776225000000000165e-01 3.597415000000000163e+01 1.543294999999999959e+02 2.081244999999999891e+03
1.079999999999999988e-01 1.776409999999999934e-01 3.550485000000000468e+01 1.545229999999999961e+02 2.081400000000000091e+03
1.089999999999999997e-01 1.776520000000000044e-01 3.495409999999999684e+01 1.545225000000000080e+02 2.081500000000000000e+03
1.100000000000000006e-01 1.776559999999999806e-01 3.432965000000000089e+01 1.543435000000000059e+02 2.081539999999999964e+03
1.110000000000000014e-01 1.776535000000000197e-01 3.364030000000000342e+01 1.540054999999999836e+02 2.081525000000000091e+03
1.120000000000000023e-01 1.776445000000000107e-01 3.289594999999999914e+01 1.535285000000000082e+02 2.081460000000000036e+03
1.130000000000000032e-01 1.776305000000000245e-01 3.210679999999999978e+01 1.529370000000000118e+02 2.081359999999999673e+03
1.140000000000000041e-01 1.776115000000000055e-01 3.128354999999999819e+01 1.522524999999999977e+02 2.081220000000000255e+03
1.150000000000000050e-01 1.775895000000000112e-01 3.043665000000000020e+01 1.514989999999999952e+02 2.081045000000000073e+03
1.160000000000000059e-01 1.775645000000000140e-01 2.957600000000000051e+01 1.506970000000000027e+02 2.080850000000000364e+03
1.170000000000000068e-01 1.775370000000000004e-01 2.871079999999999899e+01 1.498665000000000020e+02 2.080639999999999873e+03
1.180000000000000077e-01 1.775079999999999991e-01 2.784924999999999784e+01 1.490235000000000127e+02 2.080420000000000073e+03
1.190000000000000085e-01 1.774789999999999979e-01 2.699835000000000207e+01 1.481809999999999832e+02 2.080184999999999945e+03
1.200000000000000094e-01 1.774490000000000234e-01 2.616385000000000005e+01 1.473499999999999943e+02 2.079954999999999927e+03
1.209999999999999964e-01 1.774189999999999934e-01 2.534994999999999976e+01 1.465364999999999895e+02 2.079720000000000255e+03
1.219999999999999973e-01 1.773895000000000055e-01 2.455930000000000035e+01 1.457445000000000164e+02 2.079484999999999673e+03
1.229999999999999982e-01 1.773600000000000176e-01 2.379329999999999856e+01 1.449730000000000132e+02 2.079260000000000218e+03
1.239999999999999991e-01 1.773315000000000030e-01 2.305180000000000007e+01 1.442200000000000273e+02 2.079029999999999745e+03
1.250000000000000000e-01 1.773025000000000018e-01 2.233334999999999937e+01 1.434789999999999850e+02 2.078804999999999836e+03
1.260000000000000009e-01 1.772745000000000015e-01 2.163540000000000063e+01 1.427419999999999902e+02 2.078579999999999927e+03
1.270000000000000018e-01 1.772460000000000147e-01 2.095445000000000135e+01 1.419985000000000070e+02 2.078355000000000018e+03
1.280000000000000027e-01 1.772175000000000000e-01 2.028634999999999877e+01 1.412384999999999877e+02 2.078125000000000000e+03
1.290000000000000036e-01 1.771874999999999978e-01 1.962640000000000029e+01 1.404495000000000005e+02 2.077894999999999982e+03
1.300000000000000044e-01 1.771564999999999945e-01 1.896990000000000265e+01 1.396204999999999927e+02 2.077649999999999636e+03
1.310000000000000053e-01 1.771245000000000180e-01 1.831210000000000093e+01 1.387404999999999973e+02 2.077394999999999982e+03
1.320000000000000062e-01 1.770899999999999974e-01 1.764880000000000138e+01 1.378000000000000114e+02 2.077125000000000000e+03
1.330000000000000071e-01 1.770534999999999748e-01 1.697629999999999839e+01 1.367925000000000182e+02 2.076840000000000146e+03
1.340000000000000080e-01 1.770145000000000191e-01 1.629200000000000159e+01 1.357125000000000057e+02 2.076534999999999854e+03
1.350000000000000089e-01 1.769729999999999914e-01 1.559420000000000073e+01 1.345589999999999975e+02 2.076210000000000036e+03
1.360000000000000098e-01 1.769284999999999886e-01 1.488235000000000063e+01 1.333315000000000055e+02 2.075864999999999782e+03
1.370000000000000107e-01 1.768814999999999971e-01 1.415745000000000076e+01 1.320369999999999777e+02 2.075494999999999891e+03
1.380000000000000115e-01 1.768319999999999892e-01 1.342164999999999964e+01 1.306809999999999832e+02 2.075114999999999782e+03
1.390000000000000124e-01 1.767809999999999937e-01 1.267835000000000001e+01 1.292755000000000223e+02 2.074715000000000146e+03
1.400000000000000133e-01 1.767274999999999818e-01 1.193212499999999920e+01 1.278345000000000056e+02 2.074300000000000182e+03
1.410000000000000142e-01 1.766734999999999833e-01 1.118851000000000084e+01 1.263730000000000047e+02 2.073880000000000109e+03
1.420000000000000151e-01 1.766185000000000116e-01 1.045380499999999913e+01 1.249079999999999870e+02 2.073444999999999709e+03
1.430000000000000160e-01 1.765635000000000121e-01 9.734690000000000509e+00 1.234579999999999984e+02 2.073014999999999873e+03
1.440000000000000169e-01 1.765085000000000126e-01 9.038009999999999877e+00 1.220409999999999968e+02 2.072590000000000146e+03
1.450000000000000178e-01 1.764550000000000007e-01 8.370435000000000514e+00 1.206735000000000042e+02 2.072170000000000073e+03
1.459999999999999909e-01 1.764029999999999765e-01 7.738205000000000666e+00 1.193719999999999999e+02 2.071769999999999982e+03
1.469999999999999918e-01 1.763540000000000108e-01 7.146795000000000009e+00 1.181490000000000009e+02 2.071380000000000109e+03
1.479999999999999927e-01 1.763075000000000059e-01 6.600835000000000008e+00 1.170155000000000030e+02 2.071015000000000327e+03
1.489999999999999936e-01 1.762639999999999763e-01 6.103889999999999816e+00 1.159795000000000016e+02 2.070675000000000182e+03
1.499999999999999944e-01 1.762239999999999918e-01 5.658405000000000129e+00 1.150459999999999923e+02 2.070355000000000018e+03
1.509999999999999953e-01 1.761874999999999969e-01 5.265660000000000451e+00 1.142164999999999964e+02 2.070069999999999709e+03
1.519999999999999962e-01 1.761550000000000060e-01 4.925869999999999749e+00 1.134909999999999997e+02 2.069809999999999945e+03
1.529999999999999971e-01 1.761260000000000048e-01 4.638195000000000512e+00 1.128665000000000020e+02 2.069579999999999927e+03
1.539999999999999980e-01 1.761004999999999932e-01 4.400884999999999714e+00 1.123365000000000009e+02 2.069380000000000109e+03
1.549999999999999989e-01 1.760789999999999855e-01 4.211420000000000385e+00 1.118965000000000032e+02 2.069204999999999927e+03
1.559999999999999998e-01 1.760599999999999943e-01 4.066629999999999967e+00 1.115370000000000061e+02 2.069055000000000291e+03
1.570000000000000007e-01 1.760450000000000070e-01 3.962849999999999540e+00 1.112505000000000024e+02 2.068930000000000291e+03
1.580000000000000016e-01 1.760319999999999940e-01 3.896040000000000170e+00 1.110275000000000034e+02 2.068824999999999818e+03
1.590000000000000024e-01 1.760214999999999974e-01 3.861909999999999954e+00 1.108584999999999923e+02 2.068739999999999782e+03
