# t [s], A [cm^2], U [cm/s], P [cPa], c [cm/s]
1.000000000000000021e-03 1.712529999999999886e-01 3.255204999999999904e-01 9.487850000000000250e+01 2.060045000000000073e+03
2.000000000000000042e-03 1.712104999999999877e-01 1.826407499999999740e+00 9.162719999999998777e+01 2.059670000000000073e+03
3.000000000000000062e-03 1.710909999999999931e-01 3.665173999999999932e+00 8.719329999999999359e+01 2.058670000000000073e+03
4.000000000000000083e-03 1.709259999999999946e-01 5.724236499999999950e+00 8.241474999999999795e+01 2.057305000000000291e+03
5.000000000000000104e-03 1.707474999999999965e-01 7.933044999999999902e+00 7.816700000000000159e+01 2.055845000000000255e+03
6.000000000000000125e-03 1.705754999999999910e-01 1.011634000000000100e+01 7.471829999999999927e+01 2.054449999999999818e+03
7.000000000000000146e-03 1.704149999999999832e-01 1.206357500000000016e+01 7.180214999999999748e+01 2.053164999999999964e+03
8.000000000000000167e-03 1.702664999999999873e-01 1.369711500000000015e+01 6.918225000000001046e+01 2.052009999999999764e+03
9.000000000000001055e-03 1.701360000000000094e-01 1.505700000000000038e+01 6.691214999999999691e+01 2.051000000000000000e+03
1.000000000000000194e-02 1.700254999999999961e-01 1.617845000000000155e+01 6.506860000000000355e+01 2.050154999999999745e+03
1.099999999999999936e-02 1.699350000000000027e-01 1.707539999999999836e+01 6.362430000000000518e+01 2.049474999999999909e+03
1.200000000000000025e-02 1.698629999999999862e-01 1.775969999999999871e+01 6.251125000000000398e+01 2.048940000000000055e+03
1.300000000000000114e-02 1.698054999999999981e-01 1.823550000000000182e+01 6.162895000000000323e+01 2.048519999999999982e+03
1.400000000000000203e-02 1.697579999999999922e-01 1.851460000000000150e+01 6.086664999999999992e+01 2.048184999999999945e+03
1.499999999999999944e-02 1.697204999999999964e-01 1.866055000000000064e+01 6.022785000000000366e+01 2.047914999999999964e+03
1.600000000000000033e-02 1.696940000000000115e-01 1.880245000000000033e+01 5.992624999999999602e+01 2.047739999999999782e+03
1.700000000000000122e-02 1.696894999999999931e-01 1.908624999999999972e+01 6.030865000000000009e+01 2.047720000000000255e+03
1.800000000000000211e-02 1.697124999999999884e-01 1.959830000000000183e+01 6.163729999999999620e+01 2.047904999999999973e+03
1.900000000000000300e-02 1.697670000000000012e-01 2.031625000000000014e+01 6.389440000000000452e+01 2.048320000000000164e+03
2.000000000000000042e-02 1.698454999999999826e-01 2.111589999999999989e+01 6.673435000000000628e+01 2.048920000000000073e+03
2.100000000000000130e-02 1.699355000000000171e-01 2.182290000000000063e+01 6.959735000000000582e+01 2.049619999999999891e+03
2.200000000000000219e-02 1.700214999999999921e-01 2.227955000000000041e+01 7.191120000000000800e+01 2.050289999999999964e+03
2.299999999999999961e-02 1.700885000000000036e-01 2.239690000000000225e+01 7.328249999999999886e+01 2.050829999999999927e+03
2.400000000000000050e-02 1.701290000000000024e-01 2.217565000000000097e+01 7.360460000000000491e+01 2.051170000000000073e+03
2.500000000000000139e-02 1.701425000000000021e-01 2.169154999999999944e+01 7.305144999999998845e+01 2.051295000000000073e+03
2.600000000000000228e-02 1.701340000000000074e-01 2.105770000000000053e+01 7.197450000000000614e+01 2.051250000000000000e+03
2.700000000000000316e-02 1.701124999999999998e-01 2.037969999999999970e+01 7.075540000000000873e+01 2.051095000000000255e+03
2.800000000000000058e-02 1.700865000000000016e-01 1.972245000000000203e+01 6.967420000000001323e+01 2.050905000000000200e+03
2.900000000000000147e-02 1.700614999999999766e-01 1.909850000000000136e+01 6.883865000000000123e+01 2.050710000000000036e+03
3.000000000000000236e-02 1.700395000000000101e-01 1.847690000000000055e+01 6.818774999999999409e+01 2.050534999999999854e+03
3.099999999999999978e-02 1.700170000000000015e-01 1.780729999999999791e+01 6.755469999999999686e+01 2.050364999999999782e+03
3.200000000000000067e-02 1.699915000000000176e-01 1.704785000000000039e+01 6.675874999999999204e+01 2.050170000000000073e+03
3.300000000000000155e-02 1.699589999999999990e-01 1.618800000000000239e+01 6.569169999999999732e+01 2.049925000000000182e+03
3.400000000000000244e-02 1.699189999999999867e-01 1.526035000000000075e+01 6.437330000000000041e+01 2.049625000000000000e+03
3.500000000000000333e-02 1.698729999999999962e-01 1.433634999999999948e+01 6.295949999999999136e+01 2.049275000000000091e+03
3.600000000000000422e-02 1.698280000000000067e-01 1.351019999999999932e+01 6.170329999999999870e+01 2.048930000000000291e+03
3.700000000000000511e-02 1.697914999999999841e-01 1.287359999999999971e+01 6.088240000000000407e+01 2.048644999999999982e+03
3.799999999999999906e-02 1.697704999999999909e-01 1.249184999999999945e+01 6.071779999999999688e+01 2.048474999999999909e+03
3.899999999999999994e-02 1.697710000000000052e-01 1.238644999999999996e+01 6.130934999999999491e+01 2.048460000000000036e+03
4.000000000000000083e-02 1.697934999999999861e-01 1.252980000000000160e+01 6.260549999999999926e+01 2.048614999999999782e+03
4.100000000000000172e-02 1.698355000000000004e-01 1.285135000000000005e+01 6.441285000000000593e+01 2.048925000000000182e+03
4.200000000000000261e-02 1.698919999999999875e-01 1.325260000000000105e+01 6.643784999999999741e+01 2.049344999999999800e+03
4.300000000000000350e-02 1.699525000000000063e-01 1.362575000000000003e+01 6.834714999999999918e+01 2.049804999999999836e+03
4.400000000000000439e-02 1.700079999999999925e-01 1.387154999999999916e+01 6.982859999999999445e+01 2.050235000000000127e+03
4.499999999999999833e-02 1.700494999999999923e-01 1.391270000000000095e+01 7.064070000000000960e+01 2.050559999999999945e+03
4.599999999999999922e-02 1.700710000000000000e-01 1.370149999999999935e+01 7.064150000000000773e+01 2.050734999999999673e+03
4.700000000000000011e-02 1.700674999999999826e-01 1.322070000000000078e+01 6.979449999999999932e+01 2.050715000000000146e+03
4.800000000000000100e-02 1.700375000000000081e-01 1.247964999999999947e+01 6.815579999999999927e+01 2.050500000000000000e+03
4.900000000000000189e-02 1.699829999999999952e-01 1.150755000000000017e+01 6.584799999999999898e+01 2.050090000000000146e+03
5.000000000000000278e-02 1.699070000000000025e-01 1.034539499999999990e+01 6.303010000000000446e+01 2.049514999999999873e+03
5.100000000000000366e-02 1.698139999999999927e-01 9.039744999999999919e+00 5.987049999999999272e+01 2.048805000000000291e+03
5.200000000000000455e-02 1.697084999999999844e-01 7.638020000000000032e+00 5.652769999999999584e+01 2.047994999999999891e+03
5.300000000000000544e-02 1.695955000000000101e-01 6.186485000000000234e+00 5.314059999999999917e+01 2.047130000000000109e+03
5.399999999999999939e-02 1.694789999999999908e-01 4.729790000000000383e+00 4.982750000000000057e+01 2.046235000000000127e+03
5.500000000000000028e-02 1.693640000000000145e-01 3.311910500000000201e+00 4.669079999999999586e+01 2.045344999999999800e+03
5.600000000000000117e-02 1.692529999999999868e-01 1.977095000000000269e+00 4.382379999999999853e+01 2.044490000000000236e+03
5.700000000000000205e-02 1.691509999999999958e-01 7.703349999999999920e-01 4.131640000000000157e+01 2.043699999999999818e+03
5.800000000000000294e-02 1.690605000000000024e-01 -2.630900000000000460e-01 3.925869999999999749e+01 2.042990000000000236e+03
5.900000000000000383e-02 1.689849999999999963e-01 -1.079064500000000093e+00 3.773969999999999914e+01 2.042404999999999973e+03
6.000000000000000472e-02 1.689285000000000092e-01 -1.636940499999999910e+00 3.684359999999999502e+01 2.041955000000000155e+03
6.099999999999999867e-02 1.688930000000000153e-01 -1.902235000000000120e+00 3.664285000000000281e+01 2.041664999999999964e+03
6.199999999999999956e-02 1.688819999999999766e-01 -1.849264999999999937e+00 3.719115000000000038e+01 2.041565000000000055e+03
6.300000000000000044e-02 1.688970000000000193e-01 -1.463303500000000090e+00 3.851695000000000135e+01 2.041654999999999973e+03
6.400000000000000133e-02 1.689395000000000202e-01 -7.418810000000000127e-01 4.061930000000000263e+01 2.041960000000000036e+03
6.500000000000000222e-02 1.690079999999999916e-01 3.048900000000001054e-01 4.346630000000000393e+01 2.042469999999999800e+03
6.600000000000000311e-02 1.691034999999999899e-01 1.654950000000000143e+00 4.699660000000000082e+01 2.043180000000000064e+03
6.700000000000000400e-02 1.692224999999999979e-01 3.275765499999999886e+00 5.112380000000000280e+01 2.044079999999999927e+03
6.800000000000000488e-02 1.693624999999999992e-01 5.126369999999999649e+00 5.574200000000000443e+01 2.045139999999999873e+03
6.900000000000000577e-02 1.695210000000000050e-01 7.159815000000000040e+00 6.073319999999999652e+01 2.046349999999999909e+03
7.000000000000000666e-02 1.696934999999999971e-01 9.325784999999999769e+00 6.597440000000000282e+01 2.047670000000000073e+03
7.100000000000000755e-02 1.698759999999999992e-01 1.157321999999999917e+01 7.134489999999999554e+01 2.049074999999999818e+03
7.200000000000000844e-02 1.700649999999999940e-01 1.385267999999999944e+01 7.673265000000000668e+01 2.050529999999999745e+03
7.300000000000000933e-02 1.702559999999999907e-01 1.611880000000000024e+01 8.203995000000000459e+01 2.052014999999999873e+03
7.399999999999999634e-02 1.704454999999999998e-01 1.833220000000000027e+01 8.718760000000000332e+01 2.053489999999999782e+03
7.499999999999999722e-02 1.706320000000000059e-01 2.046065000000000111e+01 9.211789999999999168e+01 2.054940000000000055e+03
7.599999999999999811e-02 1.708119999999999916e-01 2.248035000000000139e+01 9.679654999999999632e+01 2.056355000000000018e+03
7.699999999999999900e-02 1.709855000000000125e-01 2.437594999999999956e+01 1.012107499999999902e+02 2.057715000000000146e+03
7.799999999999999989e-02 1.711504999999999832e-01 2.614045000000000130e+01 1.053681500000000000e+02 2.059015000000000327e+03
7.900000000000000078e-02 1.713084999999999747e-01 2.777385000000000304e+01 1.092930000000000064e+02 2.060260000000000218e+03
8.000000000000000167e-02 1.714585000000000137e-01 2.928215000000000146e+01 1.130219999999999914e+02 2.061454999999999927e+03
8.100000000000000255e-02 1.716030000000000055e-01 3.067569999999999908e+01 1.165974999999999966e+02 2.062594999999999800e+03
8.200000000000000344e-02 1.717420000000000058e-01 3.196719999999999828e+01 1.200645000000000095e+02 2.063699999999999818e+03
8.300000000000000433e-02 1.718775000000000164e-01 3.317009999999999792e+01 1.234630000000000081e+02 2.064774999999999636e+03
8.400000000000000522e-02 1.720105000000000106e-01 3.429715000000000202e+01 1.268269999999999982e+02 2.065835000000000036e+03
8.500000000000000611e-02 1.721420000000000172e-01 3.535925000000000296e+01 1.301800000000000068e+02 2.066880000000000109e+03
8.600000000000000699e-02 1.722724999999999951e-01 3.636424999999999841e+01 1.335344999999999800e+02 2.067914999999999964e+03
8.700000000000000788e-02 1.724025000000000141e-01 3.731690000000000396e+01 1.368904999999999745e+02 2.068949999999999818e+03
8.800000000000000877e-02 1.725325000000000053e-01 3.821824999999999761e+01 1.402369999999999948e+02 2.069980000000000018e+03
8.899999999999999578e-02 1.726610000000000089e-01 3.906595000000000084e+01 1.435529999999999973e+02 2.071005000000000109e+03
8.999999999999999667e-02 1.727879999999999971e-01 3.985484999999999900e+01 1.468104999999999905e+02 2.072019999999999982e+03
9.099999999999999756e-02 1.729125000000000245e-01 4.057690000000000197e+01 1.499744999999999777e+02 2.073010000000000218e+03
9.199999999999999845e-02 1.730335000000000067e-01 4.122249999999999659e+01 1.530070000000000050e+02 2.073980000000000018e+03
9.299999999999999933e-02 1.731495000000000117e-01 4.178069999999999595e+01 1.558689999999999998e+02 2.074904999999999745e+03
9.400000000000000022e-02 1.732595000000000107e-01 4.224025000000000318e+01 1.585225000000000080e+02 2.075784999999999854e+03
9.500000000000000111e-02 1.733620000000000161e-01 4.258995000000000175e+01 1.609325000000000045e+02 2.076599999999999909e+03
9.600000000000000200e-02 1.734554999999999847e-01 4.281985000000000241e+01 1.630670000000000073e+02 2.077355000000000018e+03
9.700000000000000289e-02 1.735389999999999988e-01 4.292145000000000010e+01 1.649014999999999986e+02 2.078029999999999745e+03
9.800000000000000377e-02 1.736125000000000029e-01 4.288859999999999673e+01 1.664164999999999850e+02 2.078625000000000000e+03
9.900000000000000466e-02 1.736745000000000094e-01 4.271784999999999854e+01 1.676019999999999754e+02 2.079119999999999891e+03
1.000000000000000056e-01 1.737245000000000039e-01 4.240879999999999939e+01 1.684565000000000055e+02 2.079529999999999745e+03
1.010000000000000064e-01 1.737630000000000008e-01 4.196424999999999983e+01 1.689850000000000136e+02 2.079845000000000255e+03
1.020000000000000073e-01 1.737889999999999990e-01 4.139054999999999751e+01 1.692019999999999982e+02 2.080069999999999709e+03
1.030000000000000082e-01 1.738044999999999729e-01 4.069714999999999350e+01 1.691315000000000168e+02 2.080204999999999927e+03
1.040000000000000091e-01 1.738095000000000057e-01 3.989639999999999986e+01 1.688009999999999877e+02 2.080250000000000000e+03
1.050000000000000100e-01 1.738045000000000007e-01 3.900314999999999799e+01 1.682464999999999975e+02 2.080225000000000364e+03
1.059999999999999970e-01 1.737910000000000010e-01 3.803410000000000224e+01 1.675070000000000050e+02 2.080130000000000109e+03
1.069999999999999979e-01 1.737710000000000088e-01 3.700719999999999743e+01 1.666225000000000023e+02 2.079980000000000018e+03
1.079999999999999988e-01 1.737454999999999972e-01 3.594069999999999965e+01 1.656355000000000075e+02 2.079775000000000091e+03
1.089999999999999997e-01 1.737150000000000083e-01 3.485264999999999702e+01 1.645840000000000032e+02 2.079539999999999964e+03
1.100000000000000006e-01 1.736814999999999887e-01 3.376030000000000086e+01 1.635060000000000002e+02 2.079279999999999745e+03
1.110000000000000014e-01 1.736469999999999958e-01 3.267895000000000039e+01 1.624329999999999927e+02 2.079005000000000109e+03
1.120000000000000023e-01 1.736110000000000153e-01 3.162219999999999942e+01 1.613919999999999959e+02 2.078720000000000255e+03
1.130000000000000032e-01 1.735754999999999937e-01 3.060090000000000288e+01 1.604019999999999868e+02 2.078445000000000164e+03
1.140000000000000041e-01 1.735415000000000152e-01 2.962310000000000088e+01 1.594775000000000205e+02 2.078164999999999964e+03
1.150000000000000050e-01 1.735089999999999966e-01 2.869400000000000261e+01 1.586245000000000118e+02 2.077904999999999745e+03
1.160000000000000059e-01 1.734785000000000077e-01 2.781575000000000131e+01 1.578425000000000011e+02 2.077659999999999854e+03
1.170000000000000068e-01 1.734495000000000064e-01 2.698780000000000001e+01 1.571245000000000118e+02 2.077429999999999836e+03
1.180000000000000077e-01 1.734225000000000072e-01 2.620674999999999955e+01 1.564590000000000032e+02 2.077210000000000036e+03
1.190000000000000085e-01 1.733969999999999956e-01 2.546710000000000207e+01 1.558290000000000077e+02 2.077000000000000000e+03
1.200000000000000094e-01 1.733719999999999983e-01 2.476144999999999996e+01 1.552139999999999986e+02 2.076804999999999836e+03
1.209999999999999964e-01 1.733480000000000021e-01 2.408099999999999952e+01 1.545914999999999964e+02 2.076605000000000018e+03
1.219999999999999973e-01 1.733234999999999915e-01 2.341629999999999967e+01 1.539390000000000214e+02 2.076404999999999745e+03
1.229999999999999982e-01 1.732974999999999932e-01 2.275755000000000194e+01 1.532330000000000041e+02 2.076194999999999709e+03
1.239999999999999991e-01 1.732699999999999796e-01 2.209519999999999840e+01 1.524524999999999864e+02 2.075974999999999909e+03
1.250000000000000000e-01 1.732394999999999907e-01 2.142065000000000197e+01 1.515794999999999959e+02 2.075730000000000018e+03
1.260000000000000009e-01 1.732064999999999855e-01 2.072659999999999769e+01 1.505994999999999777e+02 2.075465000000000146e+03
1.270000000000000018e-01 1.731695000000000040e-01 2.000735000000000241e+01 1.495034999999999741e+02 2.075175000000000182e+03
1.280000000000000027e-01 1.731285000000000185e-01 1.925939999999999941e+01 1.482864999999999895e+02 2.074849999999999909e+03
1.290000000000000036e-01 1.730829999999999869e-01 1.848140000000000072e+01 1.469505000000000052e+02 2.074489999999999782e+03
1.300000000000000044e-01 1.730339999999999934e-01 1.767430000000000234e+01 1.455024999999999977e+02 2.074105000000000018e+03
1.310000000000000053e-01 1.729809999999999959e-01 1.684140000000000015e+01 1.439555000000000007e+02 2.073685000000000400e+03
1.320000000000000062e-01 1.729245000000000088e-01 1.598815000000000097e+01 1.423265000000000100e+02 2.073234999999999673e+03
1.330000000000000071e-01 1.728649999999999909e-01 1.512190000000000012e+01 1.406374999999999886e+02 2.072769999999999982e+03
1.340000000000000080e-01 1.728034999999999988e-01 1.425159999999999982e+01 1.389134999999999991e+02 2.072284999999999854e+03
1.350000000000000089e-01 1.727405000000000190e-01 1.338724999999999987e+01 1.371809999999999832e+02 2.071784999999999854e+03
1.360000000000000098e-01 1.726774999999999838e-01 1.253945500000000024e+01 1.354675000000000011e+02 2.071289999999999964e+03
1.370000000000000107e-01 1.726145000000000040e-01 1.171911499999999862e+01 1.338009999999999877e+02 2.070789999999999964e+03
1.380000000000000115e-01 1.725534999999999985e-01 1.093666499999999964e+01 1.322065000000000055e+02 2.070304999999999836e+03
1.390000000000000124e-01 1.724944999999999951e-01 1.020177999999999940e+01 1.307065000000000055e+02 2.069835000000000036e+03
1.400000000000000133e-01 1.724384999999999946e-01 9.522839999999998639e+00 1.293209999999999980e+02 2.069394999999999982e+03
1.410000000000000142e-01 1.723864999999999981e-01 8.906655000000000655e+00 1.280645000000000095e+02 2.068974999999999909e+03
1.420000000000000151e-01 1.723385000000000056e-01 8.358340000000000103e+00 1.269465000000000146e+02 2.068595000000000255e+03
1.430000000000000160e-01 1.722954999999999903e-01 7.880995000000000417e+00 1.259735000000000014e+02 2.068250000000000000e+03
1.440000000000000169e-01 1.722569999999999935e-01 7.475749999999999673e+00 1.251450000000000102e+02 2.067940000000000055e+03
1.450000000000000178e-01 1.722239999999999882e-01 7.141825000000000756e+00 1.244579999999999984e+02 2.067675000000000182e+03
1.459999999999999909e-01 1.721955000000000013e-01 6.876649999999999707e+00 1.239029999999999916e+02 2.067444999999999709e+03
1.469999999999999918e-01 1.721725000000000061e-01 6.676029999999999909e+00 1.234699999999999989e+02 2.067250000000000000e+03
1.479999999999999927e-01 1.721524999999999861e-01 6.534424999999999706e+00 1.231444999999999936e+02 2.067095000000000255e+03
1.489999999999999936e-01 1.721374999999999988e-01 6.445199999999999818e+00 1.229110000000000014e+02 2.066970000000000255e+03
1.499999999999999944e-01 1.721254999999999868e-01 6.400920000000000165e+00 1.227524999999999977e+02 2.066869999999999891e+03
1.509999999999999953e-01 1.721165000000000056e-01 6.393654999999999866e+00 1.226500000000000057e+02 2.066789999999999964e+03
1.519999999999999962e-01 1.721094999999999986e-01 6.415255000000000152e+00 1.225875000000000057e+02 2.066730000000000018e+03
1.529999999999999971e-01 1.721044999999999936e-01 6.457625000000000171e+00 1.225474999999999994e+02 2.066684999999999945e+03
1.539999999999999980e-01 1.720999999999999752e-01 6.512950000000000017e+00 1.225150000000000006e+02 2.066650000000000091e+03
1.549999999999999989e-01 1.720959999999999990e-01 6.573965000000000281e+00 1.224749999999999943e+02 2.066619999999999891e+03
1.559999999999999998e-01 1.720924999999999816e-01 6.634090000000000487e+00 1.224159999999999968e+02 2.066590000000000146e+03
1.570000000000000007e-01 1.720889999999999920e-01 6.687619999999999898e+00 1.223284999999999911e+02 2.066554999999999836e+03
1.580000000000000016e-01 1.720840000000000147e-01 6.729839999999999378e+00 1.222044999999999959e+02 2.066515000000000327e+03
1.590000000000000024e-01 1.720785000000000231e-01 6.757094999999999629e+00 1.220389999999999873e+02 2.066475000000000364e+03
