# t [s], A [cm^2], U [cm/s], P [cPa], c [cm/s]
1.000000000000000021e-03 7.233255000000000656e-01 6.158500000000004249e-03 1.047205000000000013e+02 1.807690000000000055e+03
2.000000000000000042e-03 7.233205000000000329e-01 9.806099999999999886e-03 1.046939999999999884e+02 1.807684999999999945e+03
3.000000000000000062e-03 7.234020000000001005e-01 1.586754999999999693e-01 1.048780000000000001e+02 1.807724999999999909e+03
4.000000000000000083e-03 7.234260000000000135e-01 2.271980000000000111e-01 1.049585000000000008e+02 1.807744999999999891e+03
5.000000000000000104e-03 7.233475000000000321e-01 1.219540000000000068e-01 1.047210000000000036e+02 1.807699999999999818e+03
6.000000000000000125e-03 7.232665000000000344e-01 -1.101499999999977497e-03 1.043435000000000059e+02 1.807619999999999891e+03
7.000000000000000146e-03 7.231600000000000250e-01 -1.834750000000000547e-01 1.038100000000000023e+02 1.807509999999999991e+03
8.000000000000000167e-03 7.229674999999999851e-01 -5.416699999999999848e-01 1.029389999999999930e+02 1.807329999999999927e+03
9.000000000000001055e-03 7.226835000000000342e-01 -1.080494999999999983e+00 1.016595499999999959e+02 1.807065000000000055e+03
1.000000000000000194e-02 7.222809999999999508e-01 -1.831334999999999935e+00 9.986529999999999063e+01 1.806684999999999945e+03
1.099999999999999936e-02 7.217480000000000562e-01 -2.792679999999999829e+00 9.748345000000000482e+01 1.806180000000000064e+03
1.200000000000000025e-02 7.211525000000000851e-01 -3.806419999999999693e+00 9.467884999999999707e+01 1.805559999999999945e+03
1.300000000000000114e-02 7.206144999999999357e-01 -4.613315499999999680e+00 9.183664999999999168e+01 1.804914999999999964e+03
1.400000000000000203e-02 7.202144999999999797e-01 -5.014029999999999987e+00 8.933609999999998763e+01 1.804305000000000064e+03
1.499999999999999944e-02 7.199584999999999457e-01 -4.964175000000000004e+00 8.735925000000000296e+01 1.803785000000000082e+03
1.600000000000000033e-02 7.197860000000000369e-01 -4.561749999999999972e+00 8.584730000000000416e+01 1.803355000000000018e+03
1.700000000000000122e-02 7.196145000000000458e-01 -3.974174999999999791e+00 8.457495000000000118e+01 1.802970000000000027e+03
1.800000000000000211e-02 7.193780000000000729e-01 -3.355140000000000011e+00 8.327785000000000082e+01 1.802585000000000036e+03
1.900000000000000300e-02 7.190525000000000944e-01 -2.784590000000000121e+00 8.177254999999999541e+01 1.802170000000000073e+03
2.000000000000000042e-02 7.186574999999999491e-01 -2.253359999999999808e+00 8.001939999999999031e+01 1.801704999999999927e+03
2.100000000000000130e-02 7.182379999999999320e-01 -1.695325000000000193e+00 7.810544999999999050e+01 1.801204999999999927e+03
2.200000000000000219e-02 7.178360000000000296e-01 -1.044399999999999995e+00 7.616694999999999993e+01 1.800700000000000045e+03
2.299999999999999961e-02 7.174665000000000070e-01 -2.836750000000001215e-01 7.430049999999999955e+01 1.800199999999999818e+03
2.400000000000000050e-02 7.171119999999999717e-01 5.337450000000001360e-01 7.250469999999999970e+01 1.799704999999999927e+03
2.500000000000000139e-02 7.167295000000000194e-01 1.294480000000000075e+00 7.066859999999999786e+01 1.799215000000000146e+03
2.600000000000000228e-02 7.162634999999999419e-01 1.856559999999999988e+00 6.860389999999999588e+01 1.798674999999999955e+03
2.700000000000000316e-02 7.156679999999999708e-01 2.091519999999999602e+00 6.610654999999999859e+01 1.798049999999999955e+03
2.800000000000000058e-02 7.149214999999999876e-01 1.923980000000000246e+00 6.302870000000000061e+01 1.797309999999999945e+03
2.900000000000000147e-02 7.140360000000000040e-01 1.355765000000000331e+00 5.933664999999999878e+01 1.796444999999999936e+03
3.000000000000000236e-02 7.130559999999999121e-01 4.654199999999999449e-01 5.513344999999999629e+01 1.795465000000000146e+03
3.099999999999999978e-02 7.120480000000000143e-01 -6.151499999999998636e-01 5.063949999999999818e+01 1.794410000000000082e+03
3.200000000000000067e-02 7.110815000000000330e-01 -1.735479999999999912e+00 4.614265000000000327e+01 1.793344999999999800e+03
3.300000000000000155e-02 7.102170000000000982e-01 -2.758805000000000174e+00 4.193930000000000291e+01 1.792320000000000164e+03
3.400000000000000244e-02 7.094975000000000032e-01 -3.582804999999999573e+00 3.828480000000000416e+01 1.791400000000000091e+03
3.500000000000000333e-02 7.089479999999999116e-01 -4.146239999999999704e+00 3.536280000000000001e+01 1.790630000000000109e+03
3.600000000000000422e-02 7.085755000000000248e-01 -4.425158500000000217e+00 3.327564999999999884e+01 1.790039999999999964e+03
3.700000000000000511e-02 7.083744999999999070e-01 -4.421564999999999301e+00 3.205230000000000246e+01 1.789650000000000091e+03
3.799999999999999906e-02 7.083334999999999493e-01 -4.150230000000000530e+00 3.166750000000000043e+01 1.789454999999999927e+03
3.899999999999999994e-02 7.084394999999999998e-01 -3.627404999999999990e+00 3.206535000000000224e+01 1.789450000000000045e+03
4.000000000000000083e-02 7.086814999999999642e-01 -2.864514500000000297e+00 3.317949999999999733e+01 1.789619999999999891e+03
4.100000000000000172e-02 7.090505000000000280e-01 -1.867735000000000145e+00 3.494490000000000407e+01 1.789960000000000036e+03
4.200000000000000261e-02 7.095374999999999321e-01 -6.423950000000000493e-01 3.730064999999999742e+01 1.790444999999999936e+03
4.300000000000000350e-02 7.101315000000000266e-01 8.006449999999998290e-01 4.018509999999999849e+01 1.791070000000000164e+03
4.400000000000000439e-02 7.108179999999999499e-01 2.439599999999999547e+00 4.352915000000000134e+01 1.791809999999999945e+03
4.499999999999999833e-02 7.115785000000000027e-01 4.239309999999999690e+00 4.725029999999999575e+01 1.792659999999999854e+03
4.599999999999999922e-02 7.123904999999999266e-01 6.152440000000000353e+00 5.125150000000000006e+01 1.793579999999999927e+03
4.700000000000000011e-02 7.132300000000000306e-01 8.123476000000000141e+00 5.542444999999999311e+01 1.794559999999999945e+03
4.800000000000000100e-02 7.140720000000000400e-01 1.009481500000000054e+01 5.965730000000000643e+01 1.795570000000000164e+03
4.900000000000000189e-02 7.148959999999999759e-01 1.201248999999999967e+01 6.384364999999999668e+01 1.796585000000000036e+03
5.000000000000000278e-02 7.156850000000000156e-01 1.383123499999999950e+01 6.789185000000000514e+01 1.797585000000000036e+03
5.100000000000000366e-02 7.164264999999999661e-01 1.551769000000000176e+01 7.173224999999999341e+01 1.798539999999999964e+03
5.200000000000000455e-02 7.171170000000000044e-01 1.705140000000000100e+01 7.532115000000000293e+01 1.799460000000000036e+03
5.300000000000000544e-02 7.177549999999999208e-01 1.842454999999999998e+01 7.864130000000000109e+01 1.800315000000000055e+03
5.399999999999999939e-02 7.183454999999999702e-01 1.963984999999999914e+01 8.169984999999999786e+01 1.801119999999999891e+03
5.500000000000000028e-02 7.188950000000000617e-01 2.070814999999999984e+01 8.452394999999999925e+01 1.801869999999999891e+03
5.600000000000000117e-02 7.194145000000000678e-01 2.164639999999999986e+01 8.715534999999999854e+01 1.802569999999999936e+03
5.700000000000000205e-02 7.199134999999999840e-01 2.247494999999999976e+01 8.964475000000000193e+01 1.803240000000000009e+03
5.800000000000000294e-02 7.204019999999999868e-01 2.321574999999999989e+01 9.204630000000000223e+01 1.803884999999999991e+03
5.900000000000000383e-02 7.208915000000000184e-01 2.389029999999999987e+01 9.441245000000000687e+01 1.804514999999999873e+03
6.000000000000000472e-02 7.213890000000000580e-01 2.451805000000000234e+01 9.678894999999999982e+01 1.805139999999999873e+03
6.099999999999999867e-02 7.219005000000000560e-01 2.511449999999999960e+01 9.921014999999999873e+01 1.805775000000000091e+03
6.199999999999999956e-02 7.224285000000000290e-01 2.569020000000000081e+01 1.016983000000000033e+02 1.806420000000000073e+03
6.300000000000000044e-02 7.229715000000001002e-01 2.624960000000000093e+01 1.042579999999999956e+02 1.807074999999999818e+03
6.400000000000000133e-02 7.235270000000000312e-01 2.679094999999999871e+01 1.068780000000000001e+02 1.807750000000000000e+03
6.500000000000000222e-02 7.240869999999999251e-01 2.730689999999999884e+01 1.095324999999999989e+02 1.808430000000000064e+03
6.600000000000000311e-02 7.246430000000000371e-01 2.778545000000000087e+01 1.121820000000000022e+02 1.809115000000000009e+03
6.700000000000000400e-02 7.251849999999999685e-01 2.821144999999999925e+01 1.147789999999999964e+02 1.809785000000000082e+03
6.800000000000000488e-02 7.257005000000000816e-01 2.856830000000000069e+01 1.172709999999999866e+02 1.810430000000000064e+03
6.900000000000000577e-02 7.261809999999999654e-01 2.883964999999999890e+01 1.196055000000000064e+02 1.811045000000000073e+03
7.000000000000000666e-02 7.266159999999999286e-01 2.901105000000000089e+01 1.217340000000000089e+02 1.811610000000000127e+03
7.100000000000000755e-02 7.269980000000000331e-01 2.907034999999999769e+01 1.236144999999999925e+02 1.812119999999999891e+03
7.200000000000000844e-02 7.273220000000000240e-01 2.900934999999999775e+01 1.252154999999999916e+02 1.812570000000000164e+03
7.300000000000000933e-02 7.275840000000000085e-01 2.882385000000000019e+01 1.265155000000000030e+02 1.812944999999999936e+03
7.399999999999999634e-02 7.277835000000000276e-01 2.851389999999999958e+01 1.275065000000000026e+02 1.813244999999999891e+03
7.499999999999999722e-02 7.279214999999999991e-01 2.808389999999999986e+01 1.281895000000000095e+02 1.813465000000000146e+03
7.599999999999999811e-02 7.280014999999999681e-01 2.754220000000000113e+01 1.285790000000000077e+02 1.813619999999999891e+03
7.699999999999999900e-02 7.280294999999999961e-01 2.690109999999999957e+01 1.286974999999999909e+02 1.813700000000000045e+03
7.799999999999999989e-02 7.280109999999999637e-01 2.617584999999999695e+01 1.285774999999999864e+02 1.813720000000000027e+03
7.900000000000000078e-02 7.279539999999999900e-01 2.538414999999999822e+01 1.282560000000000002e+02 1.813684999999999945e+03
8.000000000000000167e-02 7.278685000000000294e-01 2.454534999999999911e+01 1.277750000000000057e+02 1.813599999999999909e+03
8.100000000000000255e-02 7.277609999999999912e-01 2.367950000000000088e+01 1.271784999999999854e+02 1.813490000000000009e+03
8.200000000000000344e-02 7.276420000000000110e-01 2.280635000000000190e+01 1.265104999999999933e+02 1.813345000000000027e+03
8.300000000000000433e-02 7.275179999999999980e-01 2.194409999999999883e+01 1.258119999999999976e+02 1.813190000000000055e+03
8.400000000000000522e-02 7.273970000000000713e-01 2.110900000000000176e+01 1.251195000000000164e+02 1.813029999999999973e+03
8.500000000000000611e-02 7.272840000000000416e-01 2.031409999999999982e+01 1.244639999999999986e+02 1.812875000000000000e+03
8.600000000000000699e-02 7.271825000000000649e-01 1.956879999999999953e+01 1.238679999999999950e+02 1.812724999999999909e+03
8.700000000000000788e-02 7.270955000000000057e-01 1.887859999999999872e+01 1.233454999999999870e+02 1.812585000000000036e+03
8.800000000000000877e-02 7.270229999999999748e-01 1.824500000000000099e+01 1.229025000000000034e+02 1.812465000000000146e+03
8.899999999999999578e-02 7.269634999999999847e-01 1.766550000000000153e+01 1.225370000000000061e+02 1.812365000000000009e+03
8.999999999999999667e-02 7.269149999999999778e-01 1.713429999999999964e+01 1.222379999999999995e+02 1.812275000000000091e+03
9.099999999999999756e-02 7.268729999999999913e-01 1.664274999999999949e+01 1.219895000000000067e+02 1.812200000000000045e+03
9.199999999999999845e-02 7.268339999999999801e-01 1.617989999999999995e+01 1.217694999999999936e+02 1.812134999999999991e+03
9.299999999999999933e-02 7.267924999999999525e-01 1.573370000000000068e+01 1.215545000000000044e+02 1.812070000000000164e+03
9.400000000000000022e-02 7.267430000000000279e-01 1.529129999999999967e+01 1.213185000000000002e+02 1.812005000000000109e+03
9.500000000000000111e-02 7.266805000000000625e-01 1.484035000000000082e+01 1.210360000000000014e+02 1.811924999999999955e+03
9.600000000000000200e-02 7.266019999999999701e-01 1.436950000000000038e+01 1.206850000000000023e+02 1.811835000000000036e+03
9.700000000000000289e-02 7.265034999999999688e-01 1.386925000000000097e+01 1.202464999999999975e+02 1.811724999999999909e+03
9.800000000000000377e-02 7.263830000000000009e-01 1.333271500000000032e+01 1.197069999999999936e+02 1.811599999999999909e+03
9.900000000000000466e-02 7.262399999999999967e-01 1.275594500000000053e+01 1.190585000000000093e+02 1.811444999999999936e+03
1.000000000000000056e-01 7.260739999999999972e-01 1.213820499999999925e+01 1.183004999999999995e+02 1.811264999999999873e+03
1.010000000000000064e-01 7.258884999999999366e-01 1.148228500000000096e+01 1.174420000000000073e+02 1.811059999999999945e+03
1.020000000000000073e-01 7.256869999999999710e-01 1.079421499999999945e+01 1.164939999999999998e+02 1.810835000000000036e+03
1.030000000000000082e-01 7.254724999999999646e-01 1.008291999999999966e+01 1.154795000000000016e+02 1.810589999999999918e+03
1.040000000000000091e-01 7.252529999999999255e-01 9.359930000000000305e+00 1.144219999999999970e+02 1.810335000000000036e+03
1.050000000000000100e-01 7.250324999999999687e-01 8.638469999999999871e+00 1.133504999999999967e+02 1.810075000000000045e+03
1.059999999999999970e-01 7.248189999999999911e-01 7.932735000000000092e+00 1.122980000000000018e+02 1.809815000000000055e+03
1.069999999999999979e-01 7.246185000000000542e-01 7.257220000000000226e+00 1.112950000000000017e+02 1.809559999999999945e+03
1.079999999999999988e-01 7.244365000000000387e-01 6.625719999999999388e+00 1.103719999999999999e+02 1.809324999999999818e+03
1.089999999999999997e-01 7.242785000000000473e-01 6.050509999999999167e+00 1.095544999999999902e+02 1.809110000000000127e+03
1.100000000000000006e-01 7.241480000000000139e-01 5.541819999999999524e+00 1.088665000000000020e+02 1.808924999999999955e+03
1.110000000000000014e-01 7.240485000000000948e-01 5.107184999999999420e+00 1.083224999999999909e+02 1.808769999999999982e+03
1.120000000000000023e-01 7.239804999999999158e-01 4.751165000000000305e+00 1.079329999999999927e+02 1.808650000000000091e+03
1.130000000000000032e-01 7.239444999999999908e-01 4.475175000000000125e+00 1.077005000000000052e+02 1.808575000000000045e+03
1.140000000000000041e-01 7.239379999999999704e-01 4.277544999999999931e+00 1.076195000000000022e+02 1.808525000000000091e+03
1.150000000000000050e-01 7.239594999999999780e-01 4.153785000000000061e+00 1.076804999999999950e+02 1.808514999999999873e+03
1.160000000000000059e-01 7.240044999999999398e-01 4.096924999999999706e+00 1.078659999999999997e+02 1.808539999999999964e+03
1.170000000000000068e-01 7.240685000000000038e-01 4.098085000000000200e+00 1.081574999999999989e+02 1.808594999999999800e+03
1.180000000000000077e-01 7.241480000000000139e-01 4.146995000000000431e+00 1.085310000000000059e+02 1.808664999999999964e+03
1.190000000000000085e-01 7.242364999999999498e-01 4.232574999999999754e+00 1.089629999999999939e+02 1.808755000000000109e+03
1.200000000000000094e-01 7.243299999999999184e-01 4.343524999999999636e+00 1.094284999999999997e+02 1.808855000000000018e+03
1.209999999999999964e-01 7.244239999999999569e-01 4.468825000000000713e+00 1.099039999999999964e+02 1.808965000000000146e+03
1.219999999999999973e-01 7.245139999999999914e-01 4.598174999999999457e+00 1.103694999999999879e+02 1.809070000000000164e+03
1.229999999999999982e-01 7.245969999999999356e-01 4.722374999999999545e+00 1.108054999999999950e+02 1.809174999999999955e+03
1.239999999999999991e-01 7.246710000000000651e-01 4.833569999999999922e+00 1.111980000000000075e+02 1.809269999999999982e+03
1.250000000000000000e-01 7.247325000000000017e-01 4.925464999999999982e+00 1.115354999999999990e+02 1.809355000000000018e+03
1.260000000000000009e-01 7.247824999999999962e-01 4.993409999999999904e+00 1.118110000000000070e+02 1.809429999999999836e+03
1.270000000000000018e-01 7.248185000000000322e-01 5.034449999999999648e+00 1.120210000000000008e+02 1.809485000000000127e+03
1.280000000000000027e-01 7.248414999999999164e-01 5.047285000000000466e+00 1.121659999999999968e+02 1.809534999999999854e+03
1.290000000000000036e-01 7.248535000000000394e-01 5.032144999999999868e+00 1.122475000000000023e+02 1.809559999999999945e+03
1.300000000000000044e-01 7.248544999999999572e-01 4.990655000000000285e+00 1.122725000000000080e+02 1.809575000000000045e+03
1.310000000000000053e-01 7.248464999999999492e-01 4.925615000000000521e+00 1.122485000000000070e+02 1.809579999999999927e+03
1.320000000000000062e-01 7.248319999999999208e-01 4.840779999999999639e+00 1.121844999999999999e+02 1.809574999999999818e+03
1.330000000000000071e-01 7.248120000000000118e-01 4.740529999999999688e+00 1.120909999999999940e+02 1.809559999999999945e+03
1.340000000000000080e-01 7.247900000000000453e-01 4.629624999999999879e+00 1.119779999999999944e+02 1.809539999999999964e+03
1.350000000000000089e-01 7.247664999999999802e-01 4.512850000000000250e+00 1.118559999999999945e+02 1.809509999999999991e+03
1.360000000000000098e-01 7.247444999999999027e-01 4.394764999999999588e+00 1.117334999999999923e+02 1.809484999999999900e+03
1.370000000000000107e-01 7.247240000000000348e-01 4.279429999999999623e+00 1.116184999999999974e+02 1.809460000000000036e+03
1.380000000000000115e-01 7.247075000000000600e-01 4.170194999999999652e+00 1.115165000000000077e+02 1.809434999999999945e+03
1.390000000000000124e-01 7.246939999999999493e-01 4.069544999999999746e+00 1.114304999999999950e+02 1.809414999999999964e+03
1.400000000000000133e-01 7.246844999999999537e-01 3.979009999999999714e+00 1.113624999999999972e+02 1.809400000000000091e+03
1.410000000000000142e-01 7.246785000000000032e-01 3.899185000000000123e+00 1.113125000000000000e+02 1.809384999999999991e+03
1.420000000000000151e-01 7.246749999999999581e-01 3.829790000000000028e+00 1.112764999999999986e+02 1.809375000000000000e+03
1.430000000000000160e-01 7.246734999999999705e-01 3.769779999999999909e+00 1.112510000000000048e+02 1.809365000000000009e+03
1.440000000000000169e-01 7.246714999999999129e-01 3.717540000000000511e+00 1.112300000000000040e+02 1.809360000000000127e+03
1.450000000000000178e-01 7.246695000000000775e-01 3.671095000000000219e+00 1.112085000000000008e+02 1.809355000000000018e+03
1.459999999999999909e-01 7.246650000000000036e-01 3.628314999999999735e+00 1.111800000000000068e+02 1.809345000000000027e+03
1.469999999999999918e-01 7.246574999999999545e-01 3.587124999999999897e+00 1.111380000000000052e+02 1.809335000000000036e+03
1.479999999999999927e-01 7.246449999999999836e-01 3.545665000000000067e+00 1.110780000000000030e+02 1.809320000000000164e+03
1.489999999999999936e-01 7.246289999999999676e-01 3.502469999999999750e+00 1.109975000000000023e+02 1.809300000000000182e+03
1.499999999999999944e-01 7.246070000000000011e-01 3.456529999999999880e+00 1.108924999999999983e+02 1.809275000000000091e+03
1.509999999999999953e-01 7.245800000000000018e-01 3.407340000000000035e+00 1.107630000000000052e+02 1.809244999999999891e+03
1.519999999999999962e-01 7.245485000000000397e-01 3.354960000000000164e+00 1.106109999999999900e+02 1.809204999999999927e+03
1.529999999999999971e-01 7.245124999999998927e-01 3.299920000000000186e+00 1.104375000000000000e+02 1.809164999999999964e+03
1.539999999999999980e-01 7.244729999999999226e-01 3.243244999999999933e+00 1.102469999999999999e+02 1.809119999999999891e+03
1.549999999999999989e-01 7.244314999999998950e-01 3.186365000000000336e+00 1.100434999999999945e+02 1.809070000000000164e+03
1.559999999999999998e-01 7.243884999999999907e-01 3.131050000000000111e+00 1.098335000000000008e+02 1.809019999999999982e+03
1.570000000000000007e-01 7.243460000000000454e-01 3.079310000000000436e+00 1.096219999999999999e+02 1.808965000000000146e+03
1.580000000000000016e-01 7.243045000000000178e-01 3.033360000000000056e+00 1.094170000000000016e+02 1.808914999999999964e+03
1.590000000000000024e-01 7.242660000000000764e-01 2.995474999999999888e+00 1.092235000000000014e+02 1.808865000000000009e+03
