# t [s], A [cm^2], U [cm/s], P [cPa], c [cm/s]
1.000000000000000021e-03 6.477144999999999708e-01 4.455049999999995125e-03 9.318075000000000330e+01 1.612195000000000164e+03
2.000000000000000042e-03 6.477049999999999752e-01 -9.599649999999996901e-04 9.315405000000001223e+01 1.612190000000000055e+03
3.000000000000000062e-03 6.477630000000000887e-01 1.002965999999999858e-01 9.326014999999999588e+01 1.612214999999999918e+03
4.000000000000000083e-03 6.478105000000000668e-01 1.950709299999999757e-01 9.337604999999999222e+01 1.612240000000000009e+03
5.000000000000000104e-03 6.477800000000000225e-01 1.643908450000000077e-01 9.330995000000000061e+01 1.612230000000000018e+03
6.000000000000000125e-03 6.477114999999999956e-01 6.240750000000000464e-02 9.308310000000000173e+01 1.612184999999999945e+03
7.000000000000000146e-03 6.476494999999999891e-01 -3.687099999999998712e-02 9.279214999999999236e+01 1.612125000000000000e+03
8.000000000000000167e-03 6.475515000000000576e-01 -2.113750000000000906e-01 9.235910000000001219e+01 1.612030000000000200e+03
9.000000000000001055e-03 6.473880000000000745e-01 -5.152400000000000313e-01 9.169235000000000468e+01 1.611894999999999982e+03
1.000000000000000194e-02 6.471560000000000645e-01 -9.499049999999999994e-01 9.075030000000000996e+01 1.611694999999999936e+03
1.099999999999999936e-02 6.468380000000000241e-01 -1.534484999999999877e+00 8.947079999999999700e+01 1.611425000000000182e+03
1.200000000000000025e-02 6.464244999999999575e-01 -2.269499999999999851e+00 8.780854999999999677e+01 1.611065000000000055e+03
1.300000000000000114e-02 6.459485000000000365e-01 -3.073125000000000107e+00 8.582759999999998968e+01 1.610630000000000109e+03
1.400000000000000203e-02 6.454785000000000661e-01 -3.793730000000000491e+00 8.371389999999999532e+01 1.610150000000000091e+03
1.499999999999999944e-02 6.450784999999999991e-01 -4.284101999999999855e+00 8.169274999999998954e+01 1.609670000000000073e+03
1.600000000000000033e-02 6.447764999999999747e-01 -4.465391999999999584e+00 7.993004999999999427e+01 1.609219999999999800e+03
1.700000000000000122e-02 6.445600000000000218e-01 -4.344660000000000188e+00 7.848034999999998718e+01 1.608829999999999927e+03
1.800000000000000211e-02 6.443889999999999896e-01 -3.994240000000000013e+00 7.729040000000000532e+01 1.608485000000000127e+03
1.900000000000000300e-02 6.442160000000000108e-01 -3.514040000000000052e+00 7.623875000000001023e+01 1.608164999999999964e+03
2.000000000000000042e-02 6.440034999999999510e-01 -2.993482000000000198e+00 7.518989999999999441e+01 1.607849999999999909e+03
2.100000000000000130e-02 6.437364999999999338e-01 -2.484299500000000105e+00 7.404380000000000450e+01 1.607519999999999982e+03
2.200000000000000219e-02 6.434204999999999508e-01 -1.992074999999999818e+00 7.276439999999999486e+01 1.607164999999999964e+03
2.299999999999999961e-02 6.430799999999999850e-01 -1.488259999999999916e+00 7.137794999999999845e+01 1.606795000000000073e+03
2.400000000000000050e-02 6.427380000000000315e-01 -9.354299999999999837e-01 6.994604999999999961e+01 1.606404999999999973e+03
2.500000000000000139e-02 6.424125000000000529e-01 -3.132049999999999557e-01 6.852769999999999584e+01 1.606019999999999982e+03
2.600000000000000228e-02 6.421004999999999630e-01 3.654550000000003074e-01 6.714775000000000205e+01 1.605639999999999873e+03
2.700000000000000316e-02 6.417874999999999552e-01 1.051479999999999970e+00 6.578074999999999761e+01 1.605255000000000109e+03
2.800000000000000058e-02 6.414429999999999854e-01 1.668950000000000156e+00 6.435360000000000014e+01 1.604860000000000127e+03
2.900000000000000147e-02 6.410359999999999392e-01 2.132274999999999920e+00 6.276315000000000310e+01 1.604440000000000055e+03
3.000000000000000236e-02 6.405399999999999983e-01 2.366464999999999819e+00 6.090380000000000393e+01 1.603965000000000146e+03
3.099999999999999978e-02 6.399434999999999985e-01 2.325520000000000476e+00 5.869764999999999588e+01 1.603414999999999964e+03
3.200000000000000067e-02 6.392500000000000959e-01 2.004025000000000389e+00 5.611959999999999837e+01 1.602789999999999964e+03
3.300000000000000155e-02 6.384825000000000639e-01 1.438660000000000050e+00 5.320929999999999893e+01 1.602094999999999800e+03
3.400000000000000244e-02 6.376779999999999671e-01 6.995049999999993773e-01 5.006775000000000375e+01 1.601340000000000146e+03
3.500000000000000333e-02 6.368780000000000552e-01 -1.249650000000004368e-01 4.683970000000000056e+01 1.600559999999999945e+03
3.600000000000000422e-02 6.361255000000000104e-01 -9.446700000000003428e-01 4.369010000000000105e+01 1.599784999999999854e+03
3.700000000000000511e-02 6.354539999999999633e-01 -1.681044999999999678e+00 4.077899999999999636e+01 1.599054999999999836e+03
3.799999999999999906e-02 6.348890000000000366e-01 -2.275065000000000115e+00 3.824275000000000091e+01 1.598400000000000091e+03
3.899999999999999994e-02 6.344460000000000655e-01 -2.689259999999999984e+00 3.618244999999999578e+01 1.597845000000000027e+03
4.000000000000000083e-02 6.341315000000000701e-01 -2.905549999999999855e+00 3.466015000000000157e+01 1.597404999999999973e+03
4.100000000000000172e-02 6.339445000000000219e-01 -2.920034499999999866e+00 3.370199999999999818e+01 1.597095000000000027e+03
4.200000000000000261e-02 6.338805000000000689e-01 -2.736879999999999757e+00 3.330584999999999951e+01 1.596914999999999964e+03
4.300000000000000350e-02 6.339325000000000099e-01 -2.362880000000000091e+00 3.345080000000000098e+01 1.596875000000000000e+03
4.400000000000000439e-02 6.340949999999999642e-01 -1.803907500000000219e+00 3.410614999999999952e+01 1.596960000000000036e+03
4.499999999999999833e-02 6.343615000000000226e-01 -1.063755000000000006e+00 3.523785000000000167e+01 1.597164999999999964e+03
4.599999999999999922e-02 6.347260000000000124e-01 -1.452749999999998209e-01 3.681145000000000067e+01 1.597480000000000018e+03
4.700000000000000011e-02 6.351824999999999832e-01 9.470800000000001440e-01 3.879225000000000279e+01 1.597904999999999973e+03
4.800000000000000100e-02 6.357235000000001079e-01 2.204369999999999497e+00 4.114260000000000161e+01 1.598425000000000182e+03
4.900000000000000189e-02 6.363380000000000702e-01 3.610990000000000144e+00 4.381985000000000241e+01 1.599030000000000200e+03
5.000000000000000278e-02 6.370139999999999691e-01 5.143884999999999152e+00 4.677394999999999925e+01 1.599715000000000146e+03
5.100000000000000366e-02 6.377369999999999983e-01 6.773030000000000328e+00 4.994745000000000346e+01 1.600460000000000036e+03
5.200000000000000455e-02 6.384910000000000307e-01 8.463414999999999466e+00 5.327685000000000315e+01 1.601255000000000109e+03
5.300000000000000544e-02 6.392590000000000217e-01 1.017785999999999902e+01 5.669534999999999769e+01 1.602079999999999927e+03
5.399999999999999939e-02 6.400270000000000126e-01 1.187979499999999966e+01 6.013745000000000118e+01 1.602924999999999955e+03
5.500000000000000028e-02 6.407810000000000450e-01 1.353603499999999826e+01 6.354250000000000398e+01 1.603769999999999982e+03
5.600000000000000117e-02 6.415104999999999835e-01 1.511877499999999941e+01 6.685864999999999725e+01 1.604605000000000018e+03
5.700000000000000205e-02 6.422090000000000298e-01 1.660710000000000264e+01 7.004585000000000150e+01 1.605424999999999955e+03
5.800000000000000294e-02 6.428715000000000401e-01 1.798695000000000022e+01 7.307699999999999818e+01 1.606210000000000036e+03
5.900000000000000383e-02 6.434965000000000268e-01 1.925134999999999863e+01 7.593850000000000477e+01 1.606960000000000036e+03
6.000000000000000472e-02 6.440870000000000761e-01 2.039920000000000044e+01 7.862924999999999898e+01 1.607674999999999955e+03
6.099999999999999867e-02 6.446445000000000647e-01 2.143444999999999823e+01 8.115869999999999607e+01 1.608360000000000127e+03
6.199999999999999956e-02 6.451759999999999717e-01 2.236495000000000033e+01 8.354499999999998749e+01 1.609005000000000109e+03
6.300000000000000044e-02 6.456859999999999822e-01 2.320110000000000028e+01 8.581229999999999336e+01 1.609625000000000000e+03
6.400000000000000133e-02 6.461810000000000054e-01 2.395510000000000161e+01 8.798815000000000452e+01 1.610215000000000146e+03
6.500000000000000222e-02 6.466674999999999507e-01 2.463954999999999984e+01 9.010099999999999909e+01 1.610789999999999964e+03
6.600000000000000311e-02 6.471504999999999619e-01 2.526684999999999803e+01 9.217815000000000225e+01 1.611355000000000018e+03
6.700000000000000400e-02 6.476355000000000306e-01 2.584810000000000230e+01 9.424324999999998909e+01 1.611914999999999964e+03
6.800000000000000488e-02 6.481250000000000622e-01 2.639254999999999995e+01 9.631470000000000198e+01 1.612469999999999800e+03
6.900000000000000577e-02 6.486205000000000442e-01 2.690650000000000119e+01 9.840395000000000891e+01 1.613029999999999973e+03
7.000000000000000666e-02 6.491229999999998945e-01 2.739334999999999809e+01 1.005152999999999963e+02 1.613589999999999918e+03
7.100000000000000755e-02 6.496294999999999709e-01 2.785325000000000273e+01 1.026442000000000121e+02 1.614160000000000082e+03
7.200000000000000844e-02 6.501365000000000061e-01 2.828330000000000055e+01 1.047800000000000011e+02 1.614724999999999909e+03
7.300000000000000933e-02 6.506395000000000373e-01 2.867784999999999940e+01 1.069029999999999916e+02 1.615285000000000082e+03
7.399999999999999634e-02 6.511320000000000441e-01 2.902945000000000064e+01 1.089909999999999997e+02 1.615845000000000027e+03
7.499999999999999722e-02 6.516079999999999650e-01 2.932925000000000182e+01 1.110159999999999911e+02 1.616385000000000218e+03
7.599999999999999811e-02 6.520610000000000017e-01 2.956804999999999950e+01 1.129499999999999886e+02 1.616909999999999854e+03
7.699999999999999900e-02 6.524839999999999529e-01 2.973685000000000045e+01 1.147650000000000006e+02 1.617405000000000200e+03
7.799999999999999989e-02 6.528724999999999667e-01 2.982775000000000176e+01 1.164339999999999975e+02 1.617865000000000009e+03
7.900000000000000078e-02 6.532200000000000228e-01 2.983420000000000272e+01 1.179350000000000023e+02 1.618280000000000200e+03
8.000000000000000167e-02 6.535245000000000637e-01 2.975155000000000172e+01 1.192489999999999952e+02 1.618654999999999973e+03
8.100000000000000255e-02 6.537835000000000729e-01 2.957730000000000103e+01 1.203640000000000043e+02 1.618985000000000127e+03
8.200000000000000344e-02 6.539945000000000341e-01 2.931105000000000160e+01 1.212719999999999914e+02 1.619259999999999991e+03
8.300000000000000433e-02 6.541585000000000871e-01 2.895474999999999710e+01 1.219714999999999918e+02 1.619485000000000127e+03
8.400000000000000522e-02 6.542764999999999276e-01 2.851275000000000048e+01 1.224669999999999987e+02 1.619654999999999973e+03
8.500000000000000611e-02 6.543514999999999748e-01 2.799129999999999896e+01 1.227665000000000077e+02 1.619775000000000091e+03
8.600000000000000699e-02 6.543859999999999122e-01 2.739874999999999972e+01 1.228849999999999909e+02 1.619849999999999909e+03
8.700000000000000788e-02 6.543844999999999246e-01 2.674504999999999910e+01 1.228409999999999940e+02 1.619875000000000000e+03
8.800000000000000877e-02 6.543529999999999625e-01 2.604155000000000086e+01 1.226550000000000011e+02 1.619869999999999891e+03
8.899999999999999578e-02 6.542955000000000298e-01 2.530060000000000286e+01 1.223515000000000157e+02 1.619825000000000045e+03
8.999999999999999667e-02 6.542185000000000361e-01 2.453500000000000014e+01 1.219549999999999983e+02 1.619750000000000000e+03
9.099999999999999756e-02 6.541274999999999729e-01 2.375750000000000028e+01 1.214915000000000020e+02 1.619660000000000082e+03
9.199999999999999845e-02 6.540280000000000538e-01 2.298055000000000092e+01 1.209865000000000066e+02 1.619549999999999955e+03
9.299999999999999933e-02 6.539249999999999785e-01 2.221549999999999869e+01 1.204625000000000057e+02 1.619434999999999945e+03
9.400000000000000022e-02 6.538230000000000430e-01 2.147220000000000084e+01 1.199410000000000025e+02 1.619309999999999945e+03
9.500000000000000111e-02 6.537254999999999594e-01 2.075890000000000057e+01 1.194399999999999977e+02 1.619184999999999945e+03
9.600000000000000200e-02 6.536355000000000359e-01 2.008140000000000214e+01 1.189729999999999990e+02 1.619069999999999936e+03
9.700000000000000289e-02 6.535549999999999971e-01 1.944354999999999833e+01 1.185494999999999948e+02 1.618954999999999927e+03
9.800000000000000377e-02 6.534839999999999538e-01 1.884660000000000224e+01 1.181749999999999972e+02 1.618855000000000018e+03
9.900000000000000466e-02 6.534219999999999473e-01 1.828969999999999985e+01 1.178495000000000061e+02 1.618759999999999991e+03
1.000000000000000056e-01 6.533685000000000187e-01 1.776995000000000147e+01 1.175705000000000098e+02 1.618684999999999945e+03
1.010000000000000064e-01 6.533219999999999583e-01 1.728249999999999886e+01 1.173305000000000007e+02 1.618615000000000009e+03
1.020000000000000073e-01 6.532795000000000130e-01 1.682130000000000081e+01 1.171189999999999998e+02 1.618545000000000073e+03
1.030000000000000082e-01 6.532379999999999853e-01 1.637904999999999944e+01 1.169244999999999948e+02 1.618485000000000127e+03
1.040000000000000091e-01 6.531955000000000400e-01 1.594794999999999874e+01 1.167340000000000089e+02 1.618430000000000064e+03
1.050000000000000100e-01 6.531474999999999920e-01 1.551999999999999957e+01 1.165330000000000013e+02 1.618369999999999891e+03
1.059999999999999970e-01 6.530920000000000059e-01 1.508739999999999881e+01 1.163084999999999951e+02 1.618309999999999945e+03
1.069999999999999979e-01 6.530264999999999542e-01 1.464299999999999891e+01 1.160469999999999970e+02 1.618235000000000127e+03
1.079999999999999988e-01 6.529484999999999317e-01 1.418079999999999963e+01 1.157390000000000043e+02 1.618160000000000082e+03
1.089999999999999997e-01 6.528570000000000206e-01 1.369575000000000031e+01 1.153754999999999882e+02 1.618070000000000164e+03
1.100000000000000006e-01 6.527509999999999701e-01 1.318469499999999961e+01 1.149514999999999958e+02 1.617960000000000036e+03
1.110000000000000014e-01 6.526300000000000434e-01 1.264604500000000087e+01 1.144655000000000058e+02 1.617845000000000027e+03
1.120000000000000023e-01 6.524955000000000060e-01 1.208005999999999958e+01 1.139184999999999945e+02 1.617710000000000036e+03
1.130000000000000032e-01 6.523490000000000677e-01 1.148891000000000062e+01 1.133144999999999953e+02 1.617559999999999945e+03
1.140000000000000041e-01 6.521919999999999940e-01 1.087639000000000067e+01 1.126630000000000109e+02 1.617400000000000091e+03
1.150000000000000050e-01 6.520280000000000520e-01 1.024796500000000066e+01 1.119745000000000061e+02 1.617230000000000018e+03
1.160000000000000059e-01 6.518599999999999950e-01 9.610369999999999635e+00 1.112615000000000123e+02 1.617054999999999836e+03
1.170000000000000068e-01 6.516919999999999380e-01 8.971569999999999823e+00 1.105409999999999968e+02 1.616880000000000109e+03
1.180000000000000077e-01 6.515279999999999960e-01 8.339964999999999407e+00 1.098284999999999911e+02 1.616695000000000164e+03
1.190000000000000085e-01 6.513709999999999223e-01 7.724434999999999718e+00 1.091415000000000077e+02 1.616519999999999982e+03
1.200000000000000094e-01 6.512264999999999304e-01 7.133725000000000094e+00 1.084964999999999975e+02 1.616355000000000018e+03
1.209999999999999964e-01 6.510960000000000081e-01 6.576035000000000075e+00 1.079089999999999918e+02 1.616195000000000164e+03
1.219999999999999973e-01 6.509834999999999372e-01 6.058769999999999989e+00 1.073930000000000007e+02 1.616059999999999945e+03
1.229999999999999982e-01 6.508909999999999973e-01 5.588135000000000296e+00 1.069599999999999937e+02 1.615940000000000055e+03
1.239999999999999991e-01 6.508210000000000939e-01 5.168910000000000338e+00 1.066179999999999950e+02 1.615835000000000036e+03
1.250000000000000000e-01 6.507724999999999760e-01 4.804244999999999877e+00 1.063735000000000070e+02 1.615759999999999991e+03
1.260000000000000009e-01 6.507475000000000342e-01 4.495594999999999786e+00 1.062274999999999920e+02 1.615710000000000036e+03
1.270000000000000018e-01 6.507439999999999891e-01 4.242689999999999628e+00 1.061784999999999997e+02 1.615680000000000064e+03
1.280000000000000027e-01 6.507604999999999640e-01 4.043625000000000469e+00 1.062214999999999918e+02 1.615670000000000073e+03
1.290000000000000036e-01 6.507965000000000000e-01 3.895025000000000404e+00 1.063499999999999943e+02 1.615684999999999945e+03
1.300000000000000044e-01 6.508475000000000232e-01 3.792229999999999990e+00 1.065519999999999925e+02 1.615719999999999800e+03
1.310000000000000053e-01 6.509125000000000050e-01 3.729585000000000150e+00 1.068165000000000049e+02 1.615769999999999982e+03
1.320000000000000062e-01 6.509869999999999823e-01 3.700725000000000264e+00 1.071315000000000026e+02 1.615840000000000146e+03
1.330000000000000071e-01 6.510674999999999102e-01 3.698855000000000004e+00 1.074809999999999945e+02 1.615909999999999854e+03
1.340000000000000080e-01 6.511530000000000928e-01 3.717044999999999710e+00 1.078514999999999873e+02 1.615994999999999891e+03
1.350000000000000089e-01 6.512379999999999836e-01 3.748510000000000009e+00 1.082305000000000064e+02 1.616085000000000036e+03
1.360000000000000098e-01 6.513214999999999977e-01 3.786810000000000009e+00 1.086050000000000040e+02 1.616170000000000073e+03
1.370000000000000107e-01 6.514010000000000078e-01 3.826099999999999834e+00 1.089639999999999986e+02 1.616259999999999991e+03
1.380000000000000115e-01 6.514739999999999975e-01 3.861209999999999809e+00 1.092985000000000042e+02 1.616345000000000027e+03
1.390000000000000124e-01 6.515394999999999381e-01 3.887800000000000367e+00 1.096009999999999991e+02 1.616420000000000073e+03
1.400000000000000133e-01 6.515965000000000229e-01 3.902429999999999843e+00 1.098659999999999997e+02 1.616490000000000009e+03
1.410000000000000142e-01 6.516435000000000421e-01 3.902574999999999683e+00 1.100895000000000010e+02 1.616555000000000064e+03
1.420000000000000151e-01 6.516819999999999835e-01 3.886585000000000178e+00 1.102704999999999984e+02 1.616599999999999909e+03
1.430000000000000160e-01 6.517105000000000814e-01 3.853715000000000224e+00 1.104089999999999918e+02 1.616640000000000100e+03
1.440000000000000169e-01 6.517304999999999904e-01 3.804009999999999891e+00 1.105065000000000026e+02 1.616675000000000182e+03
1.450000000000000178e-01 6.517420000000000435e-01 3.738215000000000288e+00 1.105655000000000001e+02 1.616694999999999936e+03
1.459999999999999909e-01 6.517465000000000064e-01 3.657709999999999795e+00 1.105910000000000082e+02 1.616710000000000036e+03
1.469999999999999918e-01 6.517455000000000886e-01 3.564350000000000129e+00 1.105859999999999985e+02 1.616715000000000146e+03
1.479999999999999927e-01 6.517390000000000683e-01 3.460345000000000226e+00 1.105564999999999998e+02 1.616715000000000146e+03
1.489999999999999936e-01 6.517284999999999329e-01 3.348145000000000149e+00 1.105070000000000050e+02 1.616704999999999927e+03
1.499999999999999944e-01 6.517155000000000031e-01 3.230255000000000098e+00 1.104435000000000002e+02 1.616700000000000045e+03
1.509999999999999953e-01 6.517014999999999336e-01 3.109164999999999957e+00 1.103695000000000022e+02 1.616684999999999945e+03
1.519999999999999962e-01 6.516859999999999875e-01 2.987190000000000012e+00 1.102899999999999920e+02 1.616670000000000073e+03
1.529999999999999971e-01 6.516705000000000414e-01 2.866360000000000241e+00 1.102085000000000008e+02 1.616655000000000200e+03
1.539999999999999980e-01 6.516554999999999431e-01 2.748389999999999667e+00 1.101264999999999930e+02 1.616630000000000109e+03
1.549999999999999989e-01 6.516405000000000669e-01 2.634549999999999947e+00 1.100469999999999970e+02 1.616615000000000009e+03
1.559999999999999998e-01 6.516269999999999563e-01 2.525719999999999743e+00 1.099695000000000107e+02 1.616594999999999800e+03
1.570000000000000007e-01 6.516129999999999978e-01 2.422324999999999839e+00 1.098944999999999936e+02 1.616574999999999818e+03
1.580000000000000016e-01 6.515994999999999981e-01 2.324415000000000120e+00 1.098204999999999956e+02 1.616559999999999945e+03
1.590000000000000024e-01 6.515855000000000397e-01 2.231679999999999886e+00 1.097460000000000093e+02 1.616539999999999964e+03
