# t [s], A [cm^2], U [cm/s], P [cPa], c [cm/s]
1.000000000000000021e-03 1.720460000000000045e-01 2.989419999999999855e-01 8.890004999999999313e+01 2.029630000000000109e+03
2.000000000000000042e-03 1.720055000000000056e-01 1.708290499999999934e+00 8.588575000000000159e+01 2.029289999999999964e+03
3.000000000000000062e-03 1.718905000000000016e-01 3.437087500000000073e+00 8.176224999999999454e+01 2.028380000000000109e+03
4.000000000000000083e-03 1.717314999999999814e-01 5.374174499999999632e+00 7.729525000000001000e+01 2.027134999999999991e+03
5.000000000000000104e-03 1.715590000000000170e-01 7.458344999999999558e+00 7.331114999999999782e+01 2.025799999999999955e+03
6.000000000000000125e-03 1.713930000000000176e-01 9.528764999999999930e+00 7.008405000000000484e+01 2.024525000000000091e+03
7.000000000000000146e-03 1.712380000000000013e-01 1.138124999999999964e+01 6.736990000000000123e+01 2.023349999999999909e+03
8.000000000000000167e-03 1.710949999999999971e-01 1.293280500000000011e+01 6.492670000000001096e+01 2.022295000000000073e+03
9.000000000000001055e-03 1.709680000000000089e-01 1.422104999999999997e+01 6.279719999999999658e+01 2.021369999999999891e+03
1.000000000000000194e-02 1.708609999999999851e-01 1.528255000000000052e+01 6.106394999999999129e+01 2.020594999999999800e+03
1.099999999999999936e-02 1.707730000000000081e-01 1.613074999999999903e+01 5.970720000000000027e+01 2.019970000000000027e+03
1.200000000000000025e-02 1.707029999999999936e-01 1.677790000000000248e+01 5.866655000000000086e+01 2.019480000000000018e+03
1.300000000000000114e-02 1.706479999999999941e-01 1.722925000000000040e+01 5.785444999999999993e+01 2.019095000000000027e+03
1.400000000000000203e-02 1.706030000000000046e-01 1.749190000000000111e+01 5.716299999999999670e+01 2.018789999999999964e+03
1.499999999999999944e-02 1.705659999999999954e-01 1.761674999999999969e+01 5.657045000000000101e+01 2.018549999999999955e+03
1.600000000000000033e-02 1.705409999999999981e-01 1.771995000000000076e+01 5.624989999999999668e+01 2.018384999999999991e+03
1.700000000000000122e-02 1.705340000000000189e-01 1.794550000000000267e+01 5.652604999999999791e+01 2.018345000000000027e+03
1.800000000000000211e-02 1.705539999999999834e-01 1.839170000000000016e+01 5.768209999999999837e+01 2.018500000000000000e+03
1.900000000000000300e-02 1.706044999999999923e-01 1.905615000000000236e+01 5.975870000000000459e+01 2.018869999999999891e+03
2.000000000000000042e-02 1.706814999999999860e-01 1.983155000000000001e+01 6.247714999999999463e+01 2.019429999999999836e+03
2.100000000000000130e-02 1.707724999999999937e-01 2.054980000000000118e+01 6.532189999999999941e+01 2.020095000000000027e+03
2.200000000000000219e-02 1.708620000000000139e-01 2.104579999999999984e+01 6.772325000000000728e+01 2.020755000000000109e+03
2.299999999999999961e-02 1.709340000000000026e-01 2.121390000000000242e+01 6.924994999999999834e+01 2.021299999999999955e+03
2.400000000000000050e-02 1.709799999999999931e-01 2.103509999999999991e+01 6.973484999999999445e+01 2.021654999999999973e+03
2.500000000000000139e-02 1.709964999999999957e-01 2.057130000000000081e+01 6.929460000000000264e+01 2.021805000000000064e+03
2.600000000000000228e-02 1.709899999999999753e-01 1.993149999999999977e+01 6.824954999999999927e+01 2.021775000000000091e+03
2.700000000000000316e-02 1.709674999999999945e-01 1.922809999999999775e+01 6.698525000000000773e+01 2.021625000000000000e+03
2.800000000000000058e-02 1.709395000000000220e-01 1.853945000000000221e+01 6.581610000000000582e+01 2.021424999999999955e+03
2.900000000000000147e-02 1.709114999999999940e-01 1.789240000000000208e+01 6.489770000000000039e+01 2.021220000000000027e+03
3.000000000000000236e-02 1.708870000000000111e-01 1.726590000000000202e+01 6.421144999999999925e+01 2.021039999999999964e+03
3.099999999999999978e-02 1.708640000000000159e-01 1.661135000000000161e+01 6.361160000000000281e+01 2.020875000000000000e+03
3.200000000000000067e-02 1.708389999999999909e-01 1.588015000000000043e+01 6.291034999999999400e+01 2.020695000000000164e+03
3.300000000000000155e-02 1.708089999999999886e-01 1.504875000000000007e+01 6.196630000000000393e+01 2.020480000000000018e+03
3.400000000000000244e-02 1.707700000000000051e-01 1.413390000000000057e+01 6.075074999999999648e+01 2.020204999999999927e+03
3.500000000000000333e-02 1.707250000000000156e-01 1.319464999999999932e+01 5.937184999999999491e+01 2.019880000000000109e+03
3.600000000000000422e-02 1.706779999999999964e-01 1.231930000000000014e+01 5.805095000000000027e+01 2.019545000000000073e+03
3.700000000000000511e-02 1.706374999999999975e-01 1.160341500000000003e+01 5.706210000000000093e+01 2.019240000000000009e+03
3.799999999999999906e-02 1.706094999999999973e-01 1.112443499999999830e+01 5.665259999999999962e+01 2.019029999999999973e+03
3.899999999999999994e-02 1.706020000000000036e-01 1.092149999999999999e+01 5.697169999999999845e+01 2.018960000000000036e+03
4.000000000000000083e-02 1.706174999999999775e-01 1.098574999999999946e+01 5.802705000000000268e+01 2.019054999999999836e+03
4.100000000000000172e-02 1.706540000000000001e-01 1.126160000000000139e+01 5.967889999999999873e+01 2.019309999999999945e+03
4.200000000000000261e-02 1.707085000000000130e-01 1.165889999999999915e+01 6.166989999999999839e+01 2.019690000000000055e+03
4.300000000000000350e-02 1.707710000000000061e-01 1.207045000000000101e+01 6.367795000000000272e+01 2.020134999999999991e+03
4.400000000000000439e-02 1.708324999999999982e-01 1.239049999999999940e+01 6.537725000000000364e+01 2.020579999999999927e+03
4.499999999999999833e-02 1.708830000000000071e-01 1.253000000000000114e+01 6.649299999999999500e+01 2.020954999999999927e+03
4.599999999999999922e-02 1.709145000000000247e-01 1.242704999999999949e+01 6.683844999999999459e+01 2.021190000000000055e+03
4.700000000000000011e-02 1.709215000000000040e-01 1.205075000000000074e+01 6.633089999999999975e+01 2.021250000000000000e+03
4.800000000000000100e-02 1.709015000000000117e-01 1.139904500000000098e+01 6.498720000000000141e+01 2.021115000000000009e+03
4.900000000000000189e-02 1.708540000000000059e-01 1.049329499999999982e+01 6.290295000000000414e+01 2.020784999999999854e+03
5.000000000000000278e-02 1.707830000000000181e-01 9.370680000000000121e+00 6.022440000000000282e+01 2.020275000000000091e+03
5.100000000000000366e-02 1.706914999999999960e-01 8.076885000000000758e+00 5.711905000000000143e+01 2.019619999999999891e+03
5.200000000000000455e-02 1.705845000000000000e-01 6.660214999999999108e+00 5.375254999999999939e+01 2.018845000000000027e+03
5.300000000000000544e-02 1.704670000000000074e-01 5.168224999999999625e+00 5.027394999999999925e+01 2.017990000000000009e+03
5.399999999999999939e-02 1.703439999999999954e-01 3.646399600000000074e+00 4.681005000000000393e+01 2.017095000000000027e+03
5.500000000000000028e-02 1.702200000000000102e-01 2.138440000000000119e+00 4.346730000000000160e+01 2.016190000000000055e+03
5.600000000000000117e-02 1.700980000000000270e-01 6.871850000000001568e-01 4.033774999999999977e+01 2.015304999999999836e+03
5.700000000000000205e-02 1.699829999999999952e-01 -6.644900000000000251e-01 3.750554999999999950e+01 2.014460000000000036e+03
5.800000000000000294e-02 1.698780000000000012e-01 -1.873451999999999895e+00 3.505245000000000033e+01 2.013684999999999945e+03
5.900000000000000383e-02 1.697854999999999781e-01 -2.897068500000000046e+00 3.305975000000000108e+01 2.013005000000000109e+03
6.000000000000000472e-02 1.697095000000000131e-01 -3.694860000000000255e+00 3.160604999999999976e+01 2.012440000000000055e+03
6.099999999999999867e-02 1.696524999999999839e-01 -4.230785000000000018e+00 3.076320000000000121e+01 2.012009999999999991e+03
6.199999999999999956e-02 1.696175000000000044e-01 -4.475830000000000197e+00 3.058970000000000056e+01 2.011740000000000009e+03
6.300000000000000044e-02 1.696070000000000078e-01 -4.410285000000000011e+00 3.112395000000000067e+01 2.011640000000000100e+03
6.400000000000000133e-02 1.696214999999999806e-01 -4.025489999999999569e+00 3.237950000000000017e+01 2.011730000000000018e+03
6.500000000000000222e-02 1.696619999999999795e-01 -3.324639999999999596e+00 3.434149999999999636e+01 2.012000000000000000e+03
6.600000000000000311e-02 1.697275000000000034e-01 -2.322712549999999876e+00 3.696699999999999875e+01 2.012460000000000036e+03
6.700000000000000400e-02 1.698175000000000101e-01 -1.045450000000000212e+00 4.018724999999999881e+01 2.013095000000000027e+03
6.800000000000000488e-02 1.699295000000000111e-01 4.722750000000000004e-01 4.391225000000000023e+01 2.013889999999999873e+03
6.900000000000000577e-02 1.700595000000000023e-01 2.188635000000000108e+00 4.803719999999999857e+01 2.014824999999999818e+03
7.000000000000000666e-02 1.702055000000000096e-01 4.057222050000000024e+00 5.244880000000000564e+01 2.015880000000000109e+03
7.100000000000000755e-02 1.703629999999999867e-01 6.029514999999999958e+00 5.703235000000000099e+01 2.017014999999999873e+03
7.200000000000000844e-02 1.705274999999999985e-01 8.057219999999999160e+00 6.167774999999999608e+01 2.018214999999999918e+03
7.300000000000000933e-02 1.706960000000000144e-01 1.009459999999999980e+01 6.628555000000000064e+01 2.019450000000000045e+03
7.399999999999999634e-02 1.708645000000000025e-01 1.210054000000000052e+01 7.077105000000000246e+01 2.020684999999999945e+03
7.499999999999999722e-02 1.710309999999999886e-01 1.404005000000000081e+01 7.506855000000000189e+01 2.021904999999999973e+03
7.599999999999999811e-02 1.711920000000000108e-01 1.588574999999999982e+01 7.913300000000000978e+01 2.023095000000000027e+03
7.699999999999999900e-02 1.713459999999999983e-01 1.761824999999999974e+01 8.294104999999998995e+01 2.024240000000000009e+03
7.799999999999999989e-02 1.714924999999999922e-01 1.922664999999999935e+01 8.649060000000000059e+01 2.025324999999999818e+03
7.900000000000000078e-02 1.716310000000000058e-01 2.070799999999999841e+01 8.979819999999999425e+01 2.026355000000000018e+03
8.000000000000000167e-02 1.717615000000000114e-01 2.206609999999999872e+01 9.289555000000000007e+01 2.027335000000000036e+03
8.100000000000000255e-02 1.718854999999999966e-01 2.331040000000000134e+01 9.582510000000000616e+01 2.028260000000000218e+03
8.200000000000000344e-02 1.720035000000000036e-01 2.445425000000000182e+01 9.863509999999999422e+01 2.029150000000000091e+03
8.300000000000000433e-02 1.721179999999999932e-01 2.551299999999999812e+01 1.013734500000000054e+02 2.030005000000000109e+03
8.400000000000000522e-02 1.722295000000000076e-01 2.650249999999999773e+01 1.040854500000000087e+02 2.030839999999999918e+03
8.500000000000000611e-02 1.723405000000000076e-01 2.743744999999999834e+01 1.068079999999999927e+02 2.031670000000000073e+03
8.600000000000000699e-02 1.724510000000000209e-01 2.833024999999999949e+01 1.095670000000000073e+02 2.032500000000000000e+03
8.700000000000000788e-02 1.725625000000000075e-01 2.918994999999999962e+01 1.123770000000000095e+02 2.033340000000000146e+03
8.800000000000000877e-02 1.726749999999999952e-01 3.002219999999999800e+01 1.152404999999999973e+02 2.034179999999999836e+03
8.899999999999999578e-02 1.727889999999999981e-01 3.082835000000000036e+01 1.181475000000000080e+02 2.035034999999999854e+03
8.999999999999999667e-02 1.729040000000000021e-01 3.160629999999999740e+01 1.210780000000000030e+02 2.035900000000000091e+03
9.099999999999999756e-02 1.730200000000000071e-01 3.235025000000000261e+01 1.240030000000000001e+02 2.036764999999999873e+03
9.199999999999999845e-02 1.731344999999999967e-01 3.305169999999999675e+01 1.268880000000000052e+02 2.037625000000000000e+03
9.299999999999999933e-02 1.732480000000000131e-01 3.369984999999999786e+01 1.296935000000000002e+02 2.038474999999999909e+03
9.400000000000000022e-02 1.733580000000000121e-01 3.428239999999999554e+01 1.323785000000000025e+02 2.039299999999999955e+03
9.500000000000000111e-02 1.734634999999999927e-01 3.478645000000000209e+01 1.349025000000000034e+02 2.040095000000000027e+03
9.600000000000000200e-02 1.735629999999999951e-01 3.519915000000000305e+01 1.372275000000000205e+02 2.040845000000000255e+03
9.700000000000000289e-02 1.736555000000000182e-01 3.550849999999999795e+01 1.393205000000000098e+02 2.041545000000000073e+03
9.800000000000000377e-02 1.737394999999999912e-01 3.570400000000000063e+01 1.411514999999999986e+02 2.042175000000000182e+03
9.900000000000000466e-02 1.738135000000000097e-01 3.577740000000000009e+01 1.426984999999999957e+02 2.042744999999999891e+03
1.000000000000000056e-01 1.738780000000000048e-01 3.572285000000000110e+01 1.439474999999999909e+02 2.043230000000000018e+03
1.010000000000000064e-01 1.739310000000000023e-01 3.553790000000000049e+01 1.448935000000000173e+02 2.043640000000000100e+03
1.020000000000000073e-01 1.739729999999999888e-01 3.522305000000000064e+01 1.455364999999999895e+02 2.043960000000000036e+03
1.030000000000000082e-01 1.740035000000000054e-01 3.478235000000000099e+01 1.458884999999999934e+02 2.044199999999999818e+03
1.040000000000000091e-01 1.740234999999999976e-01 3.422299999999999898e+01 1.459660000000000082e+02 2.044359999999999900e+03
1.050000000000000100e-01 1.740335000000000076e-01 3.355545000000000044e+01 1.457959999999999923e+02 2.044444999999999936e+03
1.059999999999999970e-01 1.740335000000000076e-01 3.279255000000000564e+01 1.454074999999999989e+02 2.044460000000000036e+03
1.069999999999999979e-01 1.740260000000000140e-01 3.194940000000000069e+01 1.448360000000000127e+02 2.044410000000000082e+03
1.079999999999999988e-01 1.740105000000000124e-01 3.104234999999999900e+01 1.441189999999999998e+02 2.044299999999999955e+03
1.089999999999999997e-01 1.739895000000000191e-01 3.008885000000000076e+01 1.432944999999999993e+02 2.044154999999999973e+03
1.100000000000000006e-01 1.739640000000000075e-01 2.910629999999999740e+01 1.424005000000000223e+02 2.043965000000000146e+03
1.110000000000000014e-01 1.739354999999999929e-01 2.811155000000000115e+01 1.414730000000000132e+02 2.043759999999999991e+03
1.120000000000000023e-01 1.739050000000000040e-01 2.712024999999999864e+01 1.405430000000000064e+02 2.043529999999999973e+03
1.130000000000000032e-01 1.738735000000000142e-01 2.614650000000000318e+01 1.396394999999999982e+02 2.043299999999999955e+03
1.140000000000000041e-01 1.738419999999999965e-01 2.520224999999999937e+01 1.387824999999999989e+02 2.043065000000000055e+03
1.150000000000000050e-01 1.738119999999999943e-01 2.429684999999999917e+01 1.379890000000000043e+02 2.042835000000000036e+03
1.160000000000000059e-01 1.737839999999999940e-01 2.343704999999999927e+01 1.372690000000000055e+02 2.042625000000000000e+03
1.170000000000000068e-01 1.737575000000000092e-01 2.262665000000000148e+01 1.366250000000000000e+02 2.042424999999999955e+03
1.180000000000000077e-01 1.737329999999999985e-01 2.186690000000000111e+01 1.360539999999999736e+02 2.042234999999999900e+03
1.190000000000000085e-01 1.737110000000000043e-01 2.115605000000000047e+01 1.355475000000000136e+02 2.042069999999999936e+03
1.200000000000000094e-01 1.736909999999999843e-01 2.049024999999999963e+01 1.350914999999999964e+02 2.041914999999999964e+03
1.209999999999999964e-01 1.736725000000000074e-01 1.986325000000000074e+01 1.346684999999999945e+02 2.041769999999999982e+03
1.219999999999999973e-01 1.736550000000000038e-01 1.926735000000000042e+01 1.342580000000000098e+02 2.041640000000000100e+03
1.229999999999999982e-01 1.736375000000000002e-01 1.869359999999999999e+01 1.338380000000000223e+02 2.041500000000000000e+03
1.239999999999999991e-01 1.736199999999999966e-01 1.813235000000000241e+01 1.333849999999999909e+02 2.041369999999999891e+03
1.250000000000000000e-01 1.736010000000000053e-01 1.757404999999999973e+01 1.328764999999999930e+02 2.041224999999999909e+03
1.260000000000000009e-01 1.735800000000000121e-01 1.700929999999999964e+01 1.322934999999999945e+02 2.041065000000000055e+03
1.270000000000000018e-01 1.735565000000000024e-01 1.642994999999999806e+01 1.316179999999999950e+02 2.040889999999999873e+03
1.280000000000000027e-01 1.735295000000000032e-01 1.582910000000000039e+01 1.308375000000000057e+02 2.040684999999999945e+03
1.290000000000000036e-01 1.734990000000000143e-01 1.520170000000000066e+01 1.299440000000000168e+02 2.040455000000000155e+03
1.300000000000000044e-01 1.734645000000000215e-01 1.454495000000000005e+01 1.289345000000000141e+02 2.040200000000000045e+03
1.310000000000000053e-01 1.734259999999999968e-01 1.385810000000000031e+01 1.278129999999999882e+02 2.039914999999999964e+03
1.320000000000000062e-01 1.733830000000000093e-01 1.314300000000000068e+01 1.265879999999999939e+02 2.039595000000000027e+03
1.330000000000000071e-01 1.733370000000000188e-01 1.240380000000000038e+01 1.252735000000000127e+02 2.039255000000000109e+03
1.340000000000000080e-01 1.732879999999999976e-01 1.164665000000000106e+01 1.238884999999999934e+02 2.038884999999999991e+03
1.350000000000000089e-01 1.732360000000000011e-01 1.087955000000000005e+01 1.224565000000000055e+02 2.038494999999999891e+03
1.360000000000000098e-01 1.731820000000000026e-01 1.011208500000000043e+01 1.210030000000000001e+02 2.038095000000000027e+03
1.370000000000000107e-01 1.731274999999999897e-01 9.354694999999999538e+00 1.195550000000000068e+02 2.037690000000000055e+03
1.380000000000000115e-01 1.730730000000000046e-01 8.618364999999998943e+00 1.181405000000000030e+02 2.037284999999999854e+03
1.390000000000000124e-01 1.730194999999999927e-01 7.913985000000000269e+00 1.167860000000000014e+02 2.036884999999999991e+03
1.400000000000000133e-01 1.729674999999999963e-01 7.251940000000000275e+00 1.155165000000000077e+02 2.036500000000000000e+03
1.410000000000000142e-01 1.729189999999999894e-01 6.641530000000000378e+00 1.143530000000000086e+02 2.036134999999999991e+03
1.420000000000000151e-01 1.728744999999999865e-01 6.090654999999999930e+00 1.133135000000000048e+02 2.035795000000000073e+03
1.430000000000000160e-01 1.728339999999999876e-01 5.605465000000000586e+00 1.124099999999999966e+02 2.035490000000000009e+03
1.440000000000000169e-01 1.727980000000000071e-01 5.190165000000000362e+00 1.116500000000000057e+02 2.035215000000000146e+03
1.450000000000000178e-01 1.727664999999999895e-01 4.846894999999999953e+00 1.110374999999999943e+02 2.034980000000000018e+03
1.459999999999999909e-01 1.727409999999999779e-01 4.575720000000000454e+00 1.105685000000000002e+02 2.034784999999999854e+03
1.469999999999999918e-01 1.727210000000000134e-01 4.374745000000000772e+00 1.102374999999999972e+02 2.034625000000000000e+03
1.479999999999999927e-01 1.727049999999999974e-01 4.240240000000000009e+00 1.100324999999999989e+02 2.034505000000000109e+03
1.489999999999999936e-01 1.726940000000000142e-01 4.166895000000000238e+00 1.099410000000000025e+02 2.034414999999999964e+03
1.499999999999999944e-01 1.726874999999999938e-01 4.148125000000000284e+00 1.099465000000000003e+02 2.034365000000000009e+03
1.509999999999999953e-01 1.726845000000000185e-01 4.176350000000000229e+00 1.100310000000000059e+02 2.034335000000000036e+03
1.519999999999999962e-01 1.726844999999999908e-01 4.243335000000000079e+00 1.101760000000000019e+02 2.034335000000000036e+03
1.529999999999999971e-01 1.726869999999999794e-01 4.340510000000000090e+00 1.103629999999999995e+02 2.034345000000000027e+03
1.539999999999999980e-01 1.726914999999999978e-01 4.459295000000000009e+00 1.105734999999999957e+02 2.034375000000000000e+03
1.549999999999999989e-01 1.726964999999999750e-01 4.591369999999999507e+00 1.107914999999999992e+02 2.034410000000000082e+03
1.559999999999999998e-01 1.727029999999999954e-01 4.728949999999999321e+00 1.110014999999999930e+02 2.034450000000000045e+03
1.570000000000000007e-01 1.727084999999999870e-01 4.864990000000000592e+00 1.111910000000000025e+02 2.034500000000000000e+03
1.580000000000000016e-01 1.727144999999999930e-01 4.993354999999999322e+00 1.113495000000000061e+02 2.034534999999999854e+03
1.590000000000000024e-01 1.727190000000000114e-01 5.108990000000000364e+00 1.114685000000000059e+02 2.034570000000000164e+03
