# t [s], A [cm^2], U [cm/s], P [cPa], c [cm/s]
1.000000000000000021e-03 1.499175000000000091e-01 3.980845000000000078e-01 1.032480000000000047e+02 2.001920000000000073e+03
2.000000000000000042e-03 1.498744999999999938e-01 2.116849499999999829e+00 9.964069999999999538e+01 2.001434999999999945e+03
3.000000000000000062e-03 1.497539999999999982e-01 4.200178999999999441e+00 9.478430000000000177e+01 2.000139999999999873e+03
4.000000000000000083e-03 1.495889999999999997e-01 6.516605999999999455e+00 8.961140000000000327e+01 1.998375000000000000e+03
5.000000000000000104e-03 1.494105000000000016e-01 8.981840000000000046e+00 8.505365000000000464e+01 1.996494999999999891e+03
6.000000000000000125e-03 1.492379999999999818e-01 1.140212499999999984e+01 8.137295000000000300e+01 1.994695000000000164e+03
7.000000000000000146e-03 1.490765000000000007e-01 1.355529499999999921e+01 7.828114999999999668e+01 1.993045000000000073e+03
8.000000000000000167e-03 1.489285000000000192e-01 1.536145000000000138e+01 7.552805000000000746e+01 1.991559999999999945e+03
9.000000000000001055e-03 1.487990000000000146e-01 1.686339999999999861e+01 7.316044999999999732e+01 1.990269999999999982e+03
1.000000000000000194e-02 1.486890000000000156e-01 1.809965000000000046e+01 7.124935000000000684e+01 1.989195000000000164e+03
1.099999999999999936e-02 1.485989999999999811e-01 1.908824999999999861e+01 6.976335000000000264e+01 1.988325000000000045e+03
1.200000000000000025e-02 1.485279999999999934e-01 1.984799999999999898e+01 6.864005000000000223e+01 1.987650000000000091e+03
1.300000000000000114e-02 1.484719999999999929e-01 2.038915000000000077e+01 6.778979999999999961e+01 1.987125000000000000e+03
1.400000000000000203e-02 1.484280000000000044e-01 2.072189999999999799e+01 6.709749999999999659e+01 1.986720000000000027e+03
1.499999999999999944e-02 1.483925000000000105e-01 2.090225000000000222e+01 6.653775000000000261e+01 1.986409999999999854e+03
1.600000000000000033e-02 1.483694999999999875e-01 2.105539999999999878e+01 6.629194999999999993e+01 1.986210000000000036e+03
1.700000000000000122e-02 1.483645000000000103e-01 2.133415000000000106e+01 6.669830000000000325e+01 1.986179999999999836e+03
1.800000000000000211e-02 1.483855000000000035e-01 2.183970000000000056e+01 6.804275000000001228e+01 1.986400000000000091e+03
1.900000000000000300e-02 1.484354999999999980e-01 2.256309999999999860e+01 7.034470000000000312e+01 1.986900000000000091e+03
2.000000000000000042e-02 1.485104999999999897e-01 2.338384999999999891e+01 7.328334999999999866e+01 1.987630000000000109e+03
2.100000000000000130e-02 1.485974999999999935e-01 2.411890000000000001e+01 7.629384999999999195e+01 1.988500000000000000e+03
2.200000000000000219e-02 1.486815000000000220e-01 2.459339999999999904e+01 7.876984999999999104e+01 1.989345000000000027e+03
2.299999999999999961e-02 1.487489999999999923e-01 2.470049999999999812e+01 8.027025000000000432e+01 1.990039999999999964e+03
2.400000000000000050e-02 1.487910000000000066e-01 2.442980000000000018e+01 8.064840000000000941e+01 1.990485000000000127e+03
2.500000000000000139e-02 1.488059999999999938e-01 2.385815000000000197e+01 8.006489999999999441e+01 1.990660000000000082e+03
2.600000000000000228e-02 1.487974999999999992e-01 2.311149999999999949e+01 7.889209999999999923e+01 1.990610000000000127e+03
2.700000000000000316e-02 1.487765000000000060e-01 2.231654999999999944e+01 7.756055000000000632e+01 1.990414999999999964e+03
2.800000000000000058e-02 1.487514999999999810e-01 2.156085000000000207e+01 7.641194999999999027e+01 1.990175000000000182e+03
2.900000000000000147e-02 1.487284999999999857e-01 2.087424999999999997e+01 7.560829999999999984e+01 1.989950000000000045e+03
3.000000000000000236e-02 1.487109999999999821e-01 2.023345000000000127e+01 7.511920000000000641e+01 1.989769999999999982e+03
3.099999999999999978e-02 1.486969999999999958e-01 1.958395000000000152e+01 7.477545000000000641e+01 1.989635000000000218e+03
3.200000000000000067e-02 1.486830000000000096e-01 1.886914999999999765e+01 7.436005000000000109e+01 1.989494999999999891e+03
3.300000000000000155e-02 1.486645000000000050e-01 1.805699999999999861e+01 7.370295000000000130e+01 1.989320000000000164e+03
3.400000000000000244e-02 1.486390000000000211e-01 1.715694999999999837e+01 7.275055000000000405e+01 1.989074999999999818e+03
3.500000000000000333e-02 1.486075000000000035e-01 1.622244999999999848e+01 7.159290000000000020e+01 1.988765000000000100e+03
3.600000000000000422e-02 1.485724999999999962e-01 1.533899999999999864e+01 7.044185000000000230e+01 1.988430000000000064e+03
3.700000000000000511e-02 1.485414999999999930e-01 1.460259999999999891e+01 6.957089999999999463e+01 1.988115000000000009e+03
3.799999999999999906e-02 1.485204999999999997e-01 1.409384999999999977e+01 6.923539999999999850e+01 1.987900000000000091e+03
3.899999999999999994e-02 1.485154999999999947e-01 1.385675000000000168e+01 6.959834999999999638e+01 1.987839999999999918e+03
4.000000000000000083e-02 1.485305000000000097e-01 1.388724999999999987e+01 7.068305000000000859e+01 1.987974999999999909e+03
4.100000000000000172e-02 1.485650000000000026e-01 1.413330000000000020e+01 7.236355000000000359e+01 1.988289999999999964e+03
4.200000000000000261e-02 1.486145000000000105e-01 1.450584999999999880e+01 7.439039999999999964e+01 1.988764999999999873e+03
4.300000000000000350e-02 1.486720000000000264e-01 1.489584999999999937e+01 7.644190000000000396e+01 1.989319999999999936e+03
4.400000000000000439e-02 1.487284999999999857e-01 1.519289999999999985e+01 7.818555000000000632e+01 1.989875000000000000e+03
4.499999999999999833e-02 1.487755000000000050e-01 1.530209999999999937e+01 7.933400000000000318e+01 1.990345000000000027e+03
4.599999999999999922e-02 1.488054999999999795e-01 1.515525000000000055e+01 7.968600000000000705e+01 1.990650000000000091e+03
4.700000000000000011e-02 1.488130000000000008e-01 1.471600000000000108e+01 7.914580000000000837e+01 1.990730000000000018e+03
4.800000000000000100e-02 1.487950000000000106e-01 1.397920000000000051e+01 7.772169999999999845e+01 1.990569999999999936e+03
4.900000000000000189e-02 1.487514999999999810e-01 1.296589999999999954e+01 7.550784999999999059e+01 1.990155000000000200e+03
5.000000000000000278e-02 1.486850000000000116e-01 1.171566999999999936e+01 7.265569999999999595e+01 1.989509999999999991e+03
5.100000000000000366e-02 1.485984999999999945e-01 1.027894000000000041e+01 6.934475000000000477e+01 1.988664999999999964e+03
5.200000000000000455e-02 1.484975000000000045e-01 8.710514999999999119e+00 6.575634999999999764e+01 1.987670000000000073e+03
5.300000000000000544e-02 1.483860000000000179e-01 7.065000000000000391e+00 6.205684999999999718e+01 1.986579999999999927e+03
5.399999999999999939e-02 1.482694999999999985e-01 5.394789999999999530e+00 5.838960000000000150e+01 1.985429999999999836e+03
5.500000000000000028e-02 1.481525000000000203e-01 3.749512999999999874e+00 5.487415000000000020e+01 1.984275000000000091e+03
5.600000000000000117e-02 1.480380000000000029e-01 2.176579999999999959e+00 5.161135000000000161e+01 1.983140000000000100e+03
5.700000000000000205e-02 1.479300000000000059e-01 7.218350000000002264e-01 4.868965000000000032e+01 1.982074999999999818e+03
5.800000000000000294e-02 1.478319999999999912e-01 -5.702199999999999491e-01 4.619034999999999513e+01 1.981094999999999800e+03
5.900000000000000383e-02 1.477469999999999895e-01 -1.657003500000000074e+00 4.419015000000000271e+01 1.980244999999999891e+03
6.000000000000000472e-02 1.476764999999999883e-01 -2.499296999999999880e+00 4.276059999999999661e+01 1.979539999999999964e+03
6.099999999999999867e-02 1.476250000000000062e-01 -3.063334999999999919e+00 4.196394999999999698e+01 1.979009999999999991e+03
6.199999999999999956e-02 1.475934999999999886e-01 -3.323190000000000310e+00 4.184805000000000064e+01 1.978679999999999836e+03
6.300000000000000044e-02 1.475835000000000063e-01 -3.262929999999999886e+00 4.243990000000000151e+01 1.978559999999999945e+03
6.400000000000000133e-02 1.475965000000000193e-01 -2.878225000000000033e+00 4.374120000000000630e+01 1.978660000000000082e+03
6.500000000000000222e-02 1.476319999999999855e-01 -2.177017999999999898e+00 4.572545000000000215e+01 1.978989999999999782e+03
6.600000000000000311e-02 1.476899999999999880e-01 -1.179244999999999877e+00 4.833809999999999718e+01 1.979534999999999854e+03
6.700000000000000400e-02 1.477685000000000248e-01 8.440999999999987402e-02 5.150010000000000332e+01 1.980279999999999973e+03
6.800000000000000488e-02 1.478650000000000242e-01 1.574505000000000043e+00 5.511254999999999882e+01 1.981215000000000146e+03
6.900000000000000577e-02 1.479769999999999974e-01 3.245288500000000020e+00 5.906395000000000550e+01 1.982304999999999836e+03
7.000000000000000666e-02 1.481004999999999960e-01 5.047295000000000087e+00 6.323704999999999643e+01 1.983509999999999991e+03
7.100000000000000755e-02 1.482330000000000036e-01 6.929949999999999832e+00 6.751605000000000700e+01 1.984809999999999945e+03
7.200000000000000844e-02 1.483700000000000019e-01 8.843980000000000175e+00 7.179269999999999641e+01 1.986159999999999854e+03
7.300000000000000933e-02 1.485084999999999877e-01 1.074352999999999980e+01 7.597135000000000105e+01 1.987534999999999854e+03
7.399999999999999634e-02 1.486460000000000004e-01 1.258794999999999931e+01 7.997284999999999400e+01 1.988900000000000091e+03
7.499999999999999722e-02 1.487789999999999946e-01 1.434335000000000093e+01 8.373714999999999975e+01 1.990224999999999909e+03
7.599999999999999811e-02 1.489059999999999828e-01 1.598349999999999937e+01 8.722509999999999764e+01 1.991500000000000000e+03
7.699999999999999900e-02 1.490254999999999774e-01 1.749070000000000036e+01 9.041859999999999786e+01 1.992700000000000045e+03
7.799999999999999989e-02 1.491365000000000052e-01 1.885569999999999879e+01 9.331990000000000407e+01 1.993819999999999936e+03
7.900000000000000078e-02 1.492394999999999972e-01 2.007744999999999891e+01 9.594954999999998790e+01 1.994865000000000009e+03
8.000000000000000167e-02 1.493340000000000223e-01 2.116230000000000189e+01 9.834389999999999077e+01 1.995825000000000045e+03
8.100000000000000255e-02 1.494214999999999849e-01 2.212255000000000038e+01 1.005492500000000007e+02 1.996720000000000027e+03
8.200000000000000344e-02 1.495035000000000114e-01 2.297500000000000142e+01 1.026204000000000036e+02 1.997555000000000064e+03
8.300000000000000433e-02 1.495815000000000061e-01 2.373920000000000030e+01 1.046124999999999972e+02 1.998349999999999909e+03
8.400000000000000522e-02 1.496565000000000256e-01 2.443534999999999968e+01 1.065785000000000053e+02 1.999119999999999891e+03
8.500000000000000611e-02 1.497310000000000030e-01 2.508279999999999887e+01 1.085645000000000095e+02 1.999875000000000000e+03
8.600000000000000699e-02 1.498045000000000071e-01 2.569849999999999923e+01 1.106059999999999945e+02 2.000634999999999991e+03
8.700000000000000788e-02 1.498800000000000132e-01 2.629570000000000007e+01 1.127255000000000109e+02 2.001400000000000091e+03
8.800000000000000877e-02 1.499570000000000070e-01 2.688320000000000221e+01 1.149325000000000045e+02 2.002190000000000055e+03
8.899999999999999578e-02 1.500365000000000171e-01 2.746504999999999797e+01 1.172214999999999918e+02 2.002994999999999891e+03
8.999999999999999667e-02 1.501180000000000014e-01 2.804019999999999868e+01 1.195745000000000005e+02 2.003824999999999818e+03
9.099999999999999756e-02 1.502014999999999878e-01 2.860320000000000107e+01 1.219620000000000033e+02 2.004664999999999964e+03
9.199999999999999845e-02 1.502850000000000019e-01 2.914460000000000051e+01 1.243470000000000084e+02 2.005519999999999982e+03
9.299999999999999933e-02 1.503684999999999883e-01 2.965189999999999770e+01 1.266844999999999999e+02 2.006365000000000009e+03
9.400000000000000022e-02 1.504500000000000004e-01 3.011050000000000182e+01 1.289275000000000091e+02 2.007200000000000045e+03
9.500000000000000111e-02 1.505285000000000095e-01 3.050469999999999970e+01 1.310285000000000082e+02 2.008000000000000000e+03
9.600000000000000200e-02 1.506025000000000003e-01 3.081879999999999953e+01 1.329435000000000002e+02 2.008750000000000000e+03
9.700000000000000289e-02 1.506699999999999984e-01 3.103790000000000049e+01 1.346310000000000002e+02 2.009449999999999818e+03
9.800000000000000377e-02 1.507304999999999895e-01 3.114884999999999948e+01 1.360584999999999809e+02 2.010074999999999818e+03
9.900000000000000466e-02 1.507830000000000004e-01 3.114110000000000156e+01 1.371990000000000123e+02 2.010615000000000009e+03
1.000000000000000056e-01 1.508260000000000156e-01 3.100690000000000168e+01 1.380360000000000014e+02 2.011059999999999945e+03
1.010000000000000064e-01 1.508590000000000209e-01 3.074220000000000041e+01 1.385620000000000118e+02 2.011409999999999854e+03
1.020000000000000073e-01 1.508824999999999750e-01 3.034644999999999726e+01 1.387780000000000200e+02 2.011655000000000200e+03
1.030000000000000082e-01 1.508955000000000157e-01 2.982289999999999708e+01 1.386949999999999932e+02 2.011800000000000182e+03
1.040000000000000091e-01 1.508984999999999910e-01 2.917859999999999943e+01 1.383305000000000007e+02 2.011840000000000146e+03
1.050000000000000100e-01 1.508919999999999983e-01 2.842374999999999829e+01 1.377125000000000057e+02 2.011795000000000073e+03
1.059999999999999970e-01 1.508774999999999977e-01 2.757155000000000200e+01 1.368725000000000023e+02 2.011654999999999973e+03
1.069999999999999979e-01 1.508550000000000169e-01 2.663759999999999906e+01 1.358464999999999918e+02 2.011434999999999945e+03
1.079999999999999988e-01 1.508260000000000156e-01 2.563935000000000031e+01 1.346754999999999995e+02 2.011150000000000091e+03
1.089999999999999997e-01 1.507924999999999960e-01 2.459515000000000029e+01 1.333994999999999891e+02 2.010809999999999945e+03
1.100000000000000006e-01 1.507534999999999847e-01 2.352364999999999995e+01 1.320600000000000023e+02 2.010425000000000182e+03
1.110000000000000014e-01 1.507129999999999859e-01 2.244320000000000093e+01 1.306945000000000050e+02 2.010014999999999873e+03
1.120000000000000023e-01 1.506704999999999850e-01 2.137109999999999843e+01 1.293389999999999986e+02 2.009590000000000146e+03
1.130000000000000032e-01 1.506274999999999975e-01 2.032284999999999897e+01 1.280235000000000127e+02 2.009154999999999973e+03
1.140000000000000041e-01 1.505849999999999966e-01 1.931190000000000140e+01 1.267719999999999914e+02 2.008724999999999909e+03
1.150000000000000050e-01 1.505440000000000111e-01 1.834904999999999831e+01 1.256050000000000040e+02 2.008305000000000064e+03
1.160000000000000059e-01 1.505055000000000143e-01 1.744225000000000136e+01 1.245329999999999870e+02 2.007909999999999854e+03
1.170000000000000068e-01 1.504694999999999783e-01 1.659649999999999892e+01 1.235614999999999952e+02 2.007539999999999964e+03
1.180000000000000077e-01 1.504360000000000142e-01 1.581350000000000122e+01 1.226895000000000095e+02 2.007195000000000164e+03
1.190000000000000085e-01 1.504050000000000109e-01 1.509224999999999994e+01 1.219080000000000013e+02 2.006880000000000109e+03
1.200000000000000094e-01 1.503769999999999829e-01 1.442875000000000085e+01 1.212044999999999959e+02 2.006590000000000146e+03
1.209999999999999964e-01 1.503510000000000124e-01 1.381674999999999898e+01 1.205600000000000023e+02 2.006315000000000055e+03
1.219999999999999973e-01 1.503269999999999884e-01 1.324790000000000134e+01 1.199530000000000030e+02 2.006070000000000164e+03
1.229999999999999982e-01 1.503039999999999932e-01 1.271235000000000070e+01 1.193589999999999947e+02 2.005825000000000045e+03
1.239999999999999991e-01 1.502815000000000123e-01 1.219924999999999926e+01 1.187524999999999977e+02 2.005595000000000027e+03
1.250000000000000000e-01 1.502584999999999893e-01 1.169754999999999967e+01 1.181080000000000041e+02 2.005359999999999900e+03
1.260000000000000009e-01 1.502339999999999787e-01 1.119627000000000017e+01 1.174014999999999986e+02 2.005105000000000018e+03
1.270000000000000018e-01 1.502080000000000082e-01 1.068530999999999942e+01 1.166135000000000019e+02 2.004840000000000146e+03
1.280000000000000027e-01 1.501794999999999936e-01 1.015611499999999978e+01 1.157270000000000039e+02 2.004555000000000064e+03
1.290000000000000036e-01 1.501480000000000037e-01 9.601694999999999425e+00 1.147300000000000040e+02 2.004234999999999900e+03
1.300000000000000044e-01 1.501135000000000108e-01 9.017564999999999387e+00 1.136165000000000020e+02 2.003880000000000109e+03
1.310000000000000053e-01 1.500744999999999996e-01 8.401540000000000674e+00 1.123875000000000028e+02 2.003489999999999782e+03
1.320000000000000062e-01 1.500329999999999997e-01 7.754290000000000127e+00 1.110494999999999948e+02 2.003070000000000164e+03
1.330000000000000071e-01 1.499874999999999958e-01 7.079005000000000436e+00 1.096144999999999925e+02 2.002610000000000127e+03
1.340000000000000080e-01 1.499385000000000023e-01 6.381439999999999557e+00 1.081020000000000039e+02 2.002119999999999891e+03
1.350000000000000089e-01 1.498875000000000068e-01 5.669594999999999274e+00 1.065349999999999966e+02 2.001605000000000018e+03
1.360000000000000098e-01 1.498345000000000093e-01 4.953339999999999854e+00 1.049404999999999859e+02 2.001069999999999936e+03
1.370000000000000107e-01 1.497809999999999975e-01 4.243904999999999816e+00 1.033479999999999990e+02 2.000529999999999973e+03
1.380000000000000115e-01 1.497269999999999990e-01 3.553350000000000009e+00 1.017885500000000008e+02 1.999985000000000127e+03
1.390000000000000124e-01 1.496740000000000015e-01 2.893994999999999873e+00 1.002914499999999975e+02 1.999454999999999927e+03
1.400000000000000133e-01 1.496224999999999916e-01 2.277826999999999824e+00 9.888554999999999495e+01 1.998929999999999836e+03
1.410000000000000142e-01 1.495739999999999847e-01 1.715951500000000074e+00 9.759655000000000769e+01 1.998444999999999936e+03
1.420000000000000151e-01 1.495294999999999819e-01 1.218132500000000062e+00 9.644525000000000148e+01 1.997985000000000127e+03
1.430000000000000160e-01 1.494890000000000108e-01 7.923875000000000224e-01 9.544890000000000896e+01 1.997574999999999818e+03
1.440000000000000169e-01 1.494524999999999881e-01 4.446715000000000528e-01 9.461869999999998981e+01 1.997204999999999927e+03
1.450000000000000178e-01 1.494219999999999993e-01 1.787065000000000459e-01 9.396065000000000111e+01 1.996894999999999982e+03
1.459999999999999909e-01 1.493970000000000020e-01 -4.092499999999998916e-03 9.347514999999999930e+01 1.996634999999999991e+03
1.469999999999999918e-01 1.493774999999999964e-01 -1.046130000000000115e-01 9.315755000000000052e+01 1.996430000000000064e+03
1.479999999999999927e-01 1.493629999999999958e-01 -1.259045000000000303e-01 9.299840000000000373e+01 1.996280000000000200e+03
1.489999999999999936e-01 1.493539999999999868e-01 -7.298100000000000420e-02 9.298425000000000296e+01 1.996184999999999945e+03
1.499999999999999944e-01 1.493504999999999971e-01 4.745015000000000344e-02 9.309844999999999970e+01 1.996130000000000109e+03
1.509999999999999953e-01 1.493504999999999971e-01 2.273050000000000070e-01 9.332179999999999609e+01 1.996125000000000000e+03
1.519999999999999962e-01 1.493545000000000011e-01 4.574679999999999858e-01 9.363380000000000791e+01 1.996160000000000082e+03
1.529999999999999971e-01 1.493614999999999804e-01 7.281535000000000091e-01 9.401300000000000523e+01 1.996230000000000018e+03
1.539999999999999980e-01 1.493714999999999904e-01 1.029261999999999899e+00 9.443815000000000737e+01 1.996320000000000164e+03
1.549999999999999989e-01 1.493829999999999880e-01 1.350719999999999921e+00 9.488875000000000171e+01 1.996434999999999945e+03
1.559999999999999998e-01 1.493954999999999866e-01 1.682825000000000015e+00 9.534590000000000032e+01 1.996554999999999836e+03
1.570000000000000007e-01 1.494090000000000140e-01 2.016494999999999926e+00 9.579245000000000232e+01 1.996690000000000055e+03
1.580000000000000016e-01 1.494225000000000136e-01 2.343539999999999957e+00 9.621385000000000787e+01 1.996815000000000055e+03
1.590000000000000024e-01 1.494354999999999989e-01 2.656880000000000130e+00 9.659819999999999141e+01 1.996944999999999936e+03
