# t [s], A [cm^2], U [cm/s], P [cPa], c [cm/s]
1.000000000000000021e-03 1.329020000000000201e-01 1.472133999999999943e-01 8.876855000000000473e+01 2.043880000000000109e+03
2.000000000000000042e-03 1.328825000000000145e-01 1.308729999999999949e+00 8.631074999999999875e+01 2.043649999999999864e+03
3.000000000000000062e-03 1.328135000000000010e-01 2.801218999999999681e+00 8.289105000000000700e+01 2.042879999999999882e+03
4.000000000000000083e-03 1.327105000000000090e-01 4.495002999999999638e+00 7.890139999999999532e+01 2.041759999999999991e+03
5.000000000000000104e-03 1.325930000000000164e-01 6.345010000000000261e+00 7.500629999999999598e+01 2.040490000000000009e+03
6.000000000000000125e-03 1.324734999999999940e-01 8.263595000000000468e+00 7.161650000000000205e+01 2.039210000000000036e+03
7.000000000000000146e-03 1.323595000000000188e-01 1.009839000000000020e+01 6.874439999999999884e+01 2.038010000000000218e+03
8.000000000000000167e-03 1.322514999999999941e-01 1.172001500000000007e+01 6.618665000000000020e+01 2.036889999999999873e+03
9.000000000000001055e-03 1.321519999999999917e-01 1.310346499999999992e+01 6.385999999999999943e+01 2.035875000000000000e+03
1.000000000000000194e-02 1.320639999999999870e-01 1.427815000000000012e+01 6.182889999999999731e+01 2.034990000000000009e+03
1.099999999999999936e-02 1.319889999999999952e-01 1.526559999999999917e+01 6.014220000000000255e+01 2.034239999999999782e+03
1.200000000000000025e-02 1.319259999999999877e-01 1.607625000000000171e+01 5.878740000000000521e+01 2.033619999999999891e+03
1.300000000000000114e-02 1.318749999999999922e-01 1.671475000000000222e+01 5.771370000000000289e+01 2.033119999999999891e+03
1.400000000000000203e-02 1.318330000000000057e-01 1.717815000000000225e+01 5.683389999999999986e+01 2.032715000000000146e+03
1.499999999999999944e-02 1.317975000000000119e-01 1.747129999999999939e+01 5.605375000000000085e+01 2.032384999999999991e+03
1.600000000000000033e-02 1.317679999999999962e-01 1.763674999999999926e+01 5.535759999999999792e+01 2.032105000000000018e+03
1.700000000000000122e-02 1.317450000000000010e-01 1.776364999999999839e+01 5.487160000000000082e+01 2.031900000000000091e+03
1.800000000000000211e-02 1.317329999999999890e-01 1.796005000000000251e+01 5.482750000000000057e+01 2.031799999999999955e+03
1.900000000000000300e-02 1.317375000000000074e-01 1.830545000000000044e+01 5.543984999999999985e+01 2.031855000000000018e+03
2.000000000000000042e-02 1.317605000000000026e-01 1.881559999999999988e+01 5.677819999999999823e+01 2.032085000000000036e+03
2.100000000000000130e-02 1.318005000000000149e-01 1.943639999999999901e+01 5.870935000000000059e+01 2.032485000000000127e+03
2.200000000000000219e-02 1.318515000000000104e-01 2.006734999999999758e+01 6.093124999999999858e+01 2.032994999999999891e+03
2.299999999999999961e-02 1.319064999999999821e-01 2.059900000000000020e+01 6.307169999999999987e+01 2.033559999999999945e+03
2.400000000000000050e-02 1.319569999999999910e-01 2.094790000000000063e+01 6.480270000000000152e+01 2.034085000000000036e+03
2.500000000000000139e-02 1.319985000000000186e-01 2.107755000000000223e+01 6.592740000000000578e+01 2.034514999999999873e+03
2.600000000000000228e-02 1.320260000000000045e-01 2.100115000000000265e+01 6.641429999999999723e+01 2.034820000000000164e+03
2.700000000000000316e-02 1.320415000000000061e-01 2.076849999999999952e+01 6.637619999999999720e+01 2.034990000000000009e+03
2.800000000000000058e-02 1.320459999999999967e-01 2.044340000000000046e+01 6.600830000000000553e+01 2.035054999999999836e+03
2.900000000000000147e-02 1.320439999999999947e-01 2.008074999999999832e+01 6.551205000000000211e+01 2.035045000000000073e+03
3.000000000000000236e-02 1.320395000000000041e-01 1.971070000000000277e+01 6.503059999999999263e+01 2.035000000000000000e+03
3.099999999999999978e-02 1.320324999999999971e-01 1.933389999999999986e+01 6.461494999999999322e+01 2.034934999999999945e+03
3.200000000000000067e-02 1.320250000000000035e-01 1.892739999999999867e+01 6.422629999999999484e+01 2.034860000000000127e+03
3.300000000000000155e-02 1.320155000000000078e-01 1.845785000000000053e+01 6.376805000000000234e+01 2.034764999999999873e+03
3.400000000000000244e-02 1.320014999999999938e-01 1.789789999999999992e+01 6.313445000000000107e+01 2.034630000000000109e+03
3.500000000000000333e-02 1.319819999999999882e-01 1.723969999999999914e+01 6.225914999999999822e+01 2.034440000000000055e+03
3.600000000000000422e-02 1.319565000000000043e-01 1.650274999999999892e+01 6.114985000000000070e+01 2.034190000000000055e+03
3.700000000000000511e-02 1.319259999999999877e-01 1.573315000000000019e+01 5.989910000000000423e+01 2.033884999999999991e+03
3.799999999999999906e-02 1.318934999999999969e-01 1.499514999999999887e+01 5.866835000000000377e+01 2.033565000000000055e+03
3.899999999999999994e-02 1.318644999999999956e-01 1.435679999999999978e+01 5.765095000000000169e+01 2.033269999999999982e+03
4.000000000000000083e-02 1.318410000000000137e-01 1.387524999999999942e+01 5.702495000000000402e+01 2.033029999999999973e+03
4.100000000000000172e-02 1.318290000000000017e-01 1.358360000000000056e+01 5.690999999999999659e+01 2.032894999999999982e+03
4.200000000000000261e-02 1.318290000000000017e-01 1.348519999999999897e+01 5.733930000000000149e+01 2.032880000000000109e+03
4.300000000000000350e-02 1.318409999999999860e-01 1.355379999999999896e+01 5.825365000000000038e+01 2.032990000000000009e+03
4.400000000000000439e-02 1.318644999999999956e-01 1.374019999999999975e+01 5.951470000000000482e+01 2.033214999999999918e+03
4.499999999999999833e-02 1.318950000000000122e-01 1.398215000000000074e+01 6.093455000000000155e+01 2.033509999999999991e+03
4.599999999999999922e-02 1.319289999999999907e-01 1.421535000000000082e+01 6.231054999999999922e+01 2.033845000000000027e+03
4.700000000000000011e-02 1.319605000000000083e-01 1.438289999999999935e+01 6.345879999999999654e+01 2.034164999999999964e+03
4.800000000000000100e-02 1.319870000000000210e-01 1.444200000000000017e+01 6.423914999999999509e+01 2.034434999999999945e+03
4.900000000000000189e-02 1.320044999999999968e-01 1.436655000000000015e+01 6.456815000000000282e+01 2.034615000000000009e+03
5.000000000000000278e-02 1.320109999999999895e-01 1.414665000000000106e+01 6.442024999999999579e+01 2.034695000000000164e+03
5.100000000000000366e-02 1.320064999999999988e-01 1.378584999999999994e+01 6.381875000000000142e+01 2.034654999999999973e+03
5.200000000000000455e-02 1.319909999999999972e-01 1.329645000000000010e+01 6.282080000000000553e+01 2.034505000000000109e+03
5.300000000000000544e-02 1.319649999999999990e-01 1.269565000000000055e+01 6.150090000000000146e+01 2.034255000000000109e+03
5.399999999999999939e-02 1.319309999999999927e-01 1.200183499999999981e+01 5.993659999999999854e+01 2.033914999999999964e+03
5.500000000000000028e-02 1.318900000000000072e-01 1.123269999999999946e+01 5.819865000000000066e+01 2.033500000000000000e+03
5.600000000000000117e-02 1.318435000000000024e-01 1.040496500000000069e+01 5.634680000000000177e+01 2.033039999999999964e+03
5.700000000000000205e-02 1.317935000000000079e-01 9.535004999999999953e+00 5.443070000000000164e+01 2.032534999999999854e+03
5.800000000000000294e-02 1.317409999999999970e-01 8.639994999999998981e+00 5.249425000000000097e+01 2.032005000000000109e+03
5.900000000000000383e-02 1.316875000000000129e-01 7.739735000000000475e+00 5.058089999999999975e+01 2.031464999999999918e+03
6.000000000000000472e-02 1.316340000000000010e-01 6.857404999999999973e+00 4.873919999999999675e+01 2.030920000000000073e+03
6.099999999999999867e-02 1.315820000000000045e-01 6.020105000000000040e+00 4.702615000000000123e+01 2.030400000000000091e+03
6.199999999999999956e-02 1.315339999999999843e-01 5.258259999999999934e+00 4.550750000000000028e+01 2.029904999999999973e+03
6.300000000000000044e-02 1.314909999999999968e-01 4.604429999999999801e+00 4.425659999999999883e+01 2.029470000000000027e+03
6.400000000000000133e-02 1.314560000000000173e-01 4.091470000000000162e+00 4.334955000000000069e+01 2.029110000000000127e+03
6.500000000000000222e-02 1.314305000000000057e-01 3.750434999999999963e+00 4.285999999999999943e+01 2.028839999999999918e+03
6.600000000000000311e-02 1.314160000000000050e-01 3.608435000000000059e+00 4.285314999999999941e+01 2.028684999999999945e+03
6.700000000000000400e-02 1.314155000000000184e-01 3.686829999999999607e+00 4.338015000000000043e+01 2.028664999999999964e+03
6.800000000000000488e-02 1.314289999999999903e-01 3.999839999999999840e+00 4.447390000000000043e+01 2.028784999999999854e+03
6.900000000000000577e-02 1.314584999999999781e-01 4.553770000000000095e+00 4.614685000000000059e+01 2.029065000000000055e+03
7.000000000000000666e-02 1.315040000000000098e-01 5.346799999999999997e+00 4.839015000000000555e+01 2.029505000000000109e+03
7.100000000000000755e-02 1.315645000000000009e-01 6.369399999999999729e+00 5.117475000000000307e+01 2.030099999999999909e+03
7.200000000000000844e-02 1.316404999999999936e-01 7.605079999999999174e+00 5.445405000000000229e+01 2.030855000000000018e+03
7.300000000000000933e-02 1.317300000000000137e-01 9.031649999999999068e+00 5.816740000000000066e+01 2.031744999999999891e+03
7.399999999999999634e-02 1.318320000000000047e-01 1.062260000000000026e+01 6.224460000000000548e+01 2.032759999999999991e+03
7.499999999999999722e-02 1.319444999999999923e-01 1.234861000000000075e+01 6.661015000000000441e+01 2.033889999999999873e+03
7.599999999999999811e-02 1.320649999999999880e-01 1.417922000000000082e+01 7.118809999999999150e+01 2.035110000000000127e+03
7.699999999999999900e-02 1.321930000000000049e-01 1.608429999999999893e+01 7.590590000000000259e+01 2.036400000000000091e+03
7.799999999999999989e-02 1.323255000000000126e-01 1.803525000000000134e+01 8.069839999999999236e+01 2.037744999999999891e+03
7.900000000000000078e-02 1.324609999999999954e-01 2.000634999999999764e+01 8.551000000000000512e+01 2.039125000000000000e+03
8.000000000000000167e-02 1.325979999999999936e-01 2.197520000000000095e+01 9.029640000000000555e+01 2.040525000000000091e+03
8.100000000000000255e-02 1.327349999999999919e-01 2.392309999999999803e+01 9.502514999999999645e+01 2.041930000000000064e+03
8.200000000000000344e-02 1.328719999999999901e-01 2.583530000000000015e+01 9.967504999999999882e+01 2.043330000000000155e+03
8.300000000000000433e-02 1.330075000000000007e-01 2.770029999999999859e+01 1.042340499999999963e+02 2.044720000000000027e+03
8.400000000000000522e-02 1.331410000000000093e-01 2.950959999999999894e+01 1.086980000000000075e+02 2.046105000000000018e+03
8.500000000000000611e-02 1.332725000000000160e-01 3.125679999999999836e+01 1.130660000000000025e+02 2.047460000000000036e+03
8.600000000000000699e-02 1.334020000000000206e-01 3.293720000000000425e+01 1.173404999999999916e+02 2.048805000000000291e+03
8.700000000000000788e-02 1.335290000000000088e-01 3.454690000000000083e+01 1.215235000000000127e+02 2.050125000000000000e+03
8.800000000000000877e-02 1.336539999999999950e-01 3.608249999999999602e+01 1.256144999999999925e+02 2.051420000000000073e+03
8.899999999999999578e-02 1.337764999999999926e-01 3.754064999999999941e+01 1.296115000000000066e+02 2.052690000000000055e+03
8.999999999999999667e-02 1.338965000000000016e-01 3.891835000000000377e+01 1.335084999999999980e+02 2.053940000000000055e+03
9.099999999999999756e-02 1.340135000000000076e-01 4.021224999999999739e+01 1.372980000000000018e+02 2.055164999999999964e+03
9.199999999999999845e-02 1.341280000000000250e-01 4.141920000000000357e+01 1.409699999999999989e+02 2.056359999999999673e+03
9.299999999999999933e-02 1.342384999999999828e-01 4.253634999999999877e+01 1.445120000000000005e+02 2.057515000000000327e+03
9.400000000000000022e-02 1.343459999999999932e-01 4.356094999999999828e+01 1.479139999999999873e+02 2.058644999999999982e+03
9.500000000000000111e-02 1.344490000000000129e-01 4.449065000000000225e+01 1.511634999999999991e+02 2.059724999999999909e+03
9.600000000000000200e-02 1.345480000000000009e-01 4.532340000000000657e+01 1.542500000000000000e+02 2.060765000000000327e+03
9.700000000000000289e-02 1.346414999999999973e-01 4.605724999999999625e+01 1.571624999999999943e+02 2.061755000000000109e+03
9.800000000000000377e-02 1.347309999999999897e-01 4.669055000000000177e+01 1.598915000000000077e+02 2.062695000000000164e+03
9.900000000000000466e-02 1.348149999999999904e-01 4.722175000000000011e+01 1.624269999999999925e+02 2.063574999999999818e+03
1.000000000000000056e-01 1.348929999999999851e-01 4.764929999999999666e+01 1.647595000000000027e+02 2.064404999999999745e+03
1.010000000000000064e-01 1.349659999999999749e-01 4.797190000000000509e+01 1.668810000000000002e+02 2.065175000000000182e+03
1.020000000000000073e-01 1.350319999999999854e-01 4.818854999999999933e+01 1.687824999999999989e+02 2.065880000000000109e+03
1.030000000000000082e-01 1.350919999999999899e-01 4.829860000000000042e+01 1.704574999999999818e+02 2.066514999999999873e+03
1.040000000000000091e-01 1.351455000000000017e-01 4.830209999999999582e+01 1.719005000000000223e+02 2.067085000000000036e+03
1.050000000000000100e-01 1.351920000000000066e-01 4.820005000000000450e+01 1.731080000000000041e+02 2.067585000000000036e+03
1.059999999999999970e-01 1.352319999999999911e-01 4.799474999999999625e+01 1.740805000000000007e+02 2.068010000000000218e+03
1.069999999999999979e-01 1.352650000000000241e-01 4.768959999999999866e+01 1.748220000000000027e+02 2.068369999999999891e+03
1.079999999999999988e-01 1.352915000000000090e-01 4.728965000000000174e+01 1.753394999999999868e+02 2.068654999999999745e+03
1.089999999999999997e-01 1.353110000000000146e-01 4.680129999999999768e+01 1.756454999999999984e+02 2.068869999999999891e+03
1.100000000000000006e-01 1.353245000000000142e-01 4.623229999999999507e+01 1.757549999999999955e+02 2.069025000000000091e+03
1.110000000000000014e-01 1.353325000000000222e-01 4.559170000000000300e+01 1.756870000000000118e+02 2.069114999999999782e+03
1.120000000000000023e-01 1.353349999999999831e-01 4.488924999999999699e+01 1.754625000000000057e+02 2.069150000000000091e+03
1.130000000000000032e-01 1.353329999999999811e-01 4.413550000000000040e+01 1.751050000000000182e+02 2.069140000000000327e+03
1.140000000000000041e-01 1.353270000000000028e-01 4.334109999999999729e+01 1.746374999999999886e+02 2.069079999999999927e+03
1.150000000000000050e-01 1.353174999999999795e-01 4.251675000000000182e+01 1.740829999999999984e+02 2.068980000000000018e+03
1.160000000000000059e-01 1.353044999999999942e-01 4.167249999999999943e+01 1.734635000000000105e+02 2.068855000000000018e+03
1.170000000000000068e-01 1.352900000000000214e-01 4.081804999999999950e+01 1.728000000000000114e+02 2.068704999999999927e+03
1.180000000000000077e-01 1.352734999999999910e-01 3.996175000000000210e+01 1.721100000000000136e+02 2.068534999999999854e+03
1.190000000000000085e-01 1.352559999999999873e-01 3.911105000000000587e+01 1.714080000000000155e+02 2.068355000000000018e+03
1.200000000000000094e-01 1.352375000000000105e-01 3.827199999999999847e+01 1.707049999999999841e+02 2.068164999999999964e+03
1.209999999999999964e-01 1.352190000000000059e-01 3.744929999999999382e+01 1.700090000000000146e+02 2.067965000000000146e+03
1.219999999999999973e-01 1.351999999999999869e-01 3.664594999999999914e+01 1.693254999999999768e+02 2.067769999999999982e+03
1.229999999999999982e-01 1.351809999999999956e-01 3.586379999999999768e+01 1.686555000000000177e+02 2.067570000000000164e+03
1.239999999999999991e-01 1.351620000000000044e-01 3.510309999999999775e+01 1.679970000000000141e+02 2.067369999999999891e+03
1.250000000000000000e-01 1.351434999999999997e-01 3.436280000000000001e+01 1.673455000000000155e+02 2.067170000000000073e+03
1.260000000000000009e-01 1.351244999999999807e-01 3.364059999999999917e+01 1.666940000000000168e+02 2.066970000000000255e+03
1.270000000000000018e-01 1.351050000000000029e-01 3.293330000000000268e+01 1.660330000000000155e+02 2.066769999999999982e+03
1.280000000000000027e-01 1.350859999999999839e-01 3.223680000000000234e+01 1.653520000000000039e+02 2.066559999999999945e+03
1.290000000000000036e-01 1.350655000000000050e-01 3.154649999999999821e+01 1.646394999999999982e+02 2.066344999999999800e+03
1.300000000000000044e-01 1.350439999999999974e-01 3.085750000000000171e+01 1.638845000000000027e+02 2.066119999999999891e+03
1.310000000000000053e-01 1.350220000000000031e-01 3.016485000000000127e+01 1.630745000000000005e+02 2.065885000000000218e+03
1.320000000000000062e-01 1.349974999999999925e-01 2.946385000000000076e+01 1.622004999999999768e+02 2.065630000000000109e+03
1.330000000000000071e-01 1.349720000000000086e-01 2.875025000000000119e+01 1.612514999999999930e+02 2.065360000000000127e+03
1.340000000000000080e-01 1.349440000000000084e-01 2.802069999999999794e+01 1.602230000000000132e+02 2.065070000000000164e+03
1.350000000000000089e-01 1.349135000000000195e-01 2.727264999999999873e+01 1.591100000000000136e+02 2.064750000000000000e+03
1.360000000000000098e-01 1.348810000000000009e-01 2.650469999999999970e+01 1.579105000000000132e+02 2.064414999999999964e+03
1.370000000000000107e-01 1.348455000000000070e-01 2.571685000000000088e+01 1.566285000000000025e+02 2.064045000000000073e+03
1.380000000000000115e-01 1.348084999999999978e-01 2.491024999999999778e+01 1.552680000000000007e+02 2.063659999999999854e+03
1.390000000000000124e-01 1.347689999999999999e-01 2.408745000000000047e+01 1.538375000000000057e+02 2.063250000000000000e+03
1.400000000000000133e-01 1.347275000000000000e-01 2.325219999999999843e+01 1.523494999999999777e+02 2.062819999999999709e+03
1.410000000000000142e-01 1.346849999999999992e-01 2.240950000000000131e+01 1.508170000000000073e+02 2.062369999999999891e+03
1.420000000000000151e-01 1.346400000000000097e-01 2.156499999999999773e+01 1.492560000000000002e+02 2.061914999999999964e+03
1.430000000000000160e-01 1.345954999999999790e-01 2.072520000000000095e+01 1.476845000000000141e+02 2.061445000000000164e+03
1.440000000000000169e-01 1.345500000000000029e-01 1.989699999999999847e+01 1.461204999999999927e+02 2.060970000000000255e+03
1.450000000000000178e-01 1.345044999999999991e-01 1.908735000000000070e+01 1.445815000000000055e+02 2.060500000000000000e+03
1.459999999999999909e-01 1.344600000000000239e-01 1.830294999999999916e+01 1.430844999999999914e+02 2.060029999999999745e+03
1.469999999999999918e-01 1.344159999999999799e-01 1.755010000000000048e+01 1.416449999999999818e+02 2.059574999999999818e+03
1.479999999999999927e-01 1.343739999999999934e-01 1.683425000000000082e+01 1.402764999999999986e+02 2.059130000000000109e+03
1.489999999999999936e-01 1.343334999999999946e-01 1.616005000000000180e+01 1.389875000000000114e+02 2.058710000000000036e+03
1.499999999999999944e-01 1.342949999999999977e-01 1.553099999999999881e+01 1.377884999999999991e+02 2.058309999999999945e+03
1.509999999999999953e-01 1.342590000000000172e-01 1.494944999999999879e+01 1.366820000000000164e+02 2.057930000000000291e+03
1.519999999999999962e-01 1.342260000000000120e-01 1.441675000000000040e+01 1.356705000000000041e+02 2.057579999999999927e+03
1.529999999999999971e-01 1.341944999999999943e-01 1.393290000000000006e+01 1.347524999999999977e+02 2.057250000000000000e+03
1.539999999999999980e-01 1.341665000000000219e-01 1.349714999999999954e+01 1.339254999999999995e+02 2.056954999999999927e+03
1.549999999999999989e-01 1.341404999999999959e-01 1.310769999999999946e+01 1.331829999999999927e+02 2.056680000000000291e+03
1.559999999999999998e-01 1.341175000000000006e-01 1.276200000000000045e+01 1.325194999999999936e+02 2.056430000000000291e+03
1.570000000000000007e-01 1.340959999999999930e-01 1.245700000000000074e+01 1.319265000000000043e+02 2.056204999999999927e+03
1.580000000000000016e-01 1.340770000000000017e-01 1.218915000000000148e+01 1.313959999999999866e+02 2.056005000000000109e+03
1.590000000000000024e-01 1.340589999999999837e-01 1.195455000000000112e+01 1.309190000000000111e+02 2.055819999999999709e+03
