# t [s], A [cm^2], U [cm/s], P [cPa], c [cm/s]
1.000000000000000021e-03 1.656310000000000004e-01 3.231545000000000112e-01 9.919129999999999825e+01 2.100445000000000164e+03
2.000000000000000042e-03 1.655909999999999882e-01 1.841293999999999986e+00 9.584534999999999627e+01 2.100025000000000091e+03
3.000000000000000062e-03 1.654780000000000140e-01 3.707288500000000209e+00 9.128804999999999836e+01 2.098869999999999891e+03
4.000000000000000083e-03 1.653205000000000091e-01 5.798477499999999729e+00 8.635515000000000896e+01 2.097279999999999745e+03
5.000000000000000104e-03 1.651499999999999913e-01 8.042065000000000907e+00 8.193639999999999191e+01 2.095574999999999818e+03
6.000000000000000125e-03 1.649835000000000051e-01 1.026479499999999945e+01 7.831895000000000095e+01 2.093929999999999836e+03
7.000000000000000146e-03 1.648275000000000157e-01 1.225863000000000014e+01 7.525159999999999627e+01 2.092409999999999854e+03
8.000000000000000167e-03 1.646825000000000094e-01 1.394290499999999966e+01 7.250010000000000332e+01 2.091030000000000200e+03
9.000000000000001055e-03 1.645555000000000212e-01 1.535224999999999973e+01 7.011015000000000441e+01 2.089835000000000036e+03
1.000000000000000194e-02 1.644464999999999955e-01 1.652084999999999937e+01 6.815720000000000312e+01 2.088824999999999818e+03
1.099999999999999936e-02 1.643570000000000031e-01 1.746269999999999811e+01 6.661805000000001087e+01 2.088005000000000109e+03
1.200000000000000025e-02 1.642855000000000010e-01 1.818720000000000070e+01 6.542085000000000150e+01 2.087355000000000018e+03
1.300000000000000114e-02 1.642280000000000129e-01 1.869495000000000218e+01 6.445404999999999518e+01 2.086835000000000036e+03
1.400000000000000203e-02 1.641794999999999782e-01 1.899810000000000088e+01 6.360174999999999557e+01 2.086420000000000073e+03
1.499999999999999944e-02 1.641400000000000081e-01 1.916365000000000052e+01 6.287534999999999741e+01 2.086079999999999927e+03
1.600000000000000033e-02 1.641124999999999945e-01 1.932310000000000016e+01 6.250204999999999700e+01 2.085850000000000364e+03
1.700000000000000122e-02 1.641050000000000009e-01 1.962095000000000056e+01 6.283474999999999966e+01 2.085800000000000182e+03
1.800000000000000211e-02 1.641249999999999931e-01 2.013940000000000197e+01 6.413015000000000043e+01 2.085989999999999782e+03
1.900000000000000300e-02 1.641739999999999866e-01 2.085385000000000133e+01 6.636010000000000275e+01 2.086440000000000055e+03
2.000000000000000042e-02 1.642454999999999887e-01 2.164264999999999972e+01 6.917375000000001251e+01 2.087114999999999782e+03
2.100000000000000130e-02 1.643284999999999885e-01 2.233939999999999770e+01 7.201824999999999477e+01 2.087894999999999982e+03
2.200000000000000219e-02 1.644074999999999842e-01 2.279679999999999751e+01 7.433880000000000621e+01 2.088654999999999745e+03
2.299999999999999961e-02 1.644704999999999917e-01 2.293480000000000274e+01 7.576165000000000305e+01 2.089269999999999982e+03
2.400000000000000050e-02 1.645105000000000040e-01 2.275690000000000168e+01 7.619060000000000343e+01 2.089670000000000073e+03
2.500000000000000139e-02 1.645270000000000066e-01 2.233505000000000251e+01 7.579345000000000709e+01 2.089849999999999909e+03
2.600000000000000228e-02 1.645240000000000036e-01 2.177260000000000062e+01 7.489955000000000496e+01 2.089844999999999800e+03
2.700000000000000316e-02 1.645095000000000030e-01 2.116404999999999959e+01 7.386064999999999259e+01 2.089724999999999909e+03
2.800000000000000058e-02 1.644909999999999983e-01 2.056579999999999941e+01 7.293020000000001346e+01 2.089559999999999945e+03
2.900000000000000147e-02 1.644720000000000071e-01 1.998659999999999926e+01 7.220125000000000171e+01 2.089385000000000218e+03
3.000000000000000236e-02 1.644545000000000035e-01 1.939699999999999847e+01 7.161320000000000618e+01 2.089219999999999800e+03
3.099999999999999978e-02 1.644364999999999855e-01 1.875159999999999982e+01 7.101179999999999382e+01 2.089055000000000291e+03
3.200000000000000067e-02 1.644140000000000046e-01 1.801420000000000243e+01 7.023429999999999040e+01 2.088849999999999909e+03
3.300000000000000155e-02 1.643855000000000177e-01 1.717845000000000155e+01 6.918895000000000550e+01 2.088585000000000036e+03
3.400000000000000244e-02 1.643494999999999817e-01 1.627725000000000222e+01 6.790404999999999802e+01 2.088255000000000109e+03
3.500000000000000333e-02 1.643084999999999962e-01 1.537869999999999848e+01 6.653294999999999959e+01 2.087880000000000109e+03
3.600000000000000422e-02 1.642684999999999840e-01 1.457025000000000148e+01 6.531584999999999752e+01 2.087505000000000109e+03
3.700000000000000511e-02 1.642354999999999787e-01 1.393590000000000018e+01 6.451194999999999879e+01 2.087189999999999600e+03
3.799999999999999906e-02 1.642160000000000009e-01 1.353485000000000049e+01 6.432514999999999361e+01 2.086994999999999891e+03
3.899999999999999994e-02 1.642149999999999999e-01 1.338640000000000008e+01 6.484579999999999700e+01 2.086975000000000364e+03
4.000000000000000083e-02 1.642334999999999767e-01 1.346570000000000000e+01 6.602524999999999977e+01 2.087125000000000000e+03
4.100000000000000172e-02 1.642695000000000127e-01 1.370974999999999966e+01 6.768564999999999543e+01 2.087444999999999709e+03
4.200000000000000261e-02 1.643169999999999908e-01 1.403095000000000070e+01 6.955924999999999159e+01 2.087875000000000000e+03
4.300000000000000350e-02 1.643689999999999873e-01 1.433375000000000021e+01 7.134290000000000020e+01 2.088360000000000127e+03
4.400000000000000439e-02 1.644174999999999942e-01 1.453030000000000044e+01 7.275345000000000084e+01 2.088815000000000055e+03
4.499999999999999833e-02 1.644550000000000178e-01 1.455225000000000080e+01 7.357205000000000439e+01 2.089170000000000073e+03
4.599999999999999922e-02 1.644754999999999967e-01 1.435699999999999932e+01 7.366859999999999786e+01 2.089369999999999891e+03
4.700000000000000011e-02 1.644760000000000111e-01 1.392824999999999847e+01 7.300735000000000241e+01 2.089385000000000218e+03
4.800000000000000100e-02 1.644545000000000035e-01 1.327254999999999896e+01 7.163394999999999868e+01 2.089194999999999709e+03
4.900000000000000189e-02 1.644125000000000170e-01 1.241310000000000002e+01 6.965250000000000341e+01 2.088809999999999945e+03
5.000000000000000278e-02 1.643519999999999981e-01 1.138321999999999967e+01 6.719859999999999900e+01 2.088255000000000109e+03
5.100000000000000366e-02 1.642770000000000064e-01 1.022062500000000007e+01 6.441570000000000107e+01 2.087560000000000400e+03
5.200000000000000455e-02 1.641905000000000170e-01 8.964024999999999466e+00 6.143885000000000218e+01 2.086755000000000109e+03
5.300000000000000544e-02 1.640969999999999929e-01 7.651505000000000223e+00 5.838685000000000258e+01 2.085880000000000109e+03
5.399999999999999939e-02 1.639990000000000059e-01 6.320315000000000794e+00 5.536190000000000566e+01 2.084965000000000146e+03
5.500000000000000028e-02 1.639009999999999911e-01 5.008104999999999585e+00 5.245409999999999684e+01 2.084050000000000182e+03
5.600000000000000117e-02 1.638060000000000072e-01 3.753582999999999892e+00 4.974814999999999543e+01 2.083149999999999636e+03
5.700000000000000205e-02 1.637160000000000004e-01 2.597052500000000208e+00 4.732789999999999964e+01 2.082309999999999945e+03
5.800000000000000294e-02 1.636345000000000161e-01 1.579889999999999795e+00 4.527929999999999922e+01 2.081539999999999964e+03
5.900000000000000383e-02 1.635655000000000026e-01 7.431100000000000483e-01 4.368925000000000125e+01 2.080880000000000109e+03
6.000000000000000472e-02 1.635105000000000031e-01 1.252050000000000107e-01 4.264074999999999704e+01 2.080355000000000018e+03
6.099999999999999867e-02 1.634734999999999938e-01 -2.404524999999999579e-01 4.220735000000000525e+01 2.079989999999999782e+03
6.199999999999999956e-02 1.634554999999999758e-01 -3.281124000000000263e-01 4.244519999999999982e+01 2.079804999999999836e+03
6.300000000000000044e-02 1.634594999999999798e-01 -1.217110000000000136e-01 4.338770000000000238e+01 2.079824999999999818e+03
6.400000000000000133e-02 1.634859999999999924e-01 3.838024999999999909e-01 4.504044999999999987e+01 2.080050000000000182e+03
6.500000000000000222e-02 1.635355000000000003e-01 1.182064499999999851e+00 4.738034999999999997e+01 2.080494999999999891e+03
6.600000000000000311e-02 1.636075000000000168e-01 2.255772449999999818e+00 5.035649999999999693e+01 2.081139999999999873e+03
6.700000000000000400e-02 1.637004999999999988e-01 3.577977000000000185e+00 5.389379999999999882e+01 2.081989999999999782e+03
6.800000000000000488e-02 1.638114999999999988e-01 5.113945000000000185e+00 5.789894999999999925e+01 2.083014999999999873e+03
6.900000000000000577e-02 1.639384999999999870e-01 6.823459999999999859e+00 6.226670000000000016e+01 2.084190000000000055e+03
7.000000000000000666e-02 1.640785000000000160e-01 8.663285000000000124e+00 6.688745000000000118e+01 2.085489999999999782e+03
7.100000000000000755e-02 1.642279999999999851e-01 1.058962000000000003e+01 7.165395000000000891e+01 2.086885000000000218e+03
7.200000000000000844e-02 1.643830000000000013e-01 1.256050000000000111e+01 7.646809999999999263e+01 2.088345000000000255e+03
7.300000000000000933e-02 1.645415000000000072e-01 1.453780000000000072e+01 8.124575000000000102e+01 2.089829999999999927e+03
7.399999999999999634e-02 1.647000000000000131e-01 1.648900000000000077e+01 8.592074999999999818e+01 2.091329999999999927e+03
7.499999999999999722e-02 1.648574999999999902e-01 1.838789999999999836e+01 9.044724999999999682e+01 2.092824999999999818e+03
7.599999999999999811e-02 1.650109999999999910e-01 2.021559999999999846e+01 9.479994999999999550e+01 2.094284999999999854e+03
7.699999999999999900e-02 1.651610000000000023e-01 2.196034999999999826e+01 9.897230000000000416e+01 2.095710000000000036e+03
7.799999999999999989e-02 1.653060000000000085e-01 2.361659999999999826e+01 1.029749000000000052e+02 2.097100000000000364e+03
7.900000000000000078e-02 1.654464999999999963e-01 2.518449999999999989e+01 1.068308000000000106e+02 2.098449999999999818e+03
8.000000000000000167e-02 1.655829999999999802e-01 2.666805000000000092e+01 1.105699999999999932e+02 2.099760000000000218e+03
8.100000000000000255e-02 1.657160000000000022e-01 2.807414999999999949e+01 1.142259999999999991e+02 2.101045000000000073e+03
8.200000000000000344e-02 1.658469999999999944e-01 2.941075000000000017e+01 1.178315000000000055e+02 2.102300000000000182e+03
8.300000000000000433e-02 1.659760000000000124e-01 3.068564999999999898e+01 1.214130000000000109e+02 2.103555000000000291e+03
8.400000000000000522e-02 1.661044999999999883e-01 3.190559999999999974e+01 1.249894999999999925e+02 2.104795000000000073e+03
8.500000000000000611e-02 1.662325000000000053e-01 3.307520000000000238e+01 1.285709999999999980e+02 2.106029999999999745e+03
8.600000000000000699e-02 1.663605000000000222e-01 3.419669999999999987e+01 1.321570000000000107e+02 2.107265000000000327e+03
8.700000000000000788e-02 1.664884999999999837e-01 3.526970000000000027e+01 1.357369999999999948e+02 2.108505000000000109e+03
8.800000000000000877e-02 1.666154999999999997e-01 3.629089999999999350e+01 1.392934999999999945e+02 2.109735000000000127e+03
8.899999999999999578e-02 1.667414999999999869e-01 3.725495000000000090e+01 1.427990000000000066e+02 2.110960000000000036e+03
8.999999999999999667e-02 1.668649999999999856e-01 3.815434999999999377e+01 1.462249999999999943e+02 2.112159999999999854e+03
9.099999999999999756e-02 1.669869999999999965e-01 3.898005000000000564e+01 1.495349999999999966e+02 2.113340000000000146e+03
9.199999999999999845e-02 1.671040000000000025e-01 3.972214999999999918e+01 1.526940000000000168e+02 2.114484999999999673e+03
9.299999999999999933e-02 1.672160000000000035e-01 4.037019999999999698e+01 1.556684999999999945e+02 2.115579999999999927e+03
9.400000000000000022e-02 1.673219999999999985e-01 4.091420000000000101e+01 1.584230000000000018e+02 2.116614999999999782e+03
9.500000000000000111e-02 1.674215000000000009e-01 4.134459999999999980e+01 1.609290000000000020e+02 2.117579999999999927e+03
9.600000000000000200e-02 1.675119999999999942e-01 4.165330000000000155e+01 1.631610000000000014e+02 2.118470000000000255e+03
9.700000000000000289e-02 1.675935000000000064e-01 4.183400000000000318e+01 1.650989999999999895e+02 2.119274999999999636e+03
9.800000000000000377e-02 1.676654999999999951e-01 4.188244999999999862e+01 1.667305000000000064e+02 2.119984999999999673e+03
9.900000000000000466e-02 1.677270000000000150e-01 4.179729999999999990e+01 1.680484999999999900e+02 2.120595000000000255e+03
1.000000000000000056e-01 1.677784999999999971e-01 4.157965000000000089e+01 1.690550000000000068e+02 2.121110000000000127e+03
1.010000000000000064e-01 1.678195000000000103e-01 4.123380000000000223e+01 1.697595000000000027e+02 2.121525000000000091e+03
1.020000000000000073e-01 1.678505000000000136e-01 4.076689999999999969e+01 1.701775000000000091e+02 2.121840000000000146e+03
1.030000000000000082e-01 1.678719999999999934e-01 4.018864999999999554e+01 1.703324999999999818e+02 2.122054999999999836e+03
1.040000000000000091e-01 1.678839999999999777e-01 3.951144999999999641e+01 1.702529999999999859e+02 2.122189999999999600e+03
1.050000000000000100e-01 1.678884999999999961e-01 3.874925000000000352e+01 1.699724999999999966e+02 2.122239999999999782e+03
1.059999999999999970e-01 1.678854999999999931e-01 3.791750000000000398e+01 1.695254999999999939e+02 2.122224999999999909e+03
1.069999999999999979e-01 1.678764999999999841e-01 3.703215000000000146e+01 1.689490000000000123e+02 2.122150000000000091e+03
1.079999999999999988e-01 1.678629999999999844e-01 3.610944999999999538e+01 1.682789999999999964e+02 2.122019999999999982e+03
1.089999999999999997e-01 1.678455000000000086e-01 3.516479999999999961e+01 1.675494999999999948e+02 2.121860000000000127e+03
1.100000000000000006e-01 1.678255000000000163e-01 3.421255000000000024e+01 1.667899999999999920e+02 2.121670000000000073e+03
1.110000000000000014e-01 1.678040000000000087e-01 3.326554999999999751e+01 1.660264999999999986e+02 2.121460000000000036e+03
1.120000000000000023e-01 1.677815000000000001e-01 3.233449999999999847e+01 1.652789999999999964e+02 2.121239999999999782e+03
1.130000000000000032e-01 1.677585000000000048e-01 3.142764999999999986e+01 1.645629999999999882e+02 2.121019999999999982e+03
1.140000000000000041e-01 1.677359999999999962e-01 3.055120000000000147e+01 1.638859999999999957e+02 2.120805000000000291e+03
1.150000000000000050e-01 1.677144999999999886e-01 2.970855000000000246e+01 1.632510000000000048e+02 2.120595000000000255e+03
1.160000000000000059e-01 1.676940000000000097e-01 2.890064999999999884e+01 1.626544999999999845e+02 2.120389999999999873e+03
1.170000000000000068e-01 1.676739999999999897e-01 2.812630000000000052e+01 1.620894999999999868e+02 2.120190000000000055e+03
1.180000000000000077e-01 1.676544999999999841e-01 2.738219999999999743e+01 1.615430000000000064e+02 2.120000000000000000e+03
1.190000000000000085e-01 1.676354999999999928e-01 2.666340000000000288e+01 1.610010000000000048e+02 2.119809999999999945e+03
1.200000000000000094e-01 1.676159999999999872e-01 2.596359999999999957e+01 1.604445000000000050e+02 2.119619999999999891e+03
1.209999999999999964e-01 1.675964999999999816e-01 2.527570000000000050e+01 1.598555000000000064e+02 2.119425000000000182e+03
1.219999999999999973e-01 1.675754999999999884e-01 2.459215000000000018e+01 1.592155000000000200e+02 2.119215000000000146e+03
1.229999999999999982e-01 1.675524999999999931e-01 2.390559999999999974e+01 1.585060000000000002e+02 2.118994999999999891e+03
1.239999999999999991e-01 1.675274999999999959e-01 2.320909999999999940e+01 1.577125000000000057e+02 2.118750000000000000e+03
1.250000000000000000e-01 1.674994999999999956e-01 2.249670000000000059e+01 1.568224999999999909e+02 2.118474999999999909e+03
1.260000000000000009e-01 1.674684999999999924e-01 2.176379999999999981e+01 1.558279999999999745e+02 2.118175000000000182e+03
1.270000000000000018e-01 1.674339999999999995e-01 2.100755000000000194e+01 1.547239999999999895e+02 2.117845000000000255e+03
1.280000000000000027e-01 1.673965000000000036e-01 2.022674999999999912e+01 1.535124999999999886e+02 2.117480000000000018e+03
1.290000000000000036e-01 1.673554999999999904e-01 1.942239999999999966e+01 1.522005000000000052e+02 2.117079999999999927e+03
1.300000000000000044e-01 1.673109999999999875e-01 1.859730000000000061e+01 1.507975000000000136e+02 2.116650000000000091e+03
1.310000000000000053e-01 1.672635000000000094e-01 1.775635000000000119e+01 1.493209999999999980e+02 2.116190000000000055e+03
1.320000000000000062e-01 1.672135000000000149e-01 1.690605000000000047e+01 1.477889999999999873e+02 2.115704999999999927e+03
1.330000000000000071e-01 1.671620000000000050e-01 1.605434999999999945e+01 1.462255000000000109e+02 2.115204999999999927e+03
1.340000000000000080e-01 1.671090000000000075e-01 1.521020000000000039e+01 1.446555000000000177e+02 2.114694999999999709e+03
1.350000000000000089e-01 1.670560000000000100e-01 1.438329999999999842e+01 1.431039999999999850e+02 2.114180000000000291e+03
1.360000000000000098e-01 1.670030000000000125e-01 1.358344999999999914e+01 1.415969999999999800e+02 2.113675000000000182e+03
1.370000000000000107e-01 1.669515000000000027e-01 1.282005000000000017e+01 1.401589999999999918e+02 2.113175000000000182e+03
1.380000000000000115e-01 1.669025000000000092e-01 1.210186999999999991e+01 1.388104999999999905e+02 2.112694999999999709e+03
1.390000000000000124e-01 1.668554999999999899e-01 1.143658999999999892e+01 1.375704999999999814e+02 2.112239999999999782e+03
1.400000000000000133e-01 1.668120000000000158e-01 1.083034500000000122e+01 1.364524999999999864e+02 2.111819999999999709e+03
1.410000000000000142e-01 1.667724999999999902e-01 1.028781500000000015e+01 1.354669999999999845e+02 2.111429999999999836e+03
1.420000000000000151e-01 1.667369999999999963e-01 9.811735000000000539e+00 1.346179999999999950e+02 2.111085000000000036e+03
1.430000000000000160e-01 1.667060000000000208e-01 9.403150000000000119e+00 1.339064999999999941e+02 2.110774999999999636e+03
1.440000000000000169e-01 1.666795000000000082e-01 9.061270000000000380e+00 1.333290000000000077e+02 2.110515000000000327e+03
1.450000000000000178e-01 1.666569999999999996e-01 8.783799999999999386e+00 1.328774999999999977e+02 2.110289999999999964e+03
1.459999999999999909e-01 1.666385000000000227e-01 8.566974999999999341e+00 1.325420000000000016e+02 2.110105000000000018e+03
1.469999999999999918e-01 1.666245000000000087e-01 8.405840000000001311e+00 1.323095000000000141e+02 2.109960000000000036e+03
1.479999999999999927e-01 1.666134999999999977e-01 8.294529999999999959e+00 1.321655000000000086e+02 2.109850000000000364e+03
1.489999999999999936e-01 1.666055000000000175e-01 8.226535000000000153e+00 1.320949999999999989e+02 2.109764999999999873e+03
1.499999999999999944e-01 1.665999999999999981e-01 8.194950000000000401e+00 1.320824999999999818e+02 2.109715000000000146e+03
1.509999999999999953e-01 1.665969999999999951e-01 8.192764999999999631e+00 1.321119999999999948e+02 2.109675000000000182e+03
1.519999999999999962e-01 1.665955000000000075e-01 8.213060000000000471e+00 1.321699999999999875e+02 2.109659999999999854e+03
1.529999999999999971e-01 1.665955000000000075e-01 8.249230000000000729e+00 1.322434999999999832e+02 2.109649999999999636e+03
1.539999999999999980e-01 1.665955000000000075e-01 8.295139999999999958e+00 1.323199999999999932e+02 2.109655000000000200e+03
1.549999999999999989e-01 1.665964999999999807e-01 8.345285000000000508e+00 1.323894999999999982e+02 2.109654999999999745e+03
1.559999999999999998e-01 1.665975000000000095e-01 8.394890000000000185e+00 1.324445000000000050e+02 2.109664999999999964e+03
1.570000000000000007e-01 1.665979999999999961e-01 8.439975000000000449e+00 1.324789999999999850e+02 2.109670000000000073e+03
1.580000000000000016e-01 1.665979999999999961e-01 8.477415000000000589e+00 1.324879999999999995e+02 2.109670000000000073e+03
1.590000000000000024e-01 1.665979999999999961e-01 8.504944999999999311e+00 1.324694999999999823e+02 2.109664999999999964e+03
