# t [s], A [cm^2], U [cm/s], P [cPa], c [cm/s]
1.000000000000000021e-03 6.235604999999999620e-01 5.157949999999994484e-03 1.039899999999999949e+02 1.668375000000000000e+03
2.000000000000000042e-03 6.235515000000000363e-01 3.506099999999998974e-04 1.039635000000000105e+02 1.668365000000000009e+03
3.000000000000000062e-03 6.236059999999999937e-01 9.991674999999999862e-02 1.040765000000000100e+02 1.668400000000000091e+03
4.000000000000000083e-03 6.236494999999999678e-01 1.898353999999999875e-01 1.041945000000000050e+02 1.668430000000000064e+03
5.000000000000000104e-03 6.236220000000000097e-01 1.571790549999999842e-01 1.041264999999999930e+02 1.668414999999999964e+03
6.000000000000000125e-03 6.235619999999999497e-01 6.176249999999999796e-02 1.039029999999999916e+02 1.668364999999999782e+03
7.000000000000000146e-03 6.235079999999999512e-01 -3.212999999999999190e-02 1.036135000000000019e+02 1.668295000000000073e+03
8.000000000000000167e-03 6.234195000000000153e-01 -2.018400000000000194e-01 1.031750000000000114e+02 1.668194999999999936e+03
9.000000000000001055e-03 6.232710000000000194e-01 -4.970750000000001556e-01 1.024979999999999905e+02 1.668030000000000200e+03
1.000000000000000194e-02 6.230569999999999720e-01 -9.269200000000000772e-01 1.015289500000000089e+02 1.667799999999999955e+03
1.099999999999999936e-02 6.227575000000000749e-01 -1.515009999999999968e+00 1.001929999999999978e+02 1.667480000000000018e+03
1.200000000000000025e-02 6.223684999999999912e-01 -2.250144999999999840e+00 9.845439999999999259e+01 1.667045000000000073e+03
1.300000000000000114e-02 6.219304999999999417e-01 -3.032189999999999941e+00 9.640364999999999895e+01 1.666525000000000091e+03
1.400000000000000203e-02 6.215079999999999494e-01 -3.703339999999999854e+00 9.424639999999999418e+01 1.665954999999999927e+03
1.499999999999999944e-02 6.211554999999999715e-01 -4.127791999999999462e+00 9.220564999999999145e+01 1.665394999999999982e+03
1.600000000000000033e-02 6.208879999999999955e-01 -4.246822500000000389e+00 9.042375000000001251e+01 1.664875000000000000e+03
1.700000000000000122e-02 6.206855000000000011e-01 -4.084719999999999906e+00 8.892714999999999748e+01 1.664405000000000200e+03
1.800000000000000211e-02 6.205095000000000471e-01 -3.720518999999999910e+00 8.764250000000001251e+01 1.663980000000000018e+03
1.900000000000000300e-02 6.203180000000000360e-01 -3.248307500000000125e+00 8.644429999999999836e+01 1.663575000000000045e+03
2.000000000000000042e-02 6.200849999999999973e-01 -2.742236000000000118e+00 8.521049999999999613e+01 1.663160000000000082e+03
2.100000000000000130e-02 6.198034999999999517e-01 -2.236275000000000013e+00 8.386535000000000650e+01 1.662724999999999909e+03
2.200000000000000219e-02 6.194850000000000634e-01 -1.723465000000000025e+00 8.239705000000000723e+01 1.662264999999999873e+03
2.299999999999999961e-02 6.191519999999999246e-01 -1.172684999999999977e+00 8.084694999999999254e+01 1.661779999999999973e+03
2.400000000000000050e-02 6.188234999999999708e-01 -5.534350000000001213e-01 7.927799999999999159e+01 1.661284999999999854e+03
2.500000000000000139e-02 6.185100000000000042e-01 1.424549999999999983e-01 7.773924999999999841e+01 1.660799999999999955e+03
2.600000000000000228e-02 6.182054999999999634e-01 8.900000000000001243e-01 7.624039999999999395e+01 1.660315000000000055e+03
2.700000000000000316e-02 6.178919999999999968e-01 1.632719999999999949e+00 7.474230000000000018e+01 1.659835000000000036e+03
2.800000000000000058e-02 6.175439999999999818e-01 2.294439999999999813e+00 7.316559999999999775e+01 1.659329999999999927e+03
2.900000000000000147e-02 6.171355000000000590e-01 2.796875000000000000e+00 7.141140000000000043e+01 1.658795000000000073e+03
3.000000000000000236e-02 6.166500000000000314e-01 3.078445000000000320e+00 6.938960000000000150e+01 1.658194999999999936e+03
3.099999999999999978e-02 6.160809999999999897e-01 3.109184999999999643e+00 6.704635000000000389e+01 1.657525000000000091e+03
3.200000000000000067e-02 6.154399999999999871e-01 2.897904999999999731e+00 6.438345000000001050e+01 1.656769999999999982e+03
3.300000000000000155e-02 6.147515000000000063e-01 2.489250000000000185e+00 6.146305000000000263e+01 1.655954999999999927e+03
3.400000000000000244e-02 6.140499999999999847e-01 1.952900000000000080e+00 5.839834999999999354e+01 1.655095000000000027e+03
3.500000000000000333e-02 6.133699999999999708e-01 1.368669999999999831e+00 5.533384999999999820e+01 1.654230000000000018e+03
3.600000000000000422e-02 6.127449999999999841e-01 8.121799999999996800e-01 5.242175000000000296e+01 1.653389999999999873e+03
3.700000000000000511e-02 6.122009999999999952e-01 3.452000000000001734e-01 4.980114999999999981e+01 1.652619999999999891e+03
3.799999999999999906e-02 6.117544999999999789e-01 1.101499999999999702e-02 4.758384999999999820e+01 1.651940000000000055e+03
3.899999999999999994e-02 6.114150000000000418e-01 -1.652649999999997732e-01 4.584725000000000250e+01 1.651384999999999991e+03
4.000000000000000083e-02 6.111854999999999372e-01 -1.729899999999999771e-01 4.463465000000000060e+01 1.650964999999999918e+03
4.100000000000000172e-02 6.110640000000000516e-01 -1.065000000000004832e-02 4.396049999999999613e+01 1.650690000000000055e+03
4.200000000000000261e-02 6.110484999999999944e-01 3.194474999999999953e-01 4.381860000000000355e+01 1.650565000000000055e+03
4.300000000000000350e-02 6.111334999999999962e-01 8.150785000000000391e-01 4.419044999999999845e+01 1.650585000000000036e+03
4.400000000000000439e-02 6.113159999999999705e-01 1.475841500000000028e+00 4.505230000000000246e+01 1.650744999999999891e+03
4.499999999999999833e-02 6.115920000000000245e-01 2.302700000000000191e+00 4.637854999999999706e+01 1.651039999999999964e+03
4.599999999999999922e-02 6.119575000000000431e-01 3.295825000000000227e+00 4.814239999999999498e+01 1.651464999999999918e+03
4.700000000000000011e-02 6.124069999999999236e-01 4.451849999999999419e+00 5.031435000000000457e+01 1.652014999999999873e+03
4.800000000000000100e-02 6.129339999999999788e-01 5.761410500000000212e+00 5.285930000000000462e+01 1.652675000000000182e+03
4.900000000000000189e-02 6.135284999999999211e-01 7.207933449999999631e+00 5.573434999999999917e+01 1.653434999999999945e+03
5.000000000000000278e-02 6.141780000000000017e-01 8.767573999999999756e+00 5.888830000000000098e+01 1.654279999999999973e+03
5.100000000000000366e-02 6.148694999999999578e-01 1.041062499999999957e+01 6.226215000000000543e+01 1.655204999999999927e+03
5.200000000000000455e-02 6.155880000000000241e-01 1.210412499999999980e+01 6.579210000000000491e+01 1.656179999999999836e+03
5.300000000000000544e-02 6.163205000000000489e-01 1.381416499999999914e+01 6.941289999999999338e+01 1.657194999999999936e+03
5.399999999999999939e-02 6.170534999999999215e-01 1.550890000000000057e+01 7.306250000000000000e+01 1.658230000000000018e+03
5.500000000000000028e-02 6.177779999999999383e-01 1.716066500000000161e+01 7.668565000000000964e+01 1.659275000000000091e+03
5.600000000000000117e-02 6.184844999999999926e-01 1.874739999999999895e+01 8.023730000000000473e+01 1.660315000000000055e+03
5.700000000000000205e-02 6.191689999999999694e-01 2.025335000000000107e+01 8.368460000000000321e+01 1.661329999999999927e+03
5.800000000000000294e-02 6.198285000000000045e-01 2.166895000000000238e+01 8.700749999999999318e+01 1.662324999999999818e+03
5.900000000000000383e-02 6.204635000000000566e-01 2.299040000000000106e+01 9.019835000000000491e+01 1.663285000000000082e+03
6.000000000000000472e-02 6.210759999999999614e-01 2.421835000000000093e+01 9.325964999999999350e+01 1.664215000000000146e+03
6.099999999999999867e-02 6.216690000000000271e-01 2.535715000000000074e+01 9.620289999999999964e+01 1.665119999999999891e+03
6.199999999999999956e-02 6.222460000000000768e-01 2.641324999999999790e+01 9.904595000000000482e+01 1.665994999999999891e+03
6.300000000000000044e-02 6.228115000000000734e-01 2.739439999999999742e+01 1.018086999999999875e+02 1.666849999999999909e+03
6.400000000000000133e-02 6.233699999999999797e-01 2.830849999999999866e+01 1.045131499999999960e+02 1.667690000000000055e+03
6.500000000000000222e-02 6.239244999999999930e-01 2.916290000000000049e+01 1.071784999999999997e+02 1.668509999999999991e+03
6.600000000000000311e-02 6.244775000000000187e-01 2.996349999999999980e+01 1.098209999999999980e+02 1.669329999999999927e+03
6.700000000000000400e-02 6.250295000000000156e-01 3.071410000000000196e+01 1.124499999999999886e+02 1.670134999999999991e+03
6.800000000000000488e-02 6.255815000000000126e-01 3.141639999999999944e+01 1.150699999999999932e+02 1.670945000000000164e+03
6.900000000000000577e-02 6.261315000000000630e-01 3.206960000000000122e+01 1.176784999999999997e+02 1.671744999999999891e+03
7.000000000000000666e-02 6.266774999999999984e-01 3.267085000000000150e+01 1.202650000000000006e+02 1.672545000000000073e+03
7.100000000000000755e-02 6.272145000000000081e-01 3.321515000000000128e+01 1.228149999999999977e+02 1.673329999999999927e+03
7.200000000000000844e-02 6.277384999999999771e-01 3.369634999999999536e+01 1.253075000000000045e+02 1.674099999999999909e+03
7.300000000000000933e-02 6.282445000000000945e-01 3.410734999999999673e+01 1.277194999999999965e+02 1.674855000000000018e+03
7.399999999999999634e-02 6.287270000000000358e-01 3.444114999999999327e+01 1.300264999999999986e+02 1.675579999999999927e+03
7.499999999999999722e-02 6.291815000000000602e-01 3.469089999999999918e+01 1.322035000000000196e+02 1.676264999999999873e+03
7.599999999999999811e-02 6.296040000000000525e-01 3.485099999999999909e+01 1.342275000000000205e+02 1.676909999999999854e+03
7.699999999999999900e-02 6.299894999999999801e-01 3.491700000000000159e+01 1.360790000000000077e+02 1.677509999999999991e+03
7.799999999999999989e-02 6.303360000000000074e-01 3.488604999999999734e+01 1.377415000000000020e+02 1.678055000000000064e+03
7.900000000000000078e-02 6.306415000000000770e-01 3.475719999999999743e+01 1.392035000000000196e+02 1.678545000000000073e+03
8.000000000000000167e-02 6.309044999999999792e-01 3.453125000000000000e+01 1.404590000000000032e+02 1.678969999999999800e+03
8.100000000000000255e-02 6.311255000000000059e-01 3.421099999999999852e+01 1.415045000000000073e+02 1.679340000000000146e+03
8.200000000000000344e-02 6.313050000000000050e-01 3.380105000000000359e+01 1.423439999999999941e+02 1.679644999999999982e+03
8.300000000000000433e-02 6.314450000000000340e-01 3.330785000000000196e+01 1.429855000000000018e+02 1.679900000000000091e+03
8.400000000000000522e-02 6.315479999999999983e-01 3.273930000000000007e+01 1.434399999999999977e+02 1.680085000000000036e+03
8.500000000000000611e-02 6.316169999999999840e-01 3.210495000000000232e+01 1.437235000000000014e+02 1.680224999999999909e+03
8.600000000000000699e-02 6.316559999999999953e-01 3.141544999999999987e+01 1.438545000000000016e+02 1.680315000000000055e+03
8.700000000000000788e-02 6.316684999999999661e-01 3.068220000000000169e+01 1.438534999999999968e+02 1.680360000000000127e+03
8.800000000000000877e-02 6.316610000000000280e-01 2.991720000000000113e+01 1.437425000000000068e+02 1.680365000000000009e+03
8.899999999999999578e-02 6.316360000000000863e-01 2.913254999999999839e+01 1.435444999999999993e+02 1.680339999999999918e+03
8.999999999999999667e-02 6.315990000000000215e-01 2.833980000000000032e+01 1.432824999999999989e+02 1.680299999999999955e+03
9.099999999999999756e-02 6.315539999999999488e-01 2.754979999999999762e+01 1.429780000000000086e+02 1.680230000000000018e+03
9.199999999999999845e-02 6.315044999999999131e-01 2.677199999999999847e+01 1.426499999999999773e+02 1.680150000000000091e+03
9.299999999999999933e-02 6.314535000000000009e-01 2.601429999999999865e+01 1.423145000000000095e+02 1.680065000000000055e+03
9.400000000000000022e-02 6.314035000000000064e-01 2.528255000000000052e+01 1.419855000000000018e+02 1.679974999999999909e+03
9.500000000000000111e-02 6.313554999999999584e-01 2.458060000000000045e+01 1.416725000000000136e+02 1.679884999999999991e+03
9.600000000000000200e-02 6.313104999999999967e-01 2.391009999999999991e+01 1.413799999999999955e+02 1.679800000000000182e+03
9.700000000000000289e-02 6.312685000000000102e-01 2.327055000000000007e+01 1.411094999999999970e+02 1.679720000000000027e+03
9.800000000000000377e-02 6.312290000000000401e-01 2.265974999999999895e+01 1.408584999999999923e+02 1.679639999999999873e+03
9.900000000000000466e-02 6.311895000000000699e-01 2.207370000000000232e+01 1.406209999999999809e+02 1.679565000000000055e+03
1.000000000000000056e-01 6.311495000000000299e-01 2.150730000000000075e+01 1.403899999999999864e+02 1.679490000000000009e+03
1.010000000000000064e-01 6.311054999999999859e-01 2.095459999999999923e+01 1.401539999999999964e+02 1.679414999999999964e+03
1.020000000000000073e-01 6.310565000000000202e-01 2.040915000000000035e+01 1.399029999999999916e+02 1.679335000000000036e+03
1.030000000000000082e-01 6.310000000000000053e-01 1.986439999999999984e+01 1.396254999999999882e+02 1.679250000000000000e+03
1.040000000000000091e-01 6.309335000000000360e-01 1.931419999999999959e+01 1.393100000000000023e+02 1.679154999999999973e+03
1.050000000000000100e-01 6.308564999999999312e-01 1.875300000000000011e+01 1.389495000000000005e+02 1.679045000000000073e+03
1.059999999999999970e-01 6.307670000000000776e-01 1.817620000000000147e+01 1.385339999999999918e+02 1.678924999999999955e+03
1.069999999999999979e-01 6.306635000000000435e-01 1.758054999999999879e+01 1.380595000000000141e+02 1.678789999999999964e+03
1.079999999999999988e-01 6.305475000000000385e-01 1.696389999999999887e+01 1.375240000000000009e+02 1.678635000000000218e+03
1.089999999999999997e-01 6.304190000000000627e-01 1.632584999999999908e+01 1.369279999999999973e+02 1.678465000000000146e+03
1.100000000000000006e-01 6.302780000000000049e-01 1.566750000000000043e+01 1.362750000000000057e+02 1.678275000000000091e+03
1.110000000000000014e-01 6.301280000000000214e-01 1.499145000000000039e+01 1.355715000000000146e+02 1.678079999999999927e+03
1.120000000000000023e-01 6.299699999999999189e-01 1.430170500000000011e+01 1.348265000000000100e+02 1.677865000000000009e+03
1.130000000000000032e-01 6.298070000000000057e-01 1.360372000000000092e+01 1.340525000000000091e+02 1.677639999999999873e+03
1.140000000000000041e-01 6.296420000000000350e-01 1.290382999999999925e+01 1.332624999999999886e+02 1.677409999999999854e+03
1.150000000000000050e-01 6.294779999999999820e-01 1.220925499999999886e+01 1.324719999999999800e+02 1.677179999999999836e+03
1.160000000000000059e-01 6.293185000000000029e-01 1.152763999999999989e+01 1.316970000000000027e+02 1.676949999999999818e+03
1.170000000000000068e-01 6.291670000000000318e-01 1.086671499999999924e+01 1.309524999999999864e+02 1.676730000000000018e+03
1.180000000000000077e-01 6.290265000000000439e-01 1.023406999999999911e+01 1.302545000000000073e+02 1.676519999999999982e+03
1.190000000000000085e-01 6.288989999999999858e-01 9.636715000000000586e+00 1.296170000000000186e+02 1.676320000000000164e+03
1.200000000000000094e-01 6.287880000000000136e-01 9.080685000000000784e+00 1.290509999999999877e+02 1.676139999999999873e+03
1.209999999999999964e-01 6.286940000000000861e-01 8.571125000000000327e+00 1.285674999999999955e+02 1.675985000000000127e+03
1.219999999999999973e-01 6.286190000000000389e-01 8.111620000000000275e+00 1.281724999999999852e+02 1.675855000000000018e+03
1.229999999999999982e-01 6.285635000000000527e-01 7.704420000000000712e+00 1.278705000000000069e+02 1.675744999999999891e+03
1.239999999999999991e-01 6.285270000000000579e-01 7.350274999999999892e+00 1.276615000000000038e+02 1.675664999999999964e+03
1.250000000000000000e-01 6.285084999999999145e-01 7.048424999999999940e+00 1.275434999999999945e+02 1.675605000000000018e+03
1.260000000000000009e-01 6.285074999999999967e-01 6.796765000000000612e+00 1.275114999999999981e+02 1.675579999999999927e+03
1.270000000000000018e-01 6.285209999999999964e-01 6.591969999999999885e+00 1.275579999999999927e+02 1.675570000000000164e+03
1.280000000000000027e-01 6.285484999999999545e-01 6.429719999999999658e+00 1.276730000000000018e+02 1.675585000000000036e+03
1.290000000000000036e-01 6.285865000000000480e-01 6.304959999999999454e+00 1.278460000000000036e+02 1.675615000000000009e+03
1.300000000000000044e-01 6.286329999999999973e-01 6.212130000000000152e+00 1.280645000000000095e+02 1.675660000000000082e+03
1.310000000000000053e-01 6.286855000000000082e-01 6.145440000000000680e+00 1.283159999999999741e+02 1.675724999999999909e+03
1.320000000000000062e-01 6.287409999999999943e-01 6.099085000000000534e+00 1.285899999999999750e+02 1.675789999999999964e+03
1.330000000000000071e-01 6.287985000000000380e-01 6.067484999999999573e+00 1.288745000000000118e+02 1.675865000000000009e+03
1.340000000000000080e-01 6.288549999999999418e-01 6.045429999999999637e+00 1.291589999999999918e+02 1.675940000000000055e+03
1.350000000000000089e-01 6.289089999999999403e-01 6.028219999999999246e+00 1.294345000000000141e+02 1.676019999999999982e+03
1.360000000000000098e-01 6.289595000000000047e-01 6.011770000000000280e+00 1.296940000000000168e+02 1.676090000000000146e+03
1.370000000000000107e-01 6.290055000000001062e-01 5.992634999999999934e+00 1.299320000000000164e+02 1.676159999999999854e+03
1.380000000000000115e-01 6.290469999999999118e-01 5.968085000000000306e+00 1.301444999999999936e+02 1.676220000000000027e+03
1.390000000000000124e-01 6.290819999999999190e-01 5.936075000000000657e+00 1.303285000000000196e+02 1.676275000000000091e+03
1.400000000000000133e-01 6.291109999999999758e-01 5.895205000000000695e+00 1.304825000000000159e+02 1.676325000000000045e+03
1.410000000000000142e-01 6.291349999999999998e-01 5.844720000000000582e+00 1.306075000000000159e+02 1.676365000000000009e+03
1.420000000000000151e-01 6.291530000000000733e-01 5.784425000000000594e+00 1.307044999999999959e+02 1.676400000000000091e+03
1.430000000000000160e-01 6.291660000000000030e-01 5.714624999999999844e+00 1.307744999999999891e+02 1.676425000000000182e+03
1.440000000000000169e-01 6.291750000000000398e-01 5.636055000000000703e+00 1.308210000000000264e+02 1.676445000000000164e+03
1.450000000000000178e-01 6.291805000000000314e-01 5.549789999999999779e+00 1.308474999999999966e+02 1.676460000000000036e+03
1.459999999999999909e-01 6.291824999999999779e-01 5.457164999999999822e+00 1.308559999999999945e+02 1.676464999999999918e+03
1.469999999999999918e-01 6.291824999999999779e-01 5.359690000000000509e+00 1.308514999999999873e+02 1.676469999999999800e+03
1.479999999999999927e-01 6.291804999999999204e-01 5.258924999999999628e+00 1.308365000000000009e+02 1.676469999999999800e+03
1.489999999999999936e-01 6.291774999999999451e-01 5.156439999999999912e+00 1.308129999999999882e+02 1.676469999999999800e+03
1.499999999999999944e-01 6.291740000000000110e-01 5.053695000000000270e+00 1.307860000000000014e+02 1.676464999999999918e+03
1.509999999999999953e-01 6.291700000000000070e-01 4.952004999999999768e+00 1.307554999999999836e+02 1.676460000000000036e+03
1.519999999999999962e-01 6.291664999999999619e-01 4.852459999999999773e+00 1.307244999999999777e+02 1.676449999999999818e+03
1.529999999999999971e-01 6.291619999999999990e-01 4.755894999999999762e+00 1.306929999999999836e+02 1.676444999999999936e+03
1.539999999999999980e-01 6.291579999999999950e-01 4.662885000000000169e+00 1.306614999999999895e+02 1.676434999999999945e+03
1.549999999999999989e-01 6.291545000000000609e-01 4.573735000000000106e+00 1.306299999999999955e+02 1.676424999999999955e+03
1.559999999999999998e-01 6.291504999999999459e-01 4.488490000000000535e+00 1.305970000000000084e+02 1.676420000000000073e+03
1.570000000000000007e-01 6.291450000000000653e-01 4.406995000000000218e+00 1.305620000000000118e+02 1.676409999999999854e+03
1.580000000000000016e-01 6.291394999999999627e-01 4.328945000000000043e+00 1.305229999999999961e+02 1.676394999999999982e+03
1.590000000000000024e-01 6.291325000000000944e-01 4.253924999999999734e+00 1.304784999999999968e+02 1.676384999999999991e+03
