# t [s], A [cm^2], U [cm/s], P [cPa], c [cm/s]
1.000000000000000021e-03 2.085144999999999915e-01 3.587508500000000100e-01 9.128494999999999493e+01 2.114994999999999891e+03
2.000000000000000042e-03 2.084509999999999974e-01 1.891109999999999847e+00 8.783924999999999272e+01 2.114565000000000055e+03
3.000000000000000062e-03 2.082930000000000059e-01 3.761162999999999812e+00 8.310094999999999743e+01 2.113525000000000091e+03
4.000000000000000083e-03 2.080850000000000199e-01 5.865900500000000406e+00 7.815324999999999989e+01 2.112175000000000182e+03
5.000000000000000104e-03 2.078705000000000136e-01 8.113220000000000098e+00 7.395040000000000191e+01 2.110795000000000073e+03
6.000000000000000125e-03 2.076689999999999925e-01 1.026768500000000017e+01 7.062054999999999438e+01 2.109515000000000327e+03
7.000000000000000146e-03 2.074830000000000008e-01 1.210098499999999966e+01 6.774840000000000373e+01 2.108364999999999782e+03
8.000000000000000167e-03 2.073165000000000147e-01 1.358877499999999827e+01 6.517414999999999736e+01 2.107345000000000255e+03
9.000000000000001055e-03 2.071749999999999980e-01 1.479619999999999891e+01 6.303764999999999930e+01 2.106489999999999782e+03
1.000000000000000194e-02 2.070595000000000074e-01 1.575114999999999910e+01 6.137635000000000218e+01 2.105805000000000291e+03
1.099999999999999936e-02 2.069690000000000141e-01 1.647220000000000084e+01 6.012845000000000084e+01 2.105274999999999636e+03
1.200000000000000025e-02 2.068995000000000140e-01 1.697569999999999979e+01 5.920994999999999919e+01 2.104875000000000000e+03
1.300000000000000114e-02 2.068464999999999887e-01 1.726489999999999725e+01 5.848290000000000077e+01 2.104574999999999818e+03
1.400000000000000203e-02 2.068030000000000146e-01 1.737959999999999994e+01 5.785864999999999725e+01 2.104335000000000036e+03
1.499999999999999944e-02 2.067729999999999846e-01 1.745175000000000054e+01 5.750350000000000250e+01 2.104180000000000291e+03
1.600000000000000033e-02 2.067674999999999930e-01 1.767275000000000063e+01 5.784774999999999778e+01 2.104159999999999854e+03
1.700000000000000122e-02 2.068010000000000126e-01 1.818449999999999989e+01 5.931180000000000518e+01 2.104364999999999782e+03
1.800000000000000211e-02 2.068780000000000063e-01 1.898505000000000109e+01 6.196809999999999974e+01 2.104824999999999818e+03
1.900000000000000300e-02 2.069914999999999949e-01 1.991615000000000180e+01 6.540004999999999313e+01 2.105510000000000218e+03
2.000000000000000042e-02 2.071195000000000119e-01 2.073284999999999911e+01 6.883600000000001273e+01 2.106289999999999964e+03
2.100000000000000130e-02 2.072360000000000035e-01 2.120625000000000071e+01 7.145615000000000805e+01 2.107010000000000218e+03
2.200000000000000219e-02 2.073174999999999879e-01 2.121105000000000018e+01 7.270744999999999436e+01 2.107529999999999745e+03
2.299999999999999961e-02 2.073530000000000095e-01 2.076079999999999970e+01 7.248510000000000275e+01 2.107775000000000091e+03
2.400000000000000050e-02 2.073440000000000005e-01 1.998465000000000202e+01 7.111995000000000289e+01 2.107744999999999891e+03
2.500000000000000139e-02 2.073035000000000017e-01 1.906200000000000117e+01 6.919675000000000864e+01 2.107525000000000091e+03
2.600000000000000228e-02 2.072490000000000165e-01 1.814890000000000114e+01 6.730230000000000246e+01 2.107199999999999818e+03
2.700000000000000316e-02 2.071959999999999913e-01 1.732764999999999844e+01 6.581555000000000177e+01 2.106880000000000109e+03
2.800000000000000058e-02 2.071525000000000172e-01 1.659475000000000122e+01 6.481634999999999991e+01 2.106609999999999673e+03
2.900000000000000147e-02 2.071169999999999956e-01 1.588415000000000177e+01 6.412469999999999004e+01 2.106390000000000327e+03
3.000000000000000236e-02 2.070845000000000047e-01 1.511105000000000054e+01 6.343070000000000164e+01 2.106195000000000164e+03
3.099999999999999978e-02 2.070464999999999944e-01 1.421740000000000137e+01 6.245490000000000208e+01 2.105960000000000036e+03
3.200000000000000067e-02 2.069964999999999999e-01 1.320400000000000063e+01 6.108025000000000659e+01 2.105670000000000073e+03
3.300000000000000155e-02 2.069354999999999944e-01 1.213980000000000103e+01 5.941414999999999935e+01 2.105300000000000182e+03
3.400000000000000244e-02 2.068705000000000127e-01 1.114540500000000023e+01 5.776449999999999818e+01 2.104914999999999964e+03
3.500000000000000333e-02 2.068139999999999978e-01 1.035770000000000124e+01 5.654039999999999822e+01 2.104559999999999945e+03
3.600000000000000422e-02 2.067785000000000040e-01 9.887775000000001313e+00 5.611619999999999919e+01 2.104335000000000036e+03
3.700000000000000511e-02 2.067745000000000000e-01 9.787105000000000388e+00 5.670704999999999529e+01 2.104300000000000182e+03
3.799999999999999906e-02 2.068070000000000186e-01 1.003176000000000023e+01 5.829644999999999300e+01 2.104470000000000255e+03
3.899999999999999994e-02 2.068714999999999860e-01 1.052760500000000121e+01 6.063374999999999915e+01 2.104849999999999909e+03
4.000000000000000083e-02 2.069584999999999897e-01 1.113226500000000030e+01 6.329394999999999527e+01 2.105355000000000018e+03
4.100000000000000172e-02 2.070514999999999994e-01 1.168524999999999991e+01 6.577519999999999811e+01 2.105914999999999964e+03
4.200000000000000261e-02 2.071334999999999982e-01 1.203790000000000049e+01 6.760290000000000532e+01 2.106414999999999964e+03
4.300000000000000350e-02 2.071894999999999987e-01 1.207665000000000077e+01 6.841490000000000293e+01 2.106765000000000327e+03
4.400000000000000439e-02 2.072080000000000033e-01 1.173520000000000074e+01 6.801109999999999900e+01 2.106885000000000218e+03
4.499999999999999833e-02 2.071815000000000184e-01 1.099650499999999909e+01 6.636320000000000618e+01 2.106744999999999891e+03
4.599999999999999922e-02 2.071105000000000029e-01 9.885754999999999626e+00 6.359000000000000341e+01 2.106329999999999927e+03
4.700000000000000011e-02 2.069989999999999886e-01 8.458085000000000520e+00 5.991165000000000163e+01 2.105664999999999964e+03
4.800000000000000100e-02 2.068544999999999967e-01 6.785549999999999748e+00 5.559685000000000343e+01 2.104805000000000291e+03
4.900000000000000189e-02 2.066855000000000220e-01 4.945894000000000013e+00 5.091764999999999475e+01 2.103784999999999854e+03
5.000000000000000278e-02 2.065009999999999901e-01 3.015284999999999549e+00 4.611860000000000070e+01 2.102670000000000073e+03
5.100000000000000366e-02 2.063105000000000078e-01 1.065190000000000081e+00 4.140409999999999968e+01 2.101514999999999873e+03
5.200000000000000455e-02 2.061215000000000130e-01 -8.377699999999999037e-01 3.693945000000000078e+01 2.100364999999999782e+03
5.300000000000000544e-02 2.059404999999999986e-01 -2.630479999999999929e+00 3.286110000000000042e+01 2.099260000000000218e+03
5.399999999999999939e-02 2.057734999999999981e-01 -4.251826000000000327e+00 2.928829999999999956e+01 2.098239999999999782e+03
5.500000000000000028e-02 2.056260000000000032e-01 -5.642449999999999299e+00 2.633230000000000004e+01 2.097335000000000036e+03
5.600000000000000117e-02 2.055024999999999769e-01 -6.746019999999999683e+00 2.409909999999999997e+01 2.096574999999999818e+03
5.700000000000000205e-02 2.054090000000000082e-01 -7.511995000000000644e+00 2.268655000000000044e+01 2.095989999999999782e+03
5.800000000000000294e-02 2.053484999999999894e-01 -7.899314999999999642e+00 2.217544999999999789e+01 2.095599999999999909e+03
5.900000000000000383e-02 2.053250000000000075e-01 -7.880214999999999748e+00 2.261970000000000169e+01 2.095435000000000400e+03
6.000000000000000472e-02 2.053399999999999948e-01 -7.443170000000000286e+00 2.403654999999999831e+01 2.095500000000000000e+03
6.099999999999999867e-02 2.053939999999999932e-01 -6.594495000000000218e+00 2.640054999999999907e+01 2.095805000000000291e+03
6.199999999999999956e-02 2.054860000000000020e-01 -5.358259999999999579e+00 2.964300000000000068e+01 2.096335000000000036e+03
6.300000000000000044e-02 2.056135000000000046e-01 -3.774549500000000002e+00 3.365540000000000020e+01 2.097085000000000036e+03
6.400000000000000133e-02 2.057720000000000105e-01 -1.896540000000000115e+00 3.829814999999999969e+01 2.098029999999999745e+03
6.500000000000000222e-02 2.059564999999999868e-01 2.131849999999997358e-01 4.341084999999999638e+01 2.099130000000000109e+03
6.600000000000000311e-02 2.061604999999999965e-01 2.486530000000000129e+00 4.882410000000000139e+01 2.100355000000000018e+03
6.700000000000000400e-02 2.063780000000000059e-01 4.853691500000000048e+00 5.436990000000000123e+01 2.101670000000000073e+03
6.800000000000000488e-02 2.066020000000000079e-01 7.246660000000000323e+00 5.989130000000000109e+01 2.103024999999999636e+03
6.900000000000000577e-02 2.068264999999999965e-01 9.602509999999998769e+00 6.524994999999999834e+01 2.104394999999999982e+03
7.000000000000000666e-02 2.070464999999999944e-01 1.186593500000000034e+01 7.033254999999999768e+01 2.105744999999999891e+03
7.100000000000000755e-02 2.072569999999999968e-01 1.399190000000000111e+01 7.505530000000000257e+01 2.107034999999999854e+03
7.200000000000000844e-02 2.074550000000000005e-01 1.594735000000000014e+01 7.936709999999999354e+01 2.108260000000000218e+03
7.300000000000000933e-02 2.076385000000000036e-01 1.771219999999999928e+01 8.325045000000000073e+01 2.109389999999999873e+03
7.399999999999999634e-02 2.078059999999999907e-01 1.927960000000000207e+01 8.672065000000000623e+01 2.110434999999999945e+03
7.499999999999999722e-02 2.079584999999999906e-01 2.065530000000000044e+01 8.982220000000000937e+01 2.111385000000000218e+03
7.599999999999999811e-02 2.080980000000000052e-01 2.185559999999999903e+01 9.262284999999999968e+01 2.112255000000000109e+03
7.699999999999999900e-02 2.082255000000000078e-01 2.290524999999999878e+01 9.520650000000000546e+01 2.113054999999999836e+03
7.799999999999999989e-02 2.083455000000000168e-01 2.383455000000000013e+01 9.766360000000000241e+01 2.113809999999999945e+03
7.900000000000000078e-02 2.084604999999999930e-01 2.467555000000000121e+01 1.000844500000000039e+02 2.114529999999999745e+03
8.000000000000000167e-02 2.085744999999999960e-01 2.546000000000000085e+01 1.025487500000000125e+02 2.115244999999999891e+03
8.100000000000000255e-02 2.086895000000000000e-01 2.621580000000000155e+01 1.051209999999999951e+02 2.115965000000000146e+03
8.200000000000000344e-02 2.088085000000000080e-01 2.696539999999999893e+01 1.078435000000000059e+02 2.116710000000000036e+03
8.300000000000000433e-02 2.089324999999999932e-01 2.772409999999999997e+01 1.107385000000000019e+02 2.117475000000000364e+03
8.400000000000000522e-02 2.090624999999999845e-01 2.849940000000000140e+01 1.138025000000000091e+02 2.118289999999999964e+03
8.500000000000000611e-02 2.091990000000000238e-01 2.929104999999999848e+01 1.170114999999999981e+02 2.119130000000000109e+03
8.600000000000000699e-02 2.093395000000000117e-01 3.009130000000000038e+01 1.203220000000000027e+02 2.120005000000000109e+03
8.700000000000000788e-02 2.094834999999999892e-01 3.088620000000000232e+01 1.236775000000000091e+02 2.120900000000000091e+03
8.800000000000000877e-02 2.096290000000000098e-01 3.165670000000000073e+01 1.270099999999999909e+02 2.121795000000000073e+03
8.899999999999999578e-02 2.097725000000000006e-01 3.238049999999999784e+01 1.302464999999999975e+02 2.122694999999999709e+03
8.999999999999999667e-02 2.099115000000000009e-01 3.303354999999999819e+01 1.333154999999999859e+02 2.123555000000000291e+03
9.099999999999999756e-02 2.100434999999999941e-01 3.359159999999999968e+01 1.361465000000000032e+02 2.124385000000000218e+03
9.199999999999999845e-02 2.101660000000000195e-01 3.403209999999999980e+01 1.386800000000000068e+02 2.125150000000000091e+03
9.299999999999999933e-02 2.102760000000000185e-01 3.433535000000000537e+01 1.408650000000000091e+02 2.125840000000000146e+03
9.400000000000000022e-02 2.103714999999999891e-01 3.448560000000000514e+01 1.426639999999999873e+02 2.126440000000000055e+03
9.500000000000000111e-02 2.104520000000000002e-01 3.447225000000000250e+01 1.440544999999999902e+02 2.126944999999999709e+03
9.600000000000000200e-02 2.105150000000000077e-01 3.429014999999999702e+01 1.450280000000000200e+02 2.127355000000000018e+03
9.700000000000000289e-02 2.105619999999999992e-01 3.394010000000000105e+01 1.455914999999999964e+02 2.127654999999999745e+03
9.800000000000000377e-02 2.105914999999999870e-01 3.342860000000000298e+01 1.457674999999999841e+02 2.127855000000000018e+03
9.900000000000000466e-02 2.106060000000000154e-01 3.276765000000000327e+01 1.455885000000000105e+02 2.127954999999999927e+03
1.000000000000000056e-01 2.106055000000000010e-01 3.197380000000000067e+01 1.450999999999999943e+02 2.127965000000000146e+03
1.010000000000000064e-01 2.105920000000000014e-01 3.106780000000000186e+01 1.443530000000000086e+02 2.127889999999999873e+03
1.020000000000000073e-01 2.105679999999999774e-01 3.007294999999999874e+01 1.434055000000000177e+02 2.127750000000000000e+03
1.030000000000000082e-01 2.105349999999999999e-01 2.901435000000000031e+01 1.423154999999999859e+02 2.127554999999999836e+03
1.040000000000000091e-01 2.104959999999999887e-01 2.791774999999999807e+01 1.411424999999999841e+02 2.127315000000000055e+03
1.050000000000000100e-01 2.104524999999999868e-01 2.680815000000000126e+01 1.399415000000000191e+02 2.127050000000000182e+03
1.059999999999999970e-01 2.104070000000000107e-01 2.570909999999999940e+01 1.387624999999999886e+02 2.126774999999999636e+03
1.069999999999999979e-01 2.103619999999999934e-01 2.464155000000000229e+01 1.376485000000000127e+02 2.126494999999999891e+03
1.079999999999999988e-01 2.103190000000000059e-01 2.362314999999999898e+01 1.366334999999999980e+02 2.126225000000000364e+03
1.089999999999999997e-01 2.102789999999999937e-01 2.266754999999999853e+01 1.357415000000000020e+02 2.125974999999999909e+03
1.100000000000000006e-01 2.102434999999999998e-01 2.178425000000000011e+01 1.349864999999999782e+02 2.125750000000000000e+03
1.110000000000000014e-01 2.102124999999999966e-01 2.097789999999999822e+01 1.343704999999999927e+02 2.125555000000000291e+03
1.120000000000000023e-01 2.101859999999999840e-01 2.024879999999999924e+01 1.338874999999999886e+02 2.125390000000000327e+03
1.130000000000000032e-01 2.101649999999999907e-01 1.959275000000000233e+01 1.335194999999999936e+02 2.125250000000000000e+03
1.140000000000000041e-01 2.101474999999999871e-01 1.900175000000000125e+01 1.332425000000000068e+02 2.125139999999999873e+03
1.150000000000000050e-01 2.101345000000000018e-01 1.846440000000000126e+01 1.330235000000000127e+02 2.125045000000000073e+03
1.160000000000000059e-01 2.101220000000000032e-01 1.796675000000000111e+01 1.328259999999999934e+02 2.124965000000000146e+03
1.170000000000000068e-01 2.101109999999999922e-01 1.749354999999999905e+01 1.326115000000000066e+02 2.124894999999999982e+03
1.180000000000000077e-01 2.100984999999999936e-01 1.702844999999999942e+01 1.323410000000000082e+02 2.124810000000000400e+03
1.190000000000000085e-01 2.100845000000000073e-01 1.655579999999999785e+01 1.319780000000000086e+02 2.124719999999999800e+03
1.200000000000000094e-01 2.100660000000000027e-01 1.606109999999999971e+01 1.314900000000000091e+02 2.124605000000000018e+03
1.209999999999999964e-01 2.100429999999999797e-01 1.553209999999999980e+01 1.308520000000000039e+02 2.124460000000000036e+03
1.219999999999999973e-01 2.100139999999999785e-01 1.495945000000000036e+01 1.300480000000000018e+02 2.124280000000000200e+03
1.229999999999999982e-01 2.099785000000000124e-01 1.433745000000000047e+01 1.290695000000000050e+02 2.124060000000000400e+03
1.239999999999999991e-01 2.099360000000000115e-01 1.366399999999999970e+01 1.279184999999999945e+02 2.123800000000000182e+03
1.250000000000000000e-01 2.098865000000000036e-01 1.294125000000000014e+01 1.266069999999999993e+02 2.123500000000000000e+03
1.260000000000000009e-01 2.098309999999999897e-01 1.217520000000000024e+01 1.251580000000000013e+02 2.123154999999999745e+03
1.270000000000000018e-01 2.097700000000000120e-01 1.137533499999999975e+01 1.236004999999999967e+02 2.122779999999999745e+03
1.280000000000000027e-01 2.097050000000000025e-01 1.055424999999999969e+01 1.219704999999999870e+02 2.122375000000000000e+03
1.290000000000000036e-01 2.096370000000000178e-01 9.726705000000000823e+00 1.203085000000000093e+02 2.121954999999999927e+03
1.300000000000000044e-01 2.095675000000000177e-01 8.909005000000000507e+00 1.186594999999999942e+02 2.121529999999999745e+03
1.310000000000000053e-01 2.094989999999999908e-01 8.118009999999999948e+00 1.170649999999999977e+02 2.121105000000000018e+03
1.320000000000000062e-01 2.094325000000000214e-01 7.370134999999999437e+00 1.155664999999999907e+02 2.120695000000000164e+03
1.330000000000000071e-01 2.093694999999999862e-01 6.680729999999999613e+00 1.142000000000000028e+02 2.120300000000000182e+03
1.340000000000000080e-01 2.093119999999999981e-01 6.063090000000000757e+00 1.129954999999999927e+02 2.119940000000000055e+03
1.350000000000000089e-01 2.092605000000000159e-01 5.527969999999999828e+00 1.119780000000000086e+02 2.119619999999999891e+03
1.360000000000000098e-01 2.092164999999999997e-01 5.083115000000000272e+00 1.111610000000000014e+02 2.119340000000000146e+03
1.370000000000000107e-01 2.091810000000000058e-01 4.732955000000000467e+00 1.105519999999999925e+02 2.119114999999999782e+03
1.380000000000000115e-01 2.091530000000000056e-01 4.478575000000000195e+00 1.101485000000000127e+02 2.118930000000000291e+03
1.390000000000000124e-01 2.091335000000000000e-01 4.317755000000000010e+00 1.099435000000000002e+02 2.118805000000000291e+03
1.400000000000000133e-01 2.091215000000000157e-01 4.245239999999999903e+00 1.099180000000000064e+02 2.118724999999999909e+03
1.410000000000000142e-01 2.091175000000000117e-01 4.253090000000000259e+00 1.100525000000000091e+02 2.118694999999999709e+03
1.420000000000000151e-01 2.091200000000000003e-01 4.331165000000000376e+00 1.103195000000000050e+02 2.118704999999999927e+03
1.430000000000000160e-01 2.091274999999999940e-01 4.467634999999999579e+00 1.106915000000000049e+02 2.118744999999999891e+03
1.440000000000000169e-01 2.091394999999999782e-01 4.649570000000000647e+00 1.111364999999999981e+02 2.118809999999999945e+03
1.450000000000000178e-01 2.091550000000000076e-01 4.863495000000000346e+00 1.116250000000000000e+02 2.118900000000000091e+03
1.459999999999999909e-01 2.091725000000000112e-01 5.095955000000000013e+00 1.121264999999999930e+02 2.119010000000000218e+03
1.469999999999999918e-01 2.091905000000000014e-01 5.334010000000000140e+00 1.126144999999999925e+02 2.119114999999999782e+03
1.479999999999999927e-01 2.092085000000000194e-01 5.565710000000000157e+00 1.130639999999999930e+02 2.119224999999999909e+03
1.489999999999999936e-01 2.092255000000000087e-01 5.780490000000000350e+00 1.134555000000000007e+02 2.119329999999999927e+03
1.499999999999999944e-01 2.092400000000000093e-01 5.969434999999999825e+00 1.137729999999999961e+02 2.119420000000000073e+03
1.509999999999999953e-01 2.092525000000000079e-01 6.125585000000000058e+00 1.140045000000000073e+02 2.119500000000000000e+03
1.519999999999999962e-01 2.092614999999999892e-01 6.244004999999999583e+00 1.141435000000000031e+02 2.119555000000000291e+03
1.529999999999999971e-01 2.092665000000000219e-01 6.321875000000000355e+00 1.141885000000000048e+02 2.119590000000000146e+03
1.539999999999999980e-01 2.092689999999999828e-01 6.358414999999999928e+00 1.141419999999999959e+02 2.119605000000000018e+03
1.549999999999999989e-01 2.092669999999999808e-01 6.354804999999999815e+00 1.140099999999999909e+02 2.119595000000000255e+03
1.559999999999999998e-01 2.092620000000000036e-01 6.313914999999999722e+00 1.138035000000000139e+02 2.119569999999999709e+03
1.570000000000000007e-01 2.092545000000000099e-01 6.240039999999999587e+00 1.135345000000000084e+02 2.119525000000000091e+03
1.580000000000000016e-01 2.092444999999999999e-01 6.138595000000000468e+00 1.132169999999999987e+02 2.119460000000000036e+03
1.590000000000000024e-01 2.092320000000000013e-01 6.015684999999999505e+00 1.128665000000000020e+02 2.119389999999999873e+03
