# t [s], A [cm^2], U [cm/s], P [cPa], c [cm/s]
1.000000000000000021e-03 4.496744999999999770e-01 6.034499999999998199e-03 1.067319999999999993e+02 1.666740000000000009e+03
2.000000000000000042e-03 4.496670000000000389e-01 -2.562209000000000188e-03 1.067044999999999959e+02 1.666730000000000018e+03
3.000000000000000062e-03 4.496999999999999886e-01 7.830225000000000379e-02 1.067959999999999923e+02 1.666755000000000109e+03
4.000000000000000083e-03 4.497349999999999959e-01 1.736199999999999966e-01 1.069219999999999970e+02 1.666789999999999964e+03
5.000000000000000104e-03 4.497234999999999983e-01 1.631330000000000002e-01 1.068930000000000007e+02 1.666789999999999964e+03
6.000000000000000125e-03 4.496820000000000261e-01 7.404699999999997395e-02 1.066979999999999933e+02 1.666740000000000009e+03
7.000000000000000146e-03 4.496470000000000189e-01 -5.712500000000009237e-03 1.064500000000000028e+02 1.666674999999999955e+03
8.000000000000000167e-03 4.495979999999999976e-01 -1.301705000000000778e-01 1.061024999999999920e+02 1.666585000000000036e+03
9.000000000000001055e-03 4.495129999999999404e-01 -3.603050000000000974e-01 1.055630000000000024e+02 1.666444999999999936e+03
1.000000000000000194e-02 4.493889999999999829e-01 -7.049650000000000638e-01 1.047860000000000014e+02 1.666255000000000109e+03
1.099999999999999936e-02 4.492134999999999878e-01 -1.185735000000000205e+00 1.037059999999999889e+02 1.665974999999999909e+03
1.200000000000000025e-02 4.489770000000000150e-01 -1.813585000000000225e+00 1.022622499999999945e+02 1.665595000000000027e+03
1.300000000000000114e-02 4.486959999999999837e-01 -2.524710000000000232e+00 1.004925499999999943e+02 1.665119999999999891e+03
1.400000000000000203e-02 4.484110000000000040e-01 -3.183794999999999931e+00 9.855469999999999686e+01 1.664585000000000036e+03
1.499999999999999944e-02 4.481629999999999781e-01 -3.651813999999999893e+00 9.665049999999999386e+01 1.664030000000000200e+03
1.600000000000000033e-02 4.479695000000000205e-01 -3.849134999999999973e+00 9.493375000000000341e+01 1.663505000000000109e+03
1.700000000000000122e-02 4.478239999999999998e-01 -3.774835500000000010e+00 9.345615000000000805e+01 1.663030000000000200e+03
1.800000000000000211e-02 4.477010000000000156e-01 -3.488228500000000398e+00 9.217189999999999372e+01 1.662585000000000036e+03
1.900000000000000300e-02 4.475719999999999699e-01 -3.073755499999999863e+00 9.097549999999999670e+01 1.662164999999999964e+03
2.000000000000000042e-02 4.474154999999999660e-01 -2.606548000000000087e+00 8.975130000000000052e+01 1.661730000000000018e+03
2.100000000000000130e-02 4.472224999999999673e-01 -2.129234999999999989e+00 8.841660000000000252e+01 1.661275000000000091e+03
2.200000000000000219e-02 4.469970000000000332e-01 -1.645070000000000254e+00 8.694565000000000055e+01 1.660779999999999973e+03
2.299999999999999961e-02 4.467539999999999845e-01 -1.127574999999999772e+00 8.536854999999999905e+01 1.660255000000000109e+03
2.400000000000000050e-02 4.465100000000000180e-01 -5.408299999999996999e-01 8.374845000000000539e+01 1.659720000000000027e+03
2.500000000000000139e-02 4.462765000000000204e-01 1.387249999999999872e-01 8.215009999999999479e+01 1.659180000000000064e+03
2.600000000000000228e-02 4.460565000000000224e-01 9.072800000000000864e-01 8.061109999999999332e+01 1.658654999999999973e+03
2.700000000000000316e-02 4.458415000000000017e-01 1.729284999999999961e+00 7.912575000000001069e+01 1.658139999999999873e+03
2.800000000000000058e-02 4.456185000000000285e-01 2.543364999999999654e+00 7.764459999999999695e+01 1.657630000000000109e+03
2.900000000000000147e-02 4.453685000000000005e-01 3.275510000000000588e+00 7.608670000000000755e+01 1.657099999999999909e+03
3.000000000000000236e-02 4.450759999999999716e-01 3.856035000000000323e+00 7.436249999999999716e+01 1.656529999999999973e+03
3.099999999999999978e-02 4.447325000000000306e-01 4.236130000000000173e+00 7.239965000000000828e+01 1.655905000000000200e+03
3.200000000000000067e-02 4.443380000000000107e-01 4.399230000000000196e+00 7.016634999999999422e+01 1.655219999999999800e+03
3.300000000000000155e-02 4.439049999999999940e-01 4.364654999999999063e+00 6.768404999999999916e+01 1.654464999999999918e+03
3.400000000000000244e-02 4.434510000000000396e-01 4.181580000000000297e+00 6.502700000000000102e+01 1.653659999999999854e+03
3.500000000000000333e-02 4.430009999999999781e-01 3.916795000000000027e+00 6.230870000000000175e+01 1.652840000000000146e+03
3.600000000000000422e-02 4.425769999999999982e-01 3.640650000000000386e+00 5.966150000000000375e+01 1.652029999999999973e+03
3.700000000000000511e-02 4.421984999999999943e-01 3.415109999999999868e+00 5.721614999999999895e+01 1.651264999999999873e+03
3.799999999999999906e-02 4.418805000000000094e-01 3.286865000000000592e+00 5.508500000000000085e+01 1.650579999999999927e+03
3.899999999999999994e-02 4.416295000000000082e-01 3.285210000000000186e+00 5.335240000000000293e+01 1.650000000000000000e+03
4.000000000000000083e-02 4.414510000000000378e-01 3.424305000000000376e+00 5.207250000000000512e+01 1.649539999999999964e+03
4.100000000000000172e-02 4.413434999999999997e-01 3.707730999999999888e+00 5.127129999999999654e+01 1.649220000000000027e+03
4.200000000000000261e-02 4.413060000000000316e-01 4.133924999999999628e+00 5.095420000000000016e+01 1.649039999999999964e+03
4.300000000000000350e-02 4.413365000000000204e-01 4.701019999999999754e+00 5.111345000000000027e+01 1.649009999999999991e+03
4.400000000000000439e-02 4.414330000000000198e-01 5.409945000000000448e+00 5.173604999999999876e+01 1.649119999999999891e+03
4.499999999999999833e-02 4.415954999999999742e-01 6.265285000000000437e+00 5.280854999999999677e+01 1.649365000000000009e+03
4.599999999999999922e-02 4.418225000000000069e-01 7.273965000000000458e+00 5.431920000000000215e+01 1.649750000000000000e+03
4.700000000000000011e-02 4.421140000000000070e-01 8.442534999999999457e+00 5.625665000000000049e+01 1.650269999999999982e+03
4.800000000000000100e-02 4.424690000000000012e-01 9.773780000000000356e+00 5.860684999999999434e+01 1.650920000000000073e+03
4.900000000000000189e-02 4.428839999999999999e-01 1.126429500000000061e+01 6.134990000000000521e+01 1.651690000000000055e+03
5.000000000000000278e-02 4.433534999999999560e-01 1.290281000000000056e+01 6.445669999999999789e+01 1.652585000000000036e+03
5.100000000000000366e-02 4.438699999999999868e-01 1.467041000000000039e+01 6.788800000000000523e+01 1.653579999999999927e+03
5.200000000000000455e-02 4.444254999999999733e-01 1.654155499999999890e+01 7.159505000000000052e+01 1.654664999999999964e+03
5.300000000000000544e-02 4.450100000000000167e-01 1.848665499999999895e+01 7.552200000000000557e+01 1.655829999999999927e+03
5.399999999999999939e-02 4.456145000000000245e-01 2.047445000000000093e+01 7.960954999999999870e+01 1.657065000000000055e+03
5.500000000000000028e-02 4.462300000000000155e-01 2.247465000000000046e+01 8.379904999999999404e+01 1.658335000000000036e+03
5.600000000000000117e-02 4.468495000000000106e-01 2.446015000000000228e+01 8.803645000000000209e+01 1.659634999999999991e+03
5.700000000000000205e-02 4.474654999999999605e-01 2.640834999999999866e+01 9.227485000000000070e+01 1.660949999999999818e+03
5.800000000000000294e-02 4.480759999999999743e-01 2.830199999999999960e+01 9.647784999999998945e+01 1.662269999999999982e+03
5.900000000000000383e-02 4.486765000000000336e-01 3.012900000000000134e+01 1.006201999999999970e+02 1.663585000000000036e+03
6.000000000000000472e-02 4.492665000000000131e-01 3.188195000000000334e+01 1.046851000000000056e+02 1.664875000000000000e+03
6.099999999999999867e-02 4.498465000000000380e-01 3.355720000000000169e+01 1.086674000000000007e+02 1.666160000000000082e+03
6.199999999999999956e-02 4.504169999999999563e-01 3.515399999999999636e+01 1.125670000000000073e+02 1.667420000000000073e+03
6.300000000000000044e-02 4.509784999999999489e-01 3.667349999999999710e+01 1.163905000000000030e+02 1.668664999999999964e+03
6.400000000000000133e-02 4.515335000000000321e-01 3.811764999999999759e+01 1.201479999999999961e+02 1.669889999999999873e+03
6.500000000000000222e-02 4.520824999999999982e-01 3.948869999999999436e+01 1.238479999999999990e+02 1.671094999999999800e+03
6.600000000000000311e-02 4.526274999999999604e-01 4.078855000000000075e+01 1.275010000000000048e+02 1.672295000000000073e+03
6.700000000000000400e-02 4.531680000000000152e-01 4.201789999999999736e+01 1.311134999999999877e+02 1.673480000000000018e+03
6.800000000000000488e-02 4.537039999999999962e-01 4.317624999999999602e+01 1.346870000000000118e+02 1.674655000000000200e+03
6.900000000000000577e-02 4.542349999999999444e-01 4.426160000000000139e+01 1.382205000000000155e+02 1.675819999999999936e+03
7.000000000000000666e-02 4.547589999999999688e-01 4.527029999999999887e+01 1.417065000000000055e+02 1.676970000000000027e+03
7.100000000000000755e-02 4.552745000000000264e-01 4.619755000000000678e+01 1.451324999999999932e+02 1.678105000000000018e+03
7.200000000000000844e-02 4.557785000000000308e-01 4.703744999999999976e+01 1.484830000000000041e+02 1.679215000000000146e+03
7.300000000000000933e-02 4.562665000000000193e-01 4.778364999999999441e+01 1.517390000000000043e+02 1.680299999999999955e+03
7.399999999999999634e-02 4.567375000000000185e-01 4.842995000000000516e+01 1.548790000000000191e+02 1.681355000000000018e+03
7.499999999999999722e-02 4.571870000000000100e-01 4.897055000000000291e+01 1.578829999999999814e+02 1.682369999999999891e+03
7.599999999999999811e-02 4.576124999999999776e-01 4.940070000000000050e+01 1.607300000000000182e+02 1.683335000000000036e+03
7.699999999999999900e-02 4.580125000000000446e-01 4.971689999999999543e+01 1.634019999999999868e+02 1.684250000000000000e+03
7.799999999999999989e-02 4.583829999999999849e-01 4.991714999999999947e+01 1.658849999999999909e+02 1.685110000000000127e+03
7.900000000000000078e-02 4.587244999999999795e-01 5.000090000000000146e+01 1.681664999999999850e+02 1.685904999999999973e+03
8.000000000000000167e-02 4.590355000000000407e-01 4.996930000000000405e+01 1.702375000000000114e+02 1.686634999999999991e+03
8.100000000000000255e-02 4.593144999999999589e-01 4.982484999999999786e+01 1.720964999999999918e+02 1.687305000000000064e+03
8.200000000000000344e-02 4.595635000000000137e-01 4.957164999999999822e+01 1.737410000000000139e+02 1.687900000000000091e+03
8.300000000000000433e-02 4.597814999999999541e-01 4.921515000000000128e+01 1.751754999999999995e+02 1.688430000000000064e+03
8.400000000000000522e-02 4.599705000000000044e-01 4.876234999999999786e+01 1.764060000000000059e+02 1.688894999999999982e+03
8.500000000000000611e-02 4.601314999999999711e-01 4.822119999999999607e+01 1.774429999999999836e+02 1.689295000000000073e+03
8.600000000000000699e-02 4.602674999999999406e-01 4.760115000000000407e+01 1.782990000000000066e+02 1.689634999999999991e+03
8.700000000000000788e-02 4.603789999999999827e-01 4.691264999999999930e+01 1.789904999999999973e+02 1.689920000000000073e+03
8.800000000000000877e-02 4.604700000000000459e-01 4.616680000000000206e+01 1.795330000000000155e+02 1.690150000000000091e+03
8.899999999999999578e-02 4.605429999999999802e-01 4.537555000000000405e+01 1.799474999999999909e+02 1.690335000000000036e+03
8.999999999999999667e-02 4.606010000000000382e-01 4.455069999999999908e+01 1.802520000000000095e+02 1.690480000000000018e+03
9.099999999999999756e-02 4.606459999999999999e-01 4.370405000000000229e+01 1.804664999999999964e+02 1.690595000000000027e+03
9.199999999999999845e-02 4.606820000000000359e-01 4.284655000000000058e+01 1.806094999999999970e+02 1.690679999999999836e+03
9.299999999999999933e-02 4.607099999999999529e-01 4.198805000000000121e+01 1.806999999999999886e+02 1.690740000000000009e+03
9.400000000000000022e-02 4.607324999999999893e-01 4.113705000000000211e+01 1.807515000000000214e+02 1.690780000000000200e+03
9.500000000000000111e-02 4.607514999999999805e-01 4.029999999999999716e+01 1.807760000000000105e+02 1.690805000000000064e+03
9.600000000000000200e-02 4.607674999999999965e-01 3.948160000000000025e+01 1.807835000000000036e+02 1.690824999999999818e+03
9.700000000000000289e-02 4.607805000000000373e-01 3.868439999999999657e+01 1.807769999999999868e+02 1.690835000000000036e+03
9.800000000000000377e-02 4.607910000000000061e-01 3.790899999999999892e+01 1.807595000000000027e+02 1.690840000000000146e+03
9.900000000000000466e-02 4.607980000000000409e-01 3.715420000000000300e+01 1.807280000000000086e+02 1.690835000000000036e+03
1.000000000000000056e-01 4.608010000000000161e-01 3.641750000000000398e+01 1.806784999999999854e+02 1.690820000000000164e+03
1.010000000000000064e-01 4.607984999999999998e-01 3.569500000000000028e+01 1.806034999999999968e+02 1.690799999999999955e+03
1.020000000000000073e-01 4.607894999999999630e-01 3.498230000000000217e+01 1.804939999999999998e+02 1.690769999999999982e+03
1.030000000000000082e-01 4.607729999999999881e-01 3.427439999999999998e+01 1.803425000000000011e+02 1.690724999999999909e+03
1.040000000000000091e-01 4.607465000000000033e-01 3.356624999999999659e+01 1.801374999999999886e+02 1.690664999999999964e+03
1.050000000000000100e-01 4.607100000000000084e-01 3.285314999999999941e+01 1.798715000000000259e+02 1.690585000000000036e+03
1.059999999999999970e-01 4.606620000000000159e-01 3.213094999999999857e+01 1.795370000000000061e+02 1.690485000000000127e+03
1.069999999999999979e-01 4.606020000000000114e-01 3.139605000000000246e+01 1.791279999999999859e+02 1.690365000000000009e+03
1.079999999999999988e-01 4.605289999999999662e-01 3.064605000000000246e+01 1.786405000000000030e+02 1.690215000000000146e+03
1.089999999999999997e-01 4.604445000000000343e-01 2.987940000000000396e+01 1.780740000000000123e+02 1.690045000000000073e+03
1.100000000000000006e-01 4.603475000000000206e-01 2.909600000000000009e+01 1.774284999999999854e+02 1.689849999999999909e+03
1.110000000000000014e-01 4.602395000000000236e-01 2.829679999999999751e+01 1.767085000000000150e+02 1.689634999999999991e+03
1.120000000000000023e-01 4.601215000000000166e-01 2.748404999999999987e+01 1.759200000000000159e+02 1.689389999999999873e+03
1.130000000000000032e-01 4.599944999999999729e-01 2.666110000000000113e+01 1.750704999999999814e+02 1.689130000000000109e+03
1.140000000000000041e-01 4.598610000000000197e-01 2.583239999999999981e+01 1.741705000000000041e+02 1.688849999999999909e+03
1.150000000000000050e-01 4.597219999999999640e-01 2.500345000000000084e+01 1.732330000000000041e+02 1.688559999999999945e+03
1.160000000000000059e-01 4.595805000000000029e-01 2.418025000000000091e+01 1.722704999999999984e+02 1.688259999999999991e+03
1.170000000000000068e-01 4.594374999999999432e-01 2.336939999999999884e+01 1.712975000000000136e+02 1.687950000000000045e+03
1.180000000000000077e-01 4.592964999999999964e-01 2.257764999999999844e+01 1.703274999999999864e+02 1.687644999999999982e+03
1.190000000000000085e-01 4.591584999999999694e-01 2.181174999999999997e+01 1.693760000000000048e+02 1.687340000000000146e+03
1.200000000000000094e-01 4.590255000000000307e-01 2.107815000000000083e+01 1.684555000000000007e+02 1.687039999999999964e+03
1.209999999999999964e-01 4.588999999999999746e-01 2.038269999999999982e+01 1.675780000000000030e+02 1.686750000000000000e+03
1.219999999999999973e-01 4.587829999999999409e-01 1.973059999999999903e+01 1.667545000000000073e+02 1.686474999999999909e+03
1.229999999999999982e-01 4.586755000000000138e-01 1.912590000000000146e+01 1.659935000000000116e+02 1.686220000000000027e+03
1.239999999999999991e-01 4.585785000000000000e-01 1.857160000000000011e+01 1.653014999999999759e+02 1.685985000000000127e+03
1.250000000000000000e-01 4.584920000000000107e-01 1.806969999999999743e+01 1.646814999999999998e+02 1.685764999999999873e+03
1.260000000000000009e-01 4.584159999999999902e-01 1.762069999999999936e+01 1.641355000000000075e+02 1.685569999999999936e+03
1.270000000000000018e-01 4.583514999999999673e-01 1.722415000000000163e+01 1.636625000000000227e+02 1.685400000000000091e+03
1.280000000000000027e-01 4.582960000000000367e-01 1.687825000000000131e+01 1.632595000000000027e+02 1.685244999999999891e+03
1.290000000000000036e-01 4.582494999999999763e-01 1.658039999999999736e+01 1.629209999999999923e+02 1.685119999999999891e+03
1.300000000000000044e-01 4.582110000000000349e-01 1.632720000000000127e+01 1.626410000000000196e+02 1.685010000000000218e+03
1.310000000000000053e-01 4.581790000000000029e-01 1.611465000000000103e+01 1.624114999999999895e+02 1.684914999999999964e+03
1.320000000000000062e-01 4.581529999999999769e-01 1.593839999999999968e+01 1.622239999999999895e+02 1.684835000000000036e+03
1.330000000000000071e-01 4.581310000000000104e-01 1.579390000000000072e+01 1.620715000000000146e+02 1.684769999999999982e+03
1.340000000000000080e-01 4.581120000000000192e-01 1.567665000000000042e+01 1.619445000000000050e+02 1.684710000000000036e+03
1.350000000000000089e-01 4.580950000000000299e-01 1.558230000000000004e+01 1.618365000000000009e+02 1.684659999999999854e+03
1.360000000000000098e-01 4.580800000000000427e-01 1.550694999999999979e+01 1.617409999999999854e+02 1.684615000000000009e+03
1.370000000000000107e-01 4.580649999999999999e-01 1.544705000000000084e+01 1.616514999999999986e+02 1.684574999999999818e+03
1.380000000000000115e-01 4.580504999999999716e-01 1.539955000000000140e+01 1.615654999999999859e+02 1.684539999999999964e+03
1.390000000000000124e-01 4.580355000000000398e-01 1.536185000000000045e+01 1.614789999999999850e+02 1.684500000000000000e+03
1.400000000000000133e-01 4.580205000000000526e-01 1.533190000000000097e+01 1.613904999999999745e+02 1.684465000000000146e+03
1.410000000000000142e-01 4.580045000000000366e-01 1.530814999999999948e+01 1.612995000000000232e+02 1.684434999999999945e+03
1.420000000000000151e-01 4.579890000000000350e-01 1.528940000000000055e+01 1.612069999999999936e+02 1.684400000000000091e+03
1.430000000000000160e-01 4.579730000000000190e-01 1.527495000000000047e+01 1.611129999999999995e+02 1.684365000000000009e+03
1.440000000000000169e-01 4.579575000000000173e-01 1.526439999999999841e+01 1.610194999999999936e+02 1.684329999999999927e+03
1.450000000000000178e-01 4.579425000000000301e-01 1.525744999999999862e+01 1.609290000000000020e+02 1.684299999999999955e+03
1.459999999999999909e-01 4.579285000000000161e-01 1.525425000000000075e+01 1.608439999999999941e+02 1.684264999999999873e+03
1.469999999999999918e-01 4.579159999999999897e-01 1.525499999999999901e+01 1.607660000000000196e+02 1.684240000000000009e+03
1.479999999999999927e-01 4.579050000000000065e-01 1.525990000000000180e+01 1.606980000000000075e+02 1.684215000000000146e+03
1.489999999999999936e-01 4.578960000000000252e-01 1.526924999999999955e+01 1.606419999999999959e+02 1.684194999999999936e+03
1.499999999999999944e-01 4.578889999999999905e-01 1.528335000000000043e+01 1.605989999999999895e+02 1.684179999999999836e+03
1.509999999999999953e-01 4.578840000000000132e-01 1.530215000000000103e+01 1.605709999999999980e+02 1.684164999999999964e+03
1.519999999999999962e-01 4.578825000000000256e-01 1.532569999999999943e+01 1.605575000000000045e+02 1.684154999999999973e+03
1.529999999999999971e-01 4.578820000000000112e-01 1.535364999999999824e+01 1.605589999999999975e+02 1.684154999999999973e+03
1.539999999999999980e-01 4.578839999999999577e-01 1.538550000000000040e+01 1.605754999999999768e+02 1.684159999999999854e+03
1.549999999999999989e-01 4.578880000000000172e-01 1.542054999999999865e+01 1.606044999999999732e+02 1.684164999999999964e+03
1.559999999999999998e-01 4.578935000000000088e-01 1.545775000000000077e+01 1.606444999999999936e+02 1.684170000000000073e+03
1.570000000000000007e-01 4.579004999999999881e-01 1.549610000000000021e+01 1.606929999999999836e+02 1.684184999999999945e+03
1.580000000000000016e-01 4.579075000000000228e-01 1.553430000000000000e+01 1.607464999999999975e+02 1.684200000000000045e+03
1.590000000000000024e-01 4.579150000000000165e-01 1.557120000000000104e+01 1.608034999999999854e+02 1.684215000000000146e+03
