# t [s], A [cm^2], U [cm/s], P [cPa], c [cm/s]
1.000000000000000021e-03 4.832885000000000097e-01 4.508299999999999808e-03 9.062149999999999750e+01 1.593275000000000091e+03
2.000000000000000042e-03 4.832805000000000017e-01 -3.094109999999999742e-03 9.060065000000000168e+01 1.593269999999999982e+03
3.000000000000000062e-03 4.832994999999999930e-01 3.696964999999999973e-02 9.064025000000000887e+01 1.593279999999999973e+03
4.000000000000000083e-03 4.833385000000000042e-01 1.255203500000000028e-01 9.075135000000000218e+01 1.593309999999999945e+03
5.000000000000000104e-03 4.833494999999999875e-01 1.632796999999999998e-01 9.079675000000000296e+01 1.593320000000000164e+03
6.000000000000000125e-03 4.833195000000000130e-01 1.127608499999999958e-01 9.070210000000000150e+01 1.593299999999999955e+03
7.000000000000000146e-03 4.832830000000000181e-01 4.555349999999999677e-02 9.053784999999999172e+01 1.593264999999999873e+03
8.000000000000000167e-03 4.832539999999999614e-01 -1.031750000000003498e-02 9.035194999999998799e+01 1.593219999999999800e+03
9.000000000000001055e-03 4.832085000000000408e-01 -1.125134999999999885e-01 9.008594999999999686e+01 1.593159999999999854e+03
1.000000000000000194e-02 4.831334999999999935e-01 -2.941275000000000417e-01 8.968765000000000498e+01 1.593065000000000055e+03
1.099999999999999936e-02 4.830244999999999678e-01 -5.637399999999999078e-01 8.912545000000000073e+01 1.592934999999999945e+03
1.200000000000000025e-02 4.828719999999999679e-01 -9.403849999999999154e-01 8.835155000000000314e+01 1.592759999999999991e+03
1.300000000000000114e-02 4.826694999999999736e-01 -1.430379999999999985e+00 8.732795000000000130e+01 1.592514999999999873e+03
1.400000000000000203e-02 4.824295000000000111e-01 -1.990310000000000024e+00 8.607814999999999372e+01 1.592220000000000027e+03
1.499999999999999944e-02 4.821834999999999871e-01 -2.531325000000000269e+00 8.469689999999999941e+01 1.591880000000000109e+03
1.600000000000000033e-02 4.819620000000000015e-01 -2.959418499999999952e+00 8.330745000000000289e+01 1.591525000000000091e+03
1.700000000000000122e-02 4.817805000000000004e-01 -3.213836500000000207e+00 8.200860000000000127e+01 1.591179999999999836e+03
1.800000000000000211e-02 4.816369999999999818e-01 -3.281265499999999946e+00 8.084399999999999409e+01 1.590855000000000018e+03
1.900000000000000300e-02 4.815165000000000139e-01 -3.187699999999999978e+00 7.980119999999999436e+01 1.590545000000000073e+03
2.000000000000000042e-02 4.813990000000000213e-01 -2.979486500000000149e+00 7.882949999999999591e+01 1.590250000000000000e+03
2.100000000000000130e-02 4.812659999999999716e-01 -2.703745999999999761e+00 7.786519999999998731e+01 1.589950000000000045e+03
2.200000000000000219e-02 4.811090000000000089e-01 -2.393918999999999908e+00 7.685470000000000823e+01 1.589644999999999982e+03
2.299999999999999961e-02 4.809259999999999646e-01 -2.062952500000000189e+00 7.576994999999999436e+01 1.589319999999999936e+03
2.400000000000000050e-02 4.807234999999999703e-01 -1.704300000000000370e+00 7.461299999999999955e+01 1.588970000000000027e+03
2.500000000000000139e-02 4.805134999999999823e-01 -1.299454999999999805e+00 7.341060000000000230e+01 1.588615000000000009e+03
2.600000000000000228e-02 4.803060000000000107e-01 -8.290300000000001557e-01 7.220090000000000430e+01 1.588255000000000109e+03
2.700000000000000316e-02 4.801074999999999648e-01 -2.833450000000001801e-01 7.101775000000000659e+01 1.587889999999999873e+03
2.800000000000000058e-02 4.799189999999999845e-01 3.306000000000000050e-01 6.987765000000000271e+01 1.587539999999999964e+03
2.900000000000000147e-02 4.797335000000000349e-01 9.874749999999998806e-01 6.877309999999999945e+01 1.587194999999999936e+03
3.000000000000000236e-02 4.795414999999999539e-01 1.647069999999999812e+00 6.767269999999999186e+01 1.586855000000000018e+03
3.099999999999999978e-02 4.793290000000000051e-01 2.261394999999999822e+00 6.652814999999999657e+01 1.586505000000000109e+03
3.200000000000000067e-02 4.790849999999999831e-01 2.783854999999999968e+00 6.528509999999999991e+01 1.586134999999999991e+03
3.300000000000000155e-02 4.788014999999999910e-01 3.178360000000000518e+00 6.389715000000000344e+01 1.585735000000000127e+03
3.400000000000000244e-02 4.784775000000000000e-01 3.426400000000000112e+00 6.233760000000000190e+01 1.585300000000000182e+03
3.500000000000000333e-02 4.781180000000000430e-01 3.530165000000000219e+00 6.060769999999999413e+01 1.584825000000000045e+03
3.600000000000000422e-02 4.777354999999999796e-01 3.511104999999999698e+00 5.873855000000000359e+01 1.584309999999999945e+03
3.700000000000000511e-02 4.773454999999999782e-01 3.404374999999999929e+00 5.678624999999999545e+01 1.583779999999999973e+03
3.799999999999999906e-02 4.769645000000000135e-01 3.251199999999999868e+00 5.482254999999999967e+01 1.583244999999999891e+03
3.899999999999999994e-02 4.766065000000000440e-01 3.091284999999999616e+00 5.292379999999999995e+01 1.582720000000000027e+03
4.000000000000000083e-02 4.762850000000000139e-01 2.957715000000000316e+00 5.116089999999999804e+01 1.582224999999999909e+03
4.100000000000000172e-02 4.760064999999999991e-01 2.873974999999999724e+00 4.959244999999999948e+01 1.581775000000000091e+03
4.200000000000000261e-02 4.757759999999999767e-01 2.854065000000000296e+00 4.826149999999999807e+01 1.581380000000000109e+03
4.300000000000000350e-02 4.755949999999999900e-01 2.904409999999999936e+00 4.719534999999999769e+01 1.581055000000000064e+03
4.400000000000000439e-02 4.754635000000000389e-01 3.026852499999999946e+00 4.640840000000000032e+01 1.580795000000000073e+03
4.499999999999999833e-02 4.753800000000000248e-01 3.221807000000000087e+00 4.590599999999999881e+01 1.580615000000000009e+03
4.599999999999999922e-02 4.753454999999999764e-01 3.490944999999999965e+00 4.568864999999999554e+01 1.580514999999999873e+03
4.700000000000000011e-02 4.753589999999999760e-01 3.838705000000000034e+00 4.575600000000000023e+01 1.580485000000000127e+03
4.800000000000000100e-02 4.754220000000000113e-01 4.272615000000000052e+00 4.610850000000000648e+01 1.580545000000000073e+03
4.900000000000000189e-02 4.755365000000000286e-01 4.802350000000000563e+00 4.674854999999999450e+01 1.580674999999999955e+03
5.000000000000000278e-02 4.757040000000000157e-01 5.438015000000000043e+00 4.767929999999999779e+01 1.580884999999999991e+03
5.100000000000000366e-02 4.759249999999999869e-01 6.188010000000000232e+00 4.890255000000000507e+01 1.581174999999999955e+03
5.200000000000000455e-02 4.761990000000000389e-01 7.057145000000000223e+00 5.041655000000000086e+01 1.581550000000000182e+03
5.300000000000000544e-02 4.765249999999999764e-01 8.045314999999998662e+00 5.221384999999999366e+01 1.582005000000000109e+03
5.399999999999999939e-02 4.768985000000000030e-01 9.146874999999999645e+00 5.428004999999999569e+01 1.582529999999999973e+03
5.500000000000000028e-02 4.773140000000000160e-01 1.035090999999999894e+01 5.659304999999999808e+01 1.583125000000000000e+03
5.600000000000000117e-02 4.777660000000000240e-01 1.164211499999999866e+01 5.912429999999999808e+01 1.583785000000000082e+03
5.700000000000000205e-02 4.782474999999999921e-01 1.300225999999999971e+01 6.183970000000000056e+01 1.584500000000000000e+03
5.800000000000000294e-02 4.787514999999999965e-01 1.441139499999999884e+01 6.470210000000000150e+01 1.585264999999999873e+03
5.900000000000000383e-02 4.792699999999999738e-01 1.584981499999999954e+01 6.767345000000000255e+01 1.586065000000000055e+03
6.000000000000000472e-02 4.797974999999999879e-01 1.729907000000000039e+01 7.071710000000000207e+01 1.586894999999999982e+03
6.099999999999999867e-02 4.803285000000000471e-01 1.874289999999999878e+01 7.379990000000000805e+01 1.587740000000000009e+03
6.199999999999999956e-02 4.808600000000000096e-01 2.016789999999999949e+01 7.689345000000000141e+01 1.588599999999999909e+03
6.300000000000000044e-02 4.813875000000000237e-01 2.156349999999999767e+01 7.997489999999999100e+01 1.589460000000000036e+03
6.400000000000000133e-02 4.819090000000000318e-01 2.292204999999999870e+01 8.302715000000000600e+01 1.590319999999999936e+03
6.500000000000000222e-02 4.824245000000000339e-01 2.423799999999999955e+01 8.603860000000000241e+01 1.591174999999999955e+03
6.600000000000000311e-02 4.829324999999999868e-01 2.550784999999999769e+01 8.900230000000000530e+01 1.592025000000000091e+03
6.700000000000000400e-02 4.834334999999999605e-01 2.672915000000000418e+01 9.191464999999999463e+01 1.592860000000000127e+03
6.800000000000000488e-02 4.839275000000000104e-01 2.790040000000000120e+01 9.477570000000000050e+01 1.593684999999999945e+03
6.900000000000000577e-02 4.844140000000000112e-01 2.902045000000000030e+01 9.758575000000000443e+01 1.594494999999999891e+03
7.000000000000000666e-02 4.848945000000000061e-01 3.008809999999999718e+01 1.003464000000000027e+02 1.595295000000000073e+03
7.100000000000000755e-02 4.853674999999999518e-01 3.110195000000000221e+01 1.030589999999999975e+02 1.596090000000000146e+03
7.200000000000000844e-02 4.858345000000000025e-01 3.205995000000000061e+01 1.057231000000000023e+02 1.596865000000000009e+03
7.300000000000000933e-02 4.862925000000000164e-01 3.295980000000000132e+01 1.083385000000000105e+02 1.597630000000000109e+03
7.399999999999999634e-02 4.867424999999999669e-01 3.379845000000000255e+01 1.109000000000000057e+02 1.598380000000000109e+03
7.499999999999999722e-02 4.871824999999999628e-01 3.457259999999999422e+01 1.134029999999999916e+02 1.599119999999999891e+03
7.599999999999999811e-02 4.876110000000000166e-01 3.527859999999999729e+01 1.158414999999999964e+02 1.599844999999999800e+03
7.699999999999999900e-02 4.880265000000000297e-01 3.591295000000000215e+01 1.182065000000000055e+02 1.600545000000000073e+03
7.799999999999999989e-02 4.884270000000000000e-01 3.647230000000000416e+01 1.204885000000000019e+02 1.601219999999999800e+03
7.900000000000000078e-02 4.888109999999999955e-01 3.695394999999999897e+01 1.226794999999999902e+02 1.601880000000000109e+03
8.000000000000000167e-02 4.891775000000000428e-01 3.735594999999999999e+01 1.247700000000000102e+02 1.602514999999999873e+03
8.100000000000000255e-02 4.895255000000000023e-01 3.767730000000000246e+01 1.267530000000000001e+02 1.603110000000000127e+03
8.200000000000000344e-02 4.898525000000000240e-01 3.791774999999999807e+01 1.286225000000000023e+02 1.603684999999999945e+03
8.300000000000000433e-02 4.901594999999999702e-01 3.807809999999999917e+01 1.303725000000000023e+02 1.604220000000000027e+03
8.400000000000000522e-02 4.904454999999999787e-01 3.815980000000000416e+01 1.320004999999999882e+02 1.604724999999999909e+03
8.500000000000000611e-02 4.907110000000000083e-01 3.816490000000000293e+01 1.335049999999999955e+02 1.605195000000000164e+03
8.600000000000000699e-02 4.909544999999999604e-01 3.809600000000000364e+01 1.348840000000000146e+02 1.605630000000000109e+03
8.700000000000000788e-02 4.911775000000000446e-01 3.795584999999999809e+01 1.361390000000000100e+02 1.606029999999999973e+03
8.800000000000000877e-02 4.913794999999999691e-01 3.774774999999999636e+01 1.372699999999999818e+02 1.606389999999999873e+03
8.899999999999999578e-02 4.915610000000000257e-01 3.747499999999999432e+01 1.382800000000000011e+02 1.606720000000000027e+03
8.999999999999999667e-02 4.917219999999999924e-01 3.714135000000000275e+01 1.391714999999999804e+02 1.607009999999999991e+03
9.099999999999999756e-02 4.918635000000000090e-01 3.675095000000000312e+01 1.399479999999999791e+02 1.607275000000000091e+03
9.199999999999999845e-02 4.919860000000000344e-01 3.630830000000000268e+01 1.406140000000000043e+02 1.607500000000000000e+03
9.299999999999999933e-02 4.920910000000000006e-01 3.581860000000000355e+01 1.411750000000000114e+02 1.607695000000000164e+03
9.400000000000000022e-02 4.921790000000000331e-01 3.528739999999999810e+01 1.416379999999999768e+02 1.607860000000000127e+03
9.500000000000000111e-02 4.922519999999999674e-01 3.472070000000000078e+01 1.420104999999999791e+02 1.608000000000000000e+03
9.600000000000000200e-02 4.923115000000000130e-01 3.412505000000000166e+01 1.423004999999999995e+02 1.608110000000000127e+03
9.700000000000000289e-02 4.923579999999999623e-01 3.350704999999999956e+01 1.425180000000000007e+02 1.608199999999999818e+03
9.800000000000000377e-02 4.923950000000000271e-01 3.287324999999999875e+01 1.426719999999999970e+02 1.608269999999999982e+03
9.900000000000000466e-02 4.924230000000000551e-01 3.222999999999999687e+01 1.427725000000000080e+02 1.608320000000000164e+03
1.000000000000000056e-01 4.924439999999999928e-01 3.158310000000000173e+01 1.428290000000000077e+02 1.608355000000000018e+03
1.010000000000000064e-01 4.924585000000000212e-01 3.093769999999999953e+01 1.428494999999999777e+02 1.608375000000000000e+03
1.020000000000000073e-01 4.924690000000000456e-01 3.029805000000000348e+01 1.428414999999999964e+02 1.608389999999999873e+03
1.030000000000000082e-01 4.924754999999999550e-01 2.966720000000000113e+01 1.428114999999999952e+02 1.608389999999999873e+03
1.040000000000000091e-01 4.924779999999999713e-01 2.904755000000000109e+01 1.427634999999999934e+02 1.608384999999999991e+03
1.050000000000000100e-01 4.924775000000000125e-01 2.844019999999999726e+01 1.427005000000000052e+02 1.608375000000000000e+03
1.059999999999999970e-01 4.924744999999999817e-01 2.784539999999999793e+01 1.426239999999999952e+02 1.608355000000000018e+03
1.069999999999999979e-01 4.924675000000000025e-01 2.726265000000000072e+01 1.425339999999999918e+02 1.608335000000000036e+03
1.079999999999999988e-01 4.924570000000000336e-01 2.669069999999999965e+01 1.424290000000000020e+02 1.608309999999999945e+03
1.089999999999999997e-01 4.924425000000000052e-01 2.612784999999999869e+01 1.423079999999999927e+02 1.608275000000000091e+03
1.100000000000000006e-01 4.924235000000000140e-01 2.557195000000000107e+01 1.421675000000000182e+02 1.608240000000000009e+03
1.110000000000000014e-01 4.923994999999999900e-01 2.502080000000000126e+01 1.420040000000000191e+02 1.608190000000000055e+03
1.120000000000000023e-01 4.923695000000000155e-01 2.447185000000000343e+01 1.418145000000000095e+02 1.608139999999999873e+03
1.130000000000000032e-01 4.923334999999999795e-01 2.392289999999999850e+01 1.415974999999999966e+02 1.608079999999999927e+03
1.140000000000000041e-01 4.922910000000000341e-01 2.337170000000000059e+01 1.413480000000000132e+02 1.608009999999999991e+03
1.150000000000000050e-01 4.922420000000000129e-01 2.281625000000000014e+01 1.410654999999999859e+02 1.607934999999999945e+03
1.160000000000000059e-01 4.921860000000000124e-01 2.225500000000000256e+01 1.407479999999999905e+02 1.607844999999999800e+03
1.170000000000000068e-01 4.921235000000000470e-01 2.168665000000000020e+01 1.403949999999999818e+02 1.607744999999999891e+03
1.180000000000000077e-01 4.920539999999999914e-01 2.111050000000000182e+01 1.400064999999999884e+02 1.607639999999999873e+03
1.190000000000000085e-01 4.919774999999999565e-01 2.052635000000000076e+01 1.395844999999999914e+02 1.607525000000000091e+03
1.200000000000000094e-01 4.918964999999999588e-01 1.993469999999999942e+01 1.391305000000000121e+02 1.607400000000000091e+03
1.209999999999999964e-01 4.918095000000000105e-01 1.933630000000000138e+01 1.386480000000000246e+02 1.607264999999999873e+03
1.219999999999999973e-01 4.917190000000000172e-01 1.873284999999999911e+01 1.381410000000000196e+02 1.607130000000000109e+03
1.229999999999999982e-01 4.916254999999999931e-01 1.812634999999999863e+01 1.376154999999999973e+02 1.606980000000000018e+03
1.239999999999999991e-01 4.915289999999999937e-01 1.751934999999999931e+01 1.370765000000000100e+02 1.606829999999999927e+03
1.250000000000000000e-01 4.914330000000000087e-01 1.691499999999999915e+01 1.365310000000000059e+02 1.606674999999999955e+03
1.260000000000000009e-01 4.913374999999999826e-01 1.631640000000000157e+01 1.359859999999999900e+02 1.606519999999999982e+03
1.270000000000000018e-01 4.912429999999999852e-01 1.572725000000000151e+01 1.354484999999999957e+02 1.606369999999999891e+03
1.280000000000000027e-01 4.911524999999999919e-01 1.515099999999999980e+01 1.349254999999999995e+02 1.606219999999999800e+03
1.290000000000000036e-01 4.910664999999999614e-01 1.459125000000000050e+01 1.344250000000000114e+02 1.606075000000000045e+03
1.300000000000000044e-01 4.909860000000000335e-01 1.405135000000000112e+01 1.339530000000000030e+02 1.605934999999999945e+03
1.310000000000000053e-01 4.909120000000000150e-01 1.353446999999999889e+01 1.335149999999999864e+02 1.605799999999999955e+03
1.320000000000000062e-01 4.908455000000000457e-01 1.304333000000000098e+01 1.331159999999999854e+02 1.605679999999999836e+03
1.330000000000000071e-01 4.907865000000000144e-01 1.258012499999999889e+01 1.327609999999999957e+02 1.605575000000000045e+03
1.340000000000000080e-01 4.907370000000000343e-01 1.214647499999999880e+01 1.324529999999999745e+02 1.605480000000000018e+03
1.350000000000000089e-01 4.906955000000000067e-01 1.174356500000000025e+01 1.321924999999999955e+02 1.605394999999999982e+03
1.360000000000000098e-01 4.906625000000000014e-01 1.137183500000000080e+01 1.319809999999999945e+02 1.605325000000000045e+03
1.370000000000000107e-01 4.906380000000000186e-01 1.103113000000000099e+01 1.318174999999999955e+02 1.605269999999999982e+03
1.380000000000000115e-01 4.906209999999999738e-01 1.072074500000000086e+01 1.316999999999999886e+02 1.605219999999999800e+03
1.390000000000000124e-01 4.906120000000000481e-01 1.043953499999999934e+01 1.316259999999999764e+02 1.605190000000000055e+03
1.400000000000000133e-01 4.906089999999999618e-01 1.018591999999999942e+01 1.315919999999999845e+02 1.605170000000000073e+03
1.410000000000000142e-01 4.906114999999999782e-01 9.957969999999999544e+00 1.315930000000000177e+02 1.605154999999999973e+03
1.420000000000000151e-01 4.906199999999999450e-01 9.753515000000000157e+00 1.316254999999999882e+02 1.605154999999999973e+03
1.430000000000000160e-01 4.906319999999999570e-01 9.570395000000001318e+00 1.316845000000000141e+02 1.605160000000000082e+03
1.440000000000000169e-01 4.906475000000000142e-01 9.406169999999999476e+00 1.317640000000000100e+02 1.605174999999999955e+03
1.450000000000000178e-01 4.906650000000000178e-01 9.258665000000000589e+00 1.318605000000000018e+02 1.605199999999999818e+03
1.459999999999999909e-01 4.906844999999999679e-01 9.125585000000000946e+00 1.319689999999999941e+02 1.605219999999999800e+03
1.469999999999999918e-01 4.907060000000000310e-01 9.004974999999999952e+00 1.320854999999999961e+02 1.605250000000000000e+03
1.479999999999999927e-01 4.907270000000000243e-01 8.894809999999999661e+00 1.322069999999999936e+02 1.605275000000000091e+03
1.489999999999999936e-01 4.907485000000000319e-01 8.793350000000000222e+00 1.323305000000000007e+02 1.605304999999999836e+03
1.499999999999999944e-01 4.907700000000000395e-01 8.698999999999999844e+00 1.324530000000000030e+02 1.605339999999999918e+03
1.509999999999999953e-01 4.907905000000000184e-01 8.610324999999999562e+00 1.325720000000000027e+02 1.605369999999999891e+03
1.519999999999999962e-01 4.908104999999999829e-01 8.526064999999999117e+00 1.326864999999999952e+02 1.605400000000000091e+03
1.529999999999999971e-01 4.908289999999999598e-01 8.445109999999999673e+00 1.327955000000000041e+02 1.605430000000000064e+03
1.539999999999999980e-01 4.908464999999999634e-01 8.366540000000000532e+00 1.328969999999999914e+02 1.605454999999999927e+03
1.549999999999999989e-01 4.908629999999999938e-01 8.289569999999999439e+00 1.329915000000000020e+02 1.605485000000000127e+03
1.559999999999999998e-01 4.908780000000000365e-01 8.213589999999999947e+00 1.330780000000000030e+02 1.605509999999999991e+03
1.570000000000000007e-01 4.908915000000000362e-01 8.138170000000000570e+00 1.331569999999999823e+02 1.605534999999999854e+03
1.580000000000000016e-01 4.909040000000000070e-01 8.062989999999999213e+00 1.332284999999999968e+02 1.605549999999999955e+03
1.590000000000000024e-01 4.909155000000000602e-01 7.987885000000000346e+00 1.332925000000000182e+02 1.605574999999999818e+03
