# t [s], A [cm^2], U [cm/s], P [cPa], c [cm/s]
1.000000000000000021e-03 5.120595000000000008e-01 4.763949999999995966e-03 1.096675000000000040e+02 1.493140000000000100e+03
2.000000000000000042e-03 5.120514999999999928e-01 -5.326684999999999840e-04 1.096504999999999939e+02 1.493134999999999991e+03
3.000000000000000062e-03 5.120734999999999593e-01 3.753295000000000936e-02 1.096880000000000024e+02 1.493144999999999982e+03
4.000000000000000083e-03 5.121175000000000033e-01 1.213194999999999968e-01 1.097914999999999992e+02 1.493184999999999945e+03
5.000000000000000104e-03 5.121324999999999905e-01 1.562432500000000002e-01 1.098370000000000033e+02 1.493200000000000045e+03
6.000000000000000125e-03 5.121040000000000036e-01 1.113780000000000048e-01 1.097595000000000027e+02 1.493184999999999945e+03
7.000000000000000146e-03 5.120645000000000335e-01 4.356099999999998862e-02 1.096069999999999993e+02 1.493139999999999873e+03
8.000000000000000167e-03 5.120310000000000139e-01 -1.731800000000000006e-02 1.094215000000000089e+02 1.493094999999999800e+03
9.000000000000001055e-03 5.119795000000000318e-01 -1.191150000000000264e-01 1.091604999999999990e+02 1.493019999999999982e+03
1.000000000000000194e-02 5.118960000000000177e-01 -2.964989999999999570e-01 1.087725000000000080e+02 1.492914999999999964e+03
1.099999999999999936e-02 5.117749999999999799e-01 -5.556349999999999900e-01 1.082270000000000039e+02 1.492769999999999982e+03
1.200000000000000025e-02 5.116085000000000216e-01 -9.086950000000000305e-01 1.074869999999999948e+02 1.492565000000000055e+03
1.300000000000000114e-02 5.113854999999999373e-01 -1.365905000000000147e+00 1.065095000000000027e+02 1.492289999999999964e+03
1.400000000000000203e-02 5.111120000000000108e-01 -1.901625000000000121e+00 1.052924999999999898e+02 1.491940000000000055e+03
1.499999999999999944e-02 5.108129999999999615e-01 -2.444110000000000227e+00 1.038968500000000006e+02 1.491529999999999973e+03
1.600000000000000033e-02 5.105230000000000601e-01 -2.900745000000000129e+00 1.024266499999999951e+02 1.491079999999999927e+03
1.700000000000000122e-02 5.102679999999999438e-01 -3.194696500000000050e+00 1.009878999999999962e+02 1.490625000000000000e+03
1.800000000000000211e-02 5.100554999999999950e-01 -3.288032000000000288e+00 9.965020000000001232e+01 1.490179999999999836e+03
1.900000000000000300e-02 5.098774999999999835e-01 -3.184866500000000045e+00 9.843505000000000393e+01 1.489759999999999991e+03
2.000000000000000042e-02 5.097160000000000579e-01 -2.920232500000000009e+00 9.731794999999999618e+01 1.489349999999999909e+03
2.100000000000000130e-02 5.095490000000000297e-01 -2.543097500000000011e+00 9.624654999999999916e+01 1.488950000000000045e+03
2.200000000000000219e-02 5.093579999999999774e-01 -2.099950000000000205e+00 9.516120000000000800e+01 1.488539999999999964e+03
2.299999999999999961e-02 5.091354999999999631e-01 -1.622824999999999962e+00 9.401380000000000337e+01 1.488115000000000009e+03
2.400000000000000050e-02 5.088799999999999990e-01 -1.123870000000000147e+00 9.278049999999998931e+01 1.487654999999999973e+03
2.500000000000000139e-02 5.085999999999999410e-01 -5.971650000000001679e-01 9.146500000000000341e+01 1.487180000000000064e+03
2.600000000000000228e-02 5.083079999999999821e-01 -2.615499999999970626e-02 9.009300000000000352e+01 1.486684999999999945e+03
2.700000000000000316e-02 5.080145000000000355e-01 6.060100000000003817e-01 8.870064999999999600e+01 1.486174999999999955e+03
2.800000000000000058e-02 5.077279999999999571e-01 1.307004999999999750e+00 8.732050000000000978e+01 1.485664999999999964e+03
2.900000000000000147e-02 5.074499999999999567e-01 2.069365000000000343e+00 8.597105000000000530e+01 1.485159999999999854e+03
3.000000000000000236e-02 5.071750000000000425e-01 2.869044999999999845e+00 8.465045000000000641e+01 1.484659999999999854e+03
3.099999999999999978e-02 5.068924999999999681e-01 3.668299999999999894e+00 8.333594999999999686e+01 1.484170000000000073e+03
3.200000000000000067e-02 5.065899999999999848e-01 4.421714999999999840e+00 8.198920000000001096e+01 1.483664999999999964e+03
3.300000000000000155e-02 5.062560000000000393e-01 5.084055000000000213e+00 8.056440000000000623e+01 1.483144999999999982e+03
3.400000000000000244e-02 5.058819999999999428e-01 5.618199999999999861e+00 7.901964999999999861e+01 1.482590000000000146e+03
3.500000000000000333e-02 5.054640000000000244e-01 6.001705000000000290e+00 7.732704999999999984e+01 1.482005000000000109e+03
3.600000000000000422e-02 5.050065000000000248e-01 6.230805000000000149e+00 7.548069999999999879e+01 1.481375000000000000e+03
3.700000000000000511e-02 5.045195000000000096e-01 6.320045000000000357e+00 7.350020000000000664e+01 1.480710000000000036e+03
3.799999999999999906e-02 5.040184999999999249e-01 6.298944999999999794e+00 7.142895000000000039e+01 1.480019999999999982e+03
3.899999999999999994e-02 5.035214999999999552e-01 6.206010000000000026e+00 6.932795000000000130e+01 1.479315000000000055e+03
4.000000000000000083e-02 5.030455000000000343e-01 6.082404999999999617e+00 6.726775000000000659e+01 1.478619999999999891e+03
4.100000000000000172e-02 5.026064999999999561e-01 5.966124999999999901e+00 6.531940000000000168e+01 1.477954999999999927e+03
4.200000000000000261e-02 5.022170000000000245e-01 5.888355000000000672e+00 6.354739999999999611e+01 1.477339999999999918e+03
4.300000000000000350e-02 5.018850000000000255e-01 5.871719999999999828e+00 6.200469999999999970e+01 1.476789999999999964e+03
4.400000000000000439e-02 5.016154999999999919e-01 5.930658499999999833e+00 6.073040000000000305e+01 1.476320000000000164e+03
4.499999999999999833e-02 5.014110000000000511e-01 6.072855000000000558e+00 5.974965000000000259e+01 1.475940000000000055e+03
4.599999999999999922e-02 5.012720000000000509e-01 6.301624999999999588e+00 5.907559999999999434e+01 1.475654999999999973e+03
4.700000000000000011e-02 5.011970000000000036e-01 6.618149999999999977e+00 5.871224999999999739e+01 1.475470000000000027e+03
4.800000000000000100e-02 5.011860000000000204e-01 7.023690000000000211e+00 5.865755000000000052e+01 1.475389999999999873e+03
4.900000000000000189e-02 5.012375000000000025e-01 7.520755000000000301e+00 5.890664999999999907e+01 1.475409999999999854e+03
5.000000000000000278e-02 5.013509999999999911e-01 8.113469999999999516e+00 5.945369999999999777e+01 1.475525000000000091e+03
5.100000000000000366e-02 5.015264999999999862e-01 8.807045000000000456e+00 6.029279999999999973e+01 1.475744999999999891e+03
5.200000000000000455e-02 5.017635000000000289e-01 9.606685000000000585e+00 6.141785000000000139e+01 1.476059999999999945e+03
5.300000000000000544e-02 5.020609999999999795e-01 1.051597999999999900e+01 6.282155000000000200e+01 1.476470000000000027e+03
5.399999999999999939e-02 5.024165000000000436e-01 1.153564000000000078e+01 6.449399999999999977e+01 1.476974999999999909e+03
5.500000000000000028e-02 5.028279999999999417e-01 1.266257500000000036e+01 6.642144999999999300e+01 1.477565000000000055e+03
5.600000000000000117e-02 5.032889999999999864e-01 1.388937999999999917e+01 6.858539999999999281e+01 1.478240000000000009e+03
5.700000000000000205e-02 5.037945000000000340e-01 1.520446000000000097e+01 7.096229999999999905e+01 1.478990000000000009e+03
5.800000000000000294e-02 5.043379999999999530e-01 1.659276499999999999e+01 7.352415000000000589e+01 1.479804999999999836e+03
5.900000000000000383e-02 5.049105000000000398e-01 1.803689999999999927e+01 7.623930000000000007e+01 1.480680000000000064e+03
6.000000000000000472e-02 5.055054999999999410e-01 1.951820000000000022e+01 7.907419999999999050e+01 1.481605000000000018e+03
6.099999999999999867e-02 5.061155000000000515e-01 2.101825000000000188e+01 8.199504999999999200e+01 1.482565000000000055e+03
6.199999999999999956e-02 5.067334999999999479e-01 2.251960000000000051e+01 8.496970000000000312e+01 1.483554999999999836e+03
6.300000000000000044e-02 5.073545000000000416e-01 2.400710000000000122e+01 8.796895000000000664e+01 1.484565000000000055e+03
6.400000000000000133e-02 5.079734999999999667e-01 2.546795000000000186e+01 9.096754999999998859e+01 1.485579999999999927e+03
6.500000000000000222e-02 5.085874999999999702e-01 2.689219999999999899e+01 9.394659999999998945e+01 1.486599999999999909e+03
6.600000000000000311e-02 5.091944999999999943e-01 2.827264999999999873e+01 9.689039999999999964e+01 1.487615000000000009e+03
6.700000000000000400e-02 5.097924999999999818e-01 2.960444999999999993e+01 9.978964999999999463e+01 1.488619999999999891e+03
6.800000000000000488e-02 5.103820000000000023e-01 3.088479999999999848e+01 1.026390999999999991e+02 1.489615000000000009e+03
6.900000000000000577e-02 5.109624999999999861e-01 3.211240000000000094e+01 1.054373500000000092e+02 1.490605000000000018e+03
7.000000000000000666e-02 5.115350000000000730e-01 3.328699999999999903e+01 1.081855999999999938e+02 1.491575000000000045e+03
7.100000000000000755e-02 5.121005000000000695e-01 3.440890000000000271e+01 1.108870000000000005e+02 1.492534999999999854e+03
7.200000000000000844e-02 5.126589999999999758e-01 3.547874999999999801e+01 1.135455000000000041e+02 1.493480000000000018e+03
7.300000000000000933e-02 5.132120000000000015e-01 3.649684999999999491e+01 1.161649999999999920e+02 1.494410000000000082e+03
7.399999999999999634e-02 5.137595000000000356e-01 3.746325000000000216e+01 1.187489999999999952e+02 1.495340000000000146e+03
7.499999999999999722e-02 5.143004999999999383e-01 3.837734999999999985e+01 1.212980000000000018e+02 1.496255000000000109e+03
7.599999999999999811e-02 5.148359999999999603e-01 3.923799999999999955e+01 1.238129999999999882e+02 1.497154999999999973e+03
7.699999999999999900e-02 5.153640000000000443e-01 4.004319999999999879e+01 1.262909999999999968e+02 1.498049999999999955e+03
7.799999999999999989e-02 5.158840000000000092e-01 4.079040000000000532e+01 1.287275000000000205e+02 1.498924999999999955e+03
7.900000000000000078e-02 5.163940000000000197e-01 4.147634999999999650e+01 1.311160000000000139e+02 1.499795000000000073e+03
8.000000000000000167e-02 5.168909999999999894e-01 4.209749999999999659e+01 1.334485000000000241e+02 1.500639999999999873e+03
8.100000000000000255e-02 5.173744999999999594e-01 4.265019999999999811e+01 1.357139999999999986e+02 1.501465000000000146e+03
8.200000000000000344e-02 5.178404999999999259e-01 4.313065000000000282e+01 1.379035000000000082e+02 1.502269999999999982e+03
8.300000000000000433e-02 5.182875000000000121e-01 4.353565000000000396e+01 1.400049999999999955e+02 1.503039999999999964e+03
8.400000000000000522e-02 5.187140000000000084e-01 4.386209999999999809e+01 1.420079999999999814e+02 1.503784999999999854e+03
8.500000000000000611e-02 5.191164999999999807e-01 4.410784999999999911e+01 1.439030000000000200e+02 1.504494999999999891e+03
8.600000000000000699e-02 5.194944999999999702e-01 4.427139999999999986e+01 1.456809999999999832e+02 1.505164999999999964e+03
8.700000000000000788e-02 5.198460000000000303e-01 4.435195000000000221e+01 1.473340000000000032e+02 1.505795000000000073e+03
8.800000000000000877e-02 5.201709999999999390e-01 4.434969999999999857e+01 1.488575000000000159e+02 1.506380000000000109e+03
8.899999999999999578e-02 5.204680000000000417e-01 4.426564999999999372e+01 1.502464999999999975e+02 1.506920000000000073e+03
8.999999999999999667e-02 5.207365000000000466e-01 4.410150000000000148e+01 1.514995000000000118e+02 1.507414999999999964e+03
9.099999999999999756e-02 5.209770000000000234e-01 4.385985000000000156e+01 1.526159999999999854e+02 1.507855000000000018e+03
9.199999999999999845e-02 5.211894999999999722e-01 4.354394999999999527e+01 1.535969999999999800e+02 1.508259999999999991e+03
9.299999999999999933e-02 5.213750000000000329e-01 4.315780000000000172e+01 1.544449999999999932e+02 1.508605000000000018e+03
9.400000000000000022e-02 5.215345000000000120e-01 4.270615000000000094e+01 1.551649999999999920e+02 1.508914999999999964e+03
9.500000000000000111e-02 5.216689999999999383e-01 4.219424999999999670e+01 1.557635000000000218e+02 1.509174999999999955e+03
9.600000000000000200e-02 5.217800000000000216e-01 4.162810000000000343e+01 1.562464999999999975e+02 1.509394999999999982e+03
9.700000000000000289e-02 5.218694999999999862e-01 4.101409999999999911e+01 1.566235000000000070e+02 1.509574999999999818e+03
9.800000000000000377e-02 5.219395000000000007e-01 4.035920000000000130e+01 1.569025000000000034e+02 1.509714999999999918e+03
9.900000000000000466e-02 5.219914999999999417e-01 3.967054999999999865e+01 1.570944999999999823e+02 1.509829999999999927e+03
1.000000000000000056e-01 5.220285000000000064e-01 3.895560000000000400e+01 1.572094999999999914e+02 1.509904999999999973e+03
1.010000000000000064e-01 5.220525000000000304e-01 3.822164999999999679e+01 1.572595000000000027e+02 1.509964999999999918e+03
1.020000000000000073e-01 5.220650000000000013e-01 3.747579999999999956e+01 1.572539999999999907e+02 1.509990000000000009e+03
1.030000000000000082e-01 5.220690000000000053e-01 3.672480000000000189e+01 1.572034999999999911e+02 1.510000000000000000e+03
1.040000000000000091e-01 5.220660000000000300e-01 3.597469999999999857e+01 1.571184999999999832e+02 1.509994999999999891e+03
1.050000000000000100e-01 5.220575000000000632e-01 3.523059999999999548e+01 1.570070000000000050e+02 1.509980000000000018e+03
1.059999999999999970e-01 5.220455000000000512e-01 3.449680000000000035e+01 1.568759999999999764e+02 1.509944999999999936e+03
1.069999999999999979e-01 5.220295000000000352e-01 3.377635000000000076e+01 1.567314999999999827e+02 1.509909999999999854e+03
1.079999999999999988e-01 5.220114999999999617e-01 3.307130000000000081e+01 1.565765000000000100e+02 1.509864999999999782e+03
1.089999999999999997e-01 5.219899999999999540e-01 3.238259999999999650e+01 1.564134999999999991e+02 1.509820000000000164e+03
1.100000000000000006e-01 5.219664999999999999e-01 3.170994999999999919e+01 1.562425000000000068e+02 1.509759999999999991e+03
1.110000000000000014e-01 5.219399999999999595e-01 3.105225000000000080e+01 1.560620000000000118e+02 1.509700000000000045e+03
1.120000000000000023e-01 5.219084999999999974e-01 3.040749999999999886e+01 1.558689999999999998e+02 1.509639999999999873e+03
1.130000000000000032e-01 5.218734999999999902e-01 2.977319999999999922e+01 1.556610000000000014e+02 1.509565000000000055e+03
1.140000000000000041e-01 5.218315000000000037e-01 2.914624999999999844e+01 1.554319999999999879e+02 1.509485000000000127e+03
1.150000000000000050e-01 5.217834999999999557e-01 2.852339999999999876e+01 1.551775000000000091e+02 1.509400000000000091e+03
1.160000000000000059e-01 5.217264999999999819e-01 2.790145000000000053e+01 1.548925000000000125e+02 1.509299999999999955e+03
1.170000000000000068e-01 5.216615000000000002e-01 2.727704999999999913e+01 1.545715000000000146e+02 1.509195000000000164e+03
1.180000000000000077e-01 5.215859999999999941e-01 2.664735000000000298e+01 1.542104999999999961e+02 1.509069999999999936e+03
1.190000000000000085e-01 5.215015000000000622e-01 2.600985000000000014e+01 1.538059999999999832e+02 1.508934999999999945e+03
1.200000000000000094e-01 5.214054999999999662e-01 2.536250000000000071e+01 1.533555000000000064e+02 1.508784999999999854e+03
1.209999999999999964e-01 5.212989999999999569e-01 2.470390000000000086e+01 1.528564999999999827e+02 1.508615000000000009e+03
1.219999999999999973e-01 5.211814999999999642e-01 2.403329999999999700e+01 1.523100000000000023e+02 1.508429999999999836e+03
1.229999999999999982e-01 5.210540000000000171e-01 2.335085000000000122e+01 1.517169999999999845e+02 1.508235000000000127e+03
1.239999999999999991e-01 5.209169999999999634e-01 2.265709999999999980e+01 1.510790000000000077e+02 1.508019999999999982e+03
1.250000000000000000e-01 5.207720000000000127e-01 2.195370000000000132e+01 1.503999999999999773e+02 1.507789999999999964e+03
1.260000000000000009e-01 5.206189999999999429e-01 2.124280000000000257e+01 1.496854999999999905e+02 1.507549999999999955e+03
1.270000000000000018e-01 5.204604999999999926e-01 2.052730000000000032e+01 1.489415000000000191e+02 1.507289999999999964e+03
1.280000000000000027e-01 5.202980000000000382e-01 1.981054999999999922e+01 1.481750000000000114e+02 1.507029999999999973e+03
1.290000000000000036e-01 5.201324999999999976e-01 1.909659999999999869e+01 1.473940000000000055e+02 1.506764999999999873e+03
1.300000000000000044e-01 5.199669999999999570e-01 1.838970000000000127e+01 1.466059999999999945e+02 1.506490000000000009e+03
1.310000000000000053e-01 5.198019999999999863e-01 1.769435000000000002e+01 1.458199999999999932e+02 1.506220000000000027e+03
1.320000000000000062e-01 5.196405000000000607e-01 1.701525000000000176e+01 1.450455000000000041e+02 1.505945000000000164e+03
1.330000000000000071e-01 5.194840000000000568e-01 1.635694999999999766e+01 1.442905000000000086e+02 1.505680000000000064e+03
1.340000000000000080e-01 5.193339999999999623e-01 1.572390000000000043e+01 1.435629999999999882e+02 1.505420000000000073e+03
1.350000000000000089e-01 5.191915000000000280e-01 1.512014999999999887e+01 1.428714999999999975e+02 1.505174999999999955e+03
1.360000000000000098e-01 5.190589999999999371e-01 1.454931500000000000e+01 1.422214999999999918e+02 1.504940000000000055e+03
1.370000000000000107e-01 5.189369999999999816e-01 1.401453000000000060e+01 1.416195000000000164e+02 1.504714999999999918e+03
1.380000000000000115e-01 5.188264999999999683e-01 1.351824500000000029e+01 1.410695000000000050e+02 1.504509999999999991e+03
1.390000000000000124e-01 5.187269999999999381e-01 1.306211000000000055e+01 1.405745000000000005e+02 1.504320000000000164e+03
1.400000000000000133e-01 5.186399999999999899e-01 1.264723000000000042e+01 1.401365000000000123e+02 1.504150000000000091e+03
1.410000000000000142e-01 5.185644999999999838e-01 1.227383000000000024e+01 1.397554999999999836e+02 1.504000000000000000e+03
1.420000000000000151e-01 5.185009999999999897e-01 1.194138500000000036e+01 1.394314999999999998e+02 1.503869999999999891e+03
1.430000000000000160e-01 5.184480000000000199e-01 1.164873500000000028e+01 1.391605000000000132e+02 1.503755000000000109e+03
1.440000000000000169e-01 5.184060000000000334e-01 1.139419499999999985e+01 1.389415000000000191e+02 1.503659999999999854e+03
1.450000000000000178e-01 5.183725000000000138e-01 1.117551500000000075e+01 1.387690000000000055e+02 1.503579999999999927e+03
1.459999999999999909e-01 5.183470000000000022e-01 1.098995500000000014e+01 1.386390000000000100e+02 1.503514999999999873e+03
1.469999999999999918e-01 5.183290000000000397e-01 1.083455000000000013e+01 1.385455000000000041e+02 1.503465000000000146e+03
1.479999999999999927e-01 5.183174999999999866e-01 1.070627499999999976e+01 1.384830000000000041e+02 1.503424999999999955e+03
1.489999999999999936e-01 5.183094999999999786e-01 1.060181500000000021e+01 1.384470000000000027e+02 1.503394999999999982e+03
1.499999999999999944e-01 5.183060000000000445e-01 1.051804500000000075e+01 1.384314999999999998e+02 1.503375000000000000e+03
1.509999999999999953e-01 5.183054999999999746e-01 1.045185500000000012e+01 1.384309999999999832e+02 1.503365000000000009e+03
1.519999999999999962e-01 5.183059999999999334e-01 1.040046999999999855e+01 1.384420000000000073e+02 1.503355000000000018e+03
1.529999999999999971e-01 5.183079999999999909e-01 1.036111999999999966e+01 1.384599999999999795e+02 1.503349999999999909e+03
1.539999999999999980e-01 5.183105000000000073e-01 1.033151499999999956e+01 1.384814999999999827e+02 1.503349999999999909e+03
1.549999999999999989e-01 5.183124999999999538e-01 1.030949000000000026e+01 1.385040000000000191e+02 1.503349999999999909e+03
1.559999999999999998e-01 5.183149999999999702e-01 1.029330000000000034e+01 1.385249999999999773e+02 1.503349999999999909e+03
1.570000000000000007e-01 5.183165000000000688e-01 1.028145999999999916e+01 1.385439999999999827e+02 1.503349999999999909e+03
1.580000000000000016e-01 5.183174999999999866e-01 1.027265500000000031e+01 1.385595000000000141e+02 1.503355000000000018e+03
1.590000000000000024e-01 5.183179999999999454e-01 1.026595000000000013e+01 1.385709999999999980e+02 1.503355000000000018e+03
