# t [s], A [cm^2], U [cm/s], P [cPa], c [cm/s]
1.000000000000000021e-03 1.658600000000000074e-01 4.745996000000000103e-01 1.038574999999999875e+02 2.079015000000000327e+03
2.000000000000000042e-03 1.658064999999999956e-01 2.276865999999999612e+00 9.983705000000000496e+01 2.078514999999999873e+03
3.000000000000000062e-03 1.656675000000000231e-01 4.442368500000000608e+00 9.449604999999999677e+01 2.077269999999999982e+03
4.000000000000000083e-03 1.654829999999999912e-01 6.855055000000000121e+00 8.901609999999999445e+01 2.075639999999999873e+03
5.000000000000000104e-03 1.652895000000000059e-01 9.405295000000000627e+00 8.436654999999998950e+01 2.073945000000000164e+03
6.000000000000000125e-03 1.651044999999999874e-01 1.185022999999999982e+01 8.064060000000000628e+01 2.072345000000000255e+03
7.000000000000000146e-03 1.649315000000000087e-01 1.397147499999999987e+01 7.742109999999999559e+01 2.070869999999999891e+03
8.000000000000000167e-03 1.647744999999999904e-01 1.574319999999999808e+01 7.453929999999999723e+01 2.069565000000000055e+03
9.000000000000001055e-03 1.646385000000000209e-01 1.722400000000000020e+01 7.210925000000000296e+01 2.068440000000000055e+03
1.000000000000000194e-02 1.645244999999999902e-01 1.843990000000000151e+01 7.015779999999999461e+01 2.067515000000000327e+03
1.099999999999999936e-02 1.644319999999999948e-01 1.940599999999999881e+01 6.861549999999999727e+01 2.066765000000000327e+03
1.200000000000000025e-02 1.643570000000000031e-01 2.013700000000000045e+01 6.739455000000000950e+01 2.066170000000000073e+03
1.300000000000000114e-02 1.642965000000000120e-01 2.064095000000000013e+01 6.637330000000000041e+01 2.065699999999999818e+03
1.400000000000000203e-02 1.642454999999999887e-01 2.095884999999999820e+01 6.548069999999999879e+01 2.065309999999999945e+03
1.499999999999999944e-02 1.642069999999999919e-01 2.121059999999999945e+01 6.486485000000000412e+01 2.065020000000000437e+03
1.600000000000000033e-02 1.641874999999999862e-01 2.156899999999999906e+01 6.490470000000000539e+01 2.064880000000000109e+03
1.700000000000000122e-02 1.641970000000000096e-01 2.216839999999999833e+01 6.598170000000000357e+01 2.064965000000000146e+03
1.800000000000000211e-02 1.642405000000000115e-01 2.302214999999999989e+01 6.818805000000000405e+01 2.065324999999999818e+03
1.900000000000000300e-02 1.643140000000000156e-01 2.400614999999999810e+01 7.119095000000000084e+01 2.065929999999999836e+03
2.000000000000000042e-02 1.644039999999999946e-01 2.491230000000000189e+01 7.433035000000000991e+01 2.066670000000000073e+03
2.100000000000000130e-02 1.644915000000000127e-01 2.553495000000000203e+01 7.687244999999998640e+01 2.067404999999999745e+03
2.200000000000000219e-02 1.645594999999999974e-01 2.574694999999999823e+01 7.828119999999999834e+01 2.067989999999999782e+03
2.299999999999999961e-02 1.645969999999999933e-01 2.553630000000000067e+01 7.838814999999999600e+01 2.068329999999999927e+03
2.400000000000000050e-02 1.646029999999999993e-01 2.499439999999999884e+01 7.740500000000000114e+01 2.068409999999999854e+03
2.500000000000000139e-02 1.645829999999999793e-01 2.426699999999999946e+01 7.579204999999998904e+01 2.068265000000000327e+03
2.600000000000000228e-02 1.645484999999999864e-01 2.349459999999999837e+01 7.405610000000000070e+01 2.067994999999999891e+03
2.700000000000000316e-02 1.645105000000000040e-01 2.276624999999999943e+01 7.256754999999999711e+01 2.067680000000000291e+03
2.800000000000000058e-02 1.644749999999999823e-01 2.210215000000000174e+01 7.146395000000001119e+01 2.067394999999999982e+03
2.900000000000000147e-02 1.644454999999999945e-01 2.146614999999999895e+01 7.065874999999999773e+01 2.067144999999999982e+03
3.000000000000000236e-02 1.644184999999999952e-01 2.079680000000000106e+01 6.993075000000000330e+01 2.066925000000000182e+03
3.099999999999999978e-02 1.643895000000000217e-01 2.004354999999999976e+01 6.904879999999999995e+01 2.066685000000000400e+03
3.200000000000000067e-02 1.643540000000000001e-01 1.919529999999999959e+01 6.788315000000000055e+01 2.066404999999999745e+03
3.300000000000000155e-02 1.643120000000000136e-01 1.829249999999999687e+01 6.646984999999999388e+01 2.066059999999999945e+03
3.400000000000000244e-02 1.642655000000000087e-01 1.742065000000000197e+01 6.501064999999999827e+01 2.065684999999999945e+03
3.500000000000000333e-02 1.642220000000000069e-01 1.668730000000000047e+01 6.381195000000000306e+01 2.065324999999999818e+03
3.600000000000000422e-02 1.641894999999999882e-01 1.619034999999999869e+01 6.318755000000000166e+01 2.065045000000000073e+03
3.700000000000000511e-02 1.641755000000000020e-01 1.598959999999999937e+01 6.335665000000000191e+01 2.064920000000000073e+03
3.799999999999999906e-02 1.641849999999999976e-01 1.608859999999999957e+01 6.437330000000000041e+01 2.064974999999999909e+03
3.899999999999999994e-02 1.642170000000000019e-01 1.643229999999999791e+01 6.610309999999999775e+01 2.065224999999999909e+03
4.000000000000000083e-02 1.642679999999999974e-01 1.691884999999999906e+01 6.825175000000000125e+01 2.065635000000000218e+03
4.100000000000000172e-02 1.643290000000000028e-01 1.742060000000000031e+01 7.043004999999999427e+01 2.066125000000000000e+03
4.200000000000000261e-02 1.643890000000000073e-01 1.780815000000000126e+01 7.223425000000000296e+01 2.066609999999999673e+03
4.300000000000000350e-02 1.644369999999999998e-01 1.797145000000000081e+01 7.332030000000000314e+01 2.067015000000000327e+03
4.400000000000000439e-02 1.644645000000000135e-01 1.783395000000000152e+01 7.345599999999998886e+01 2.067239999999999782e+03
4.499999999999999833e-02 1.644634999999999847e-01 1.735829999999999984e+01 7.254394999999999527e+01 2.067250000000000000e+03
4.599999999999999922e-02 1.644324999999999815e-01 1.654500000000000171e+01 7.061584999999999468e+01 2.067010000000000218e+03
4.700000000000000011e-02 1.643720000000000181e-01 1.542494999999999905e+01 6.780535000000000423e+01 2.066525000000000091e+03
4.800000000000000100e-02 1.642845000000000000e-01 1.405014999999999858e+01 6.431040000000000134e+01 2.065809999999999945e+03
4.900000000000000189e-02 1.641755000000000020e-01 1.248383000000000109e+01 6.035515000000000185e+01 2.064930000000000291e+03
5.000000000000000278e-02 1.640510000000000024e-01 1.079316500000000012e+01 5.616020000000000323e+01 2.063904999999999745e+03
5.100000000000000366e-02 1.639165000000000205e-01 9.044930000000000803e+00 5.192484999999999928e+01 2.062805000000000291e+03
5.200000000000000455e-02 1.637795000000000223e-01 7.303149999999999586e+00 4.782080000000000553e+01 2.061680000000000291e+03
5.300000000000000544e-02 1.636440000000000117e-01 5.629425000000000345e+00 4.399495000000000289e+01 2.060560000000000400e+03
5.399999999999999939e-02 1.635155000000000081e-01 4.083172000000000246e+00 4.057625000000000171e+01 2.059505000000000109e+03
5.500000000000000028e-02 1.633995000000000031e-01 2.722029000000000032e+00 3.768245000000000289e+01 2.058534999999999854e+03
5.600000000000000117e-02 1.632989999999999997e-01 1.601199999999999957e+00 3.542394999999999783e+01 2.057699999999999818e+03
5.700000000000000205e-02 1.632184999999999886e-01 7.716999999999999416e-01 3.390319999999999823e+01 2.057024999999999636e+03
5.800000000000000294e-02 1.631620000000000015e-01 2.776799999999999269e-01 3.320974999999999966e+01 2.056545000000000073e+03
5.900000000000000383e-02 1.631319999999999992e-01 1.533839999999999926e-01 3.341299999999999670e+01 2.056280000000000200e+03
6.000000000000000472e-02 1.631319999999999992e-01 4.202329499999999940e-01 3.455380000000000251e+01 2.056260000000000218e+03
6.099999999999999867e-02 1.631624999999999881e-01 1.084729999999999972e+00 3.663800000000000523e+01 2.056485000000000127e+03
6.199999999999999956e-02 1.632239999999999802e-01 2.137529999999999930e+00 3.963275000000000148e+01 2.056970000000000255e+03
6.300000000000000044e-02 1.633160000000000167e-01 3.553889499999999924e+00 4.346729999999999450e+01 2.057704999999999927e+03
6.400000000000000133e-02 1.634364999999999846e-01 5.295309999999999739e+00 4.803710000000000235e+01 2.058670000000000073e+03
6.500000000000000222e-02 1.635814999999999908e-01 7.312204999999999622e+00 5.321134999999999593e+01 2.059845000000000255e+03
6.600000000000000311e-02 1.637480000000000047e-01 9.547185000000000699e+00 5.884239999999999782e+01 2.061199999999999818e+03
6.700000000000000400e-02 1.639309999999999934e-01 1.193840499999999949e+01 6.477559999999999718e+01 2.062699999999999818e+03
6.800000000000000488e-02 1.641259999999999941e-01 1.442298999999999864e+01 7.085865000000001146e+01 2.064295000000000073e+03
6.900000000000000577e-02 1.643279999999999741e-01 1.694030000000000058e+01 7.695029999999999859e+01 2.065965000000000146e+03
7.000000000000000666e-02 1.645324999999999982e-01 1.943469999999999942e+01 8.292685000000000173e+01 2.067654999999999745e+03
7.100000000000000755e-02 1.647355000000000069e-01 2.185784999999999911e+01 8.868764999999999077e+01 2.069345000000000255e+03
7.200000000000000844e-02 1.649339999999999973e-01 2.417070000000000007e+01 9.415870000000001028e+01 2.071005000000000109e+03
7.300000000000000933e-02 1.651245000000000074e-01 2.634475000000000122e+01 9.929570000000001073e+01 2.072595000000000255e+03
7.399999999999999634e-02 1.653064999999999951e-01 2.836270000000000024e+01 1.040816000000000088e+02 2.074125000000000000e+03
7.499999999999999722e-02 1.654785000000000006e-01 3.021855000000000047e+01 1.085285000000000082e+02 2.075569999999999709e+03
7.599999999999999811e-02 1.656404999999999961e-01 3.191604999999999848e+01 1.126705000000000041e+02 2.076940000000000055e+03
7.699999999999999900e-02 1.657929999999999959e-01 3.346779999999999688e+01 1.165614999999999952e+02 2.078234999999999673e+03
7.799999999999999989e-02 1.659384999999999888e-01 3.489289999999999736e+01 1.202655000000000030e+02 2.079470000000000255e+03
7.900000000000000078e-02 1.660780000000000034e-01 3.621430000000000149e+01 1.238534999999999968e+02 2.080659999999999854e+03
8.000000000000000167e-02 1.662140000000000006e-01 3.745649999999999835e+01 1.273919999999999959e+02 2.081805000000000291e+03
8.100000000000000255e-02 1.663469999999999949e-01 3.864279999999999404e+01 1.309415000000000191e+02 2.082940000000000055e+03
8.200000000000000344e-02 1.664804999999999757e-01 3.979349999999999454e+01 1.345459999999999923e+02 2.084074999999999818e+03
8.300000000000000433e-02 1.666150000000000131e-01 4.092409999999999570e+01 1.382344999999999970e+02 2.085215000000000146e+03
8.400000000000000522e-02 1.667514999999999969e-01 4.204404999999999859e+01 1.420159999999999911e+02 2.086375000000000000e+03
8.500000000000000611e-02 1.668899999999999828e-01 4.315635000000000332e+01 1.458824999999999932e+02 2.087555000000000291e+03
8.600000000000000699e-02 1.670309999999999850e-01 4.425780000000000314e+01 1.498060000000000116e+02 2.088750000000000000e+03
8.700000000000000788e-02 1.671730000000000160e-01 4.533910000000000196e+01 1.537444999999999879e+02 2.089954999999999927e+03
8.800000000000000877e-02 1.673149999999999915e-01 4.638585000000000491e+01 1.576449999999999818e+02 2.091159999999999854e+03
8.899999999999999578e-02 1.674549999999999927e-01 4.738015000000000043e+01 1.614465000000000146e+02 2.092350000000000364e+03
8.999999999999999667e-02 1.675915000000000044e-01 4.830145000000000266e+01 1.650844999999999914e+02 2.093515000000000327e+03
9.099999999999999756e-02 1.677220000000000100e-01 4.912829999999999586e+01 1.684945000000000164e+02 2.094635000000000218e+03
9.199999999999999845e-02 1.678459999999999952e-01 4.983970000000000056e+01 1.716184999999999832e+02 2.095690000000000055e+03
9.299999999999999933e-02 1.679594999999999838e-01 5.041624999999999801e+01 1.744035000000000082e+02 2.096664999999999964e+03
9.400000000000000022e-02 1.680619999999999892e-01 5.084154999999999802e+01 1.768064999999999998e+02 2.097550000000000182e+03
9.500000000000000111e-02 1.681520000000000237e-01 5.110294999999999987e+01 1.787980000000000018e+02 2.098320000000000164e+03
9.600000000000000200e-02 1.682285000000000030e-01 5.119214999999999804e+01 1.803590000000000089e+02 2.098985000000000127e+03
9.700000000000000289e-02 1.682909999999999962e-01 5.110609999999999786e+01 1.814850000000000136e+02 2.099525000000000091e+03
9.800000000000000377e-02 1.683379999999999876e-01 5.084680000000000177e+01 1.821850000000000023e+02 2.099945000000000164e+03
9.900000000000000466e-02 1.683715000000000073e-01 5.042139999999999844e+01 1.824800000000000182e+02 2.100239999999999782e+03
1.000000000000000056e-01 1.683910000000000129e-01 4.984189999999999543e+01 1.824019999999999868e+02 2.100425000000000182e+03
1.010000000000000064e-01 1.683979999999999921e-01 4.912449999999999761e+01 1.819929999999999950e+02 2.100489999999999782e+03
1.020000000000000073e-01 1.683925000000000005e-01 4.828875000000000028e+01 1.813029999999999973e+02 2.100460000000000036e+03
1.030000000000000082e-01 1.683775000000000133e-01 4.735679999999999978e+01 1.803855000000000075e+02 2.100340000000000146e+03
1.040000000000000091e-01 1.683540000000000036e-01 4.635235000000000127e+01 1.792959999999999923e+02 2.100150000000000091e+03
1.050000000000000100e-01 1.683240000000000014e-01 4.529935000000000400e+01 1.780914999999999964e+02 2.099899999999999636e+03
1.059999999999999970e-01 1.682895000000000085e-01 4.422124999999999773e+01 1.768240000000000123e+02 2.099609999999999673e+03
1.069999999999999979e-01 1.682514999999999983e-01 4.313994999999999891e+01 1.755425000000000182e+02 2.099295000000000073e+03
1.079999999999999988e-01 1.682115000000000138e-01 4.207469999999999999e+01 1.742869999999999777e+02 2.098960000000000036e+03
1.089999999999999997e-01 1.681719999999999882e-01 4.104194999999999993e+01 1.730914999999999964e+02 2.098625000000000000e+03
1.100000000000000006e-01 1.681334999999999913e-01 4.005419999999999447e+01 1.719784999999999968e+02 2.098289999999999964e+03
1.110000000000000014e-01 1.680965000000000098e-01 3.912004999999999910e+01 1.709625000000000057e+02 2.097980000000000018e+03
1.120000000000000023e-01 1.680619999999999892e-01 3.824410000000000309e+01 1.700484999999999900e+02 2.097680000000000291e+03
1.130000000000000032e-01 1.680304999999999993e-01 3.742690000000000339e+01 1.692309999999999945e+02 2.097404999999999745e+03
1.140000000000000041e-01 1.680004999999999971e-01 3.666519999999999868e+01 1.684964999999999975e+02 2.097149999999999636e+03
1.150000000000000050e-01 1.679734999999999978e-01 3.595230000000000103e+01 1.678240000000000123e+02 2.096920000000000073e+03
1.160000000000000059e-01 1.679485000000000006e-01 3.527899999999999636e+01 1.671895000000000095e+02 2.096699999999999818e+03
1.170000000000000068e-01 1.679240000000000177e-01 3.463374999999999915e+01 1.665620000000000118e+02 2.096485000000000127e+03
1.180000000000000077e-01 1.678995000000000071e-01 3.400390000000000157e+01 1.659099999999999966e+02 2.096275000000000091e+03
1.190000000000000085e-01 1.678749999999999964e-01 3.337599999999999767e+01 1.652010000000000218e+02 2.096054999999999836e+03
1.200000000000000094e-01 1.678474999999999828e-01 3.273709999999999809e+01 1.644060000000000059e+02 2.095824999999999818e+03
1.209999999999999964e-01 1.678180000000000227e-01 3.207529999999999859e+01 1.634975000000000023e+02 2.095574999999999818e+03
1.219999999999999973e-01 1.677845000000000031e-01 3.138020000000000209e+01 1.624560000000000173e+02 2.095284999999999854e+03
1.229999999999999982e-01 1.677474999999999938e-01 3.064399999999999835e+01 1.612655000000000030e+02 2.094970000000000255e+03
1.239999999999999991e-01 1.677045000000000063e-01 2.986149999999999949e+01 1.599189999999999827e+02 2.094609999999999673e+03
1.250000000000000000e-01 1.676575000000000149e-01 2.903059999999999974e+01 1.584165000000000134e+02 2.094210000000000036e+03
1.260000000000000009e-01 1.676050000000000040e-01 2.815249999999999986e+01 1.567669999999999959e+02 2.093769999999999982e+03
1.270000000000000018e-01 1.675484999999999891e-01 2.723165000000000191e+01 1.549865000000000066e+02 2.093284999999999854e+03
1.280000000000000027e-01 1.674869999999999970e-01 2.627539999999999765e+01 1.530975000000000250e+02 2.092769999999999982e+03
1.290000000000000036e-01 1.674220000000000153e-01 2.529379999999999740e+01 1.511304999999999836e+02 2.092220000000000255e+03
1.300000000000000044e-01 1.673545000000000171e-01 2.429899999999999949e+01 1.491170000000000186e+02 2.091644999999999982e+03
1.310000000000000053e-01 1.672850000000000170e-01 2.330474999999999852e+01 1.470949999999999989e+02 2.091059999999999945e+03
1.320000000000000062e-01 1.672155000000000169e-01 2.232554999999999978e+01 1.451009999999999991e+02 2.090470000000000255e+03
1.330000000000000071e-01 1.671455000000000024e-01 2.137610000000000099e+01 1.431709999999999923e+02 2.089885000000000218e+03
1.340000000000000080e-01 1.670780000000000043e-01 2.047054999999999936e+01 1.413410000000000082e+02 2.089309999999999945e+03
1.350000000000000089e-01 1.670139999999999958e-01 1.962174999999999869e+01 1.396399999999999864e+02 2.088764999999999873e+03
1.360000000000000098e-01 1.669535000000000047e-01 1.884084999999999965e+01 1.380944999999999823e+02 2.088250000000000000e+03
1.370000000000000107e-01 1.668979999999999908e-01 1.813664999999999949e+01 1.367224999999999966e+02 2.087775000000000091e+03
1.380000000000000115e-01 1.668479999999999963e-01 1.751550000000000296e+01 1.355364999999999895e+02 2.087349999999999909e+03
1.390000000000000124e-01 1.668034999999999934e-01 1.698104999999999976e+01 1.345434999999999945e+02 2.086970000000000255e+03
1.400000000000000133e-01 1.667659999999999976e-01 1.653410000000000224e+01 1.337404999999999973e+02 2.086640000000000327e+03
1.410000000000000142e-01 1.667345000000000077e-01 1.617289999999999850e+01 1.331214999999999975e+02 2.086364999999999782e+03
1.420000000000000151e-01 1.667084999999999817e-01 1.589329999999999998e+01 1.326739999999999782e+02 2.086140000000000327e+03
1.430000000000000160e-01 1.666890000000000038e-01 1.568894999999999840e+01 1.323805000000000121e+02 2.085965000000000146e+03
1.440000000000000169e-01 1.666739999999999888e-01 1.555180000000000007e+01 1.322205000000000155e+02 2.085840000000000146e+03
1.450000000000000178e-01 1.666640000000000066e-01 1.547269999999999968e+01 1.321709999999999923e+02 2.085750000000000000e+03
1.459999999999999909e-01 1.666584999999999872e-01 1.544150000000000134e+01 1.322090000000000032e+02 2.085690000000000055e+03
1.469999999999999918e-01 1.666555000000000120e-01 1.544780000000000086e+01 1.323100000000000023e+02 2.085664999999999964e+03
1.479999999999999927e-01 1.666555000000000120e-01 1.548120000000000118e+01 1.324509999999999934e+02 2.085659999999999854e+03
1.489999999999999936e-01 1.666569999999999996e-01 1.553169999999999895e+01 1.326109999999999900e+02 2.085670000000000073e+03
1.499999999999999944e-01 1.666595000000000160e-01 1.558994999999999997e+01 1.327710000000000150e+02 2.085684999999999945e+03
1.509999999999999953e-01 1.666624999999999912e-01 1.564789999999999992e+01 1.329149999999999920e+02 2.085715000000000146e+03
1.519999999999999962e-01 1.666654999999999942e-01 1.569855000000000089e+01 1.330294999999999845e+02 2.085739999999999782e+03
1.529999999999999971e-01 1.666679999999999828e-01 1.573629999999999995e+01 1.331055000000000064e+02 2.085760000000000218e+03
1.539999999999999980e-01 1.666694999999999982e-01 1.575710000000000122e+01 1.331365000000000123e+02 2.085769999999999982e+03
1.549999999999999989e-01 1.666699999999999848e-01 1.575835000000000008e+01 1.331210000000000093e+02 2.085769999999999982e+03
1.559999999999999998e-01 1.666690000000000116e-01 1.573904999999999887e+01 1.330584999999999809e+02 2.085765000000000327e+03
1.570000000000000007e-01 1.666670000000000096e-01 1.569940000000000069e+01 1.329524999999999864e+02 2.085744999999999891e+03
1.580000000000000016e-01 1.666630000000000056e-01 1.564100000000000001e+01 1.328100000000000023e+02 2.085715000000000146e+03
1.590000000000000024e-01 1.666584999999999872e-01 1.556639999999999979e+01 1.326380000000000052e+02 2.085680000000000291e+03
