# t [s], A [cm^2], U [cm/s], P [cPa], c [cm/s]
1.000000000000000021e-03 7.045049999999999368e-01 6.329200000000000104e-03 1.069009999999999962e+02 1.612079999999999927e+03
2.000000000000000042e-03 7.044909999999999783e-01 -4.656567999999999818e-03 1.068714999999999975e+02 1.612070000000000164e+03
3.000000000000000062e-03 7.045420000000000016e-01 7.247734999999999594e-02 1.069544999999999959e+02 1.612095000000000027e+03
4.000000000000000083e-03 7.046019999999999506e-01 1.743038000000000087e-01 1.070824999999999960e+02 1.612125000000000000e+03
5.000000000000000104e-03 7.045859999999999346e-01 1.719950000000000090e-01 1.070584999999999951e+02 1.612125000000000000e+03
6.000000000000000125e-03 7.045114999999999572e-01 7.779600000000000404e-02 1.068569999999999993e+02 1.612079999999999927e+03
7.000000000000000146e-03 7.044489999999999919e-01 -3.691500000000014214e-03 1.066064999999999969e+02 1.612014999999999873e+03
8.000000000000000167e-03 7.043684999999999530e-01 -1.246665000000000134e-01 1.062690000000000055e+02 1.611934999999999945e+03
9.000000000000001055e-03 7.042275000000000063e-01 -3.586800000000001098e-01 1.057439999999999998e+02 1.611815000000000055e+03
1.000000000000000194e-02 7.040250000000000119e-01 -7.071450000000000236e-01 1.049954999999999927e+02 1.611639999999999873e+03
1.099999999999999936e-02 7.037459999999999827e-01 -1.182595000000000063e+00 1.039724999999999966e+02 1.611389999999999873e+03
1.200000000000000025e-02 7.033694999999999808e-01 -1.806859999999999911e+00 1.026038499999999942e+02 1.611065000000000055e+03
1.300000000000000114e-02 7.029075000000000184e-01 -2.536450000000000315e+00 1.008960500000000025e+02 1.610644999999999982e+03
1.400000000000000203e-02 7.024249999999999661e-01 -3.241824999999999957e+00 9.898324999999999818e+01 1.610160000000000082e+03
1.499999999999999944e-02 7.019949999999999246e-01 -3.767918000000000323e+00 9.707089999999999463e+01 1.609654999999999973e+03
1.600000000000000033e-02 7.016609999999999792e-01 -4.009189250000000371e+00 9.533539999999999281e+01 1.609179999999999836e+03
1.700000000000000122e-02 7.014194999999999736e-01 -3.943876500000000007e+00 9.385595000000000709e+01 1.608740000000000009e+03
1.800000000000000211e-02 7.012329999999999952e-01 -3.624063500000000104e+00 9.260290000000000532e+01 1.608349999999999909e+03
1.900000000000000300e-02 7.010464999999999058e-01 -3.141819499999999987e+00 9.147034999999999627e+01 1.607980000000000018e+03
2.000000000000000042e-02 7.008149999999999658e-01 -2.590566499999999994e+00 9.032644999999999413e+01 1.607610000000000127e+03
2.100000000000000130e-02 7.005129999999999413e-01 -2.034140000000000281e+00 8.906374999999999886e+01 1.607215000000000146e+03
2.200000000000000219e-02 7.001414999999999722e-01 -1.491585000000000161e+00 8.763354999999999961e+01 1.606779999999999973e+03
2.299999999999999961e-02 6.997240000000000126e-01 -9.411899999999999711e-01 8.605469999999999686e+01 1.606299999999999955e+03
2.400000000000000050e-02 6.992945000000000411e-01 -3.405150000000003452e-01 8.439480000000000359e+01 1.605805000000000064e+03
2.500000000000000139e-02 6.988805000000000156e-01 3.475950000000000983e-01 8.273584999999999923e+01 1.605304999999999836e+03
2.600000000000000228e-02 6.984954999999999359e-01 1.133820000000000050e+00 8.113909999999999911e+01 1.604815000000000055e+03
2.700000000000000316e-02 6.981319999999999748e-01 1.992364999999999942e+00 7.962085000000000434e+01 1.604340000000000146e+03
2.800000000000000058e-02 6.977685000000000137e-01 2.863164999999999960e+00 7.814470000000000027e+01 1.603880000000000109e+03
2.900000000000000147e-02 6.973705000000000043e-01 3.663735000000000408e+00 7.663009999999999877e+01 1.603405000000000200e+03
3.000000000000000236e-02 6.969054999999999556e-01 4.307000000000000384e+00 7.497265000000000157e+01 1.602909999999999854e+03
3.099999999999999978e-02 6.963464999999999794e-01 4.720924999999999372e+00 7.307264999999999588e+01 1.602355000000000018e+03
3.200000000000000067e-02 6.956849999999999978e-01 4.865779999999999994e+00 7.086379999999999768e+01 1.601735000000000127e+03
3.300000000000000155e-02 6.949319999999999942e-01 4.743254999999999555e+00 6.833459999999999468e+01 1.601039999999999964e+03
3.400000000000000244e-02 6.941154999999999964e-01 4.395519999999999428e+00 6.553605000000000302e+01 1.600284999999999854e+03
3.500000000000000333e-02 6.932780000000000609e-01 3.893920000000000492e+00 6.257334999999999781e+01 1.599480000000000018e+03
3.600000000000000422e-02 6.924630000000000507e-01 3.323034999999999517e+00 5.958624999999999972e+01 1.598659999999999854e+03
3.700000000000000511e-02 6.917119999999999935e-01 2.764494999999999703e+00 5.672449999999999903e+01 1.597865000000000009e+03
3.799999999999999906e-02 6.910574999999999912e-01 2.285465000000000302e+00 5.412630000000000052e+01 1.597125000000000000e+03
3.899999999999999994e-02 6.905185000000000350e-01 1.932984999999999953e+00 5.190279999999999916e+01 1.596474999999999909e+03
4.000000000000000083e-02 6.901059999999999972e-01 1.733354999999999979e+00 5.013030000000000541e+01 1.595934999999999945e+03
4.100000000000000172e-02 6.898215000000000874e-01 1.695734999999999992e+00 4.884959999999999525e+01 1.595514999999999873e+03
4.200000000000000261e-02 6.896595000000000919e-01 1.817888500000000018e+00 4.807099999999999795e+01 1.595235000000000127e+03
4.300000000000000350e-02 6.896145000000000191e-01 2.092503999999999920e+00 4.778279999999999461e+01 1.595079999999999927e+03
4.400000000000000439e-02 6.896774999999999434e-01 2.512599999999999945e+00 4.796105000000000018e+01 1.595059999999999945e+03
4.499999999999999833e-02 6.898440000000000127e-01 3.074914999999999843e+00 4.857789999999999964e+01 1.595160000000000082e+03
4.599999999999999922e-02 6.901095000000000423e-01 3.780717500000000175e+00 4.960734999999999673e+01 1.595380000000000109e+03
4.700000000000000011e-02 6.904704999999999870e-01 4.634139500000000744e+00 5.102710000000000434e+01 1.595715000000000146e+03
4.800000000000000100e-02 6.909255000000000813e-01 5.639015500000000181e+00 5.281690000000000396e+01 1.596159999999999854e+03
4.900000000000000189e-02 6.914694999999999592e-01 6.795250000000000234e+00 5.495544999999999902e+01 1.596700000000000045e+03
5.000000000000000278e-02 6.920954999999999746e-01 8.096120000000000871e+00 5.741629999999999256e+01 1.597335000000000036e+03
5.100000000000000366e-02 6.927935000000000620e-01 9.526729999999998810e+00 6.016525000000000034e+01 1.598054999999999836e+03
5.200000000000000455e-02 6.935489999999999711e-01 1.106438999999999950e+01 6.315865000000000151e+01 1.598849999999999909e+03
5.300000000000000544e-02 6.943489999999999940e-01 1.268008500000000005e+01 6.634475000000000477e+01 1.599710000000000036e+03
5.399999999999999939e-02 6.951750000000000984e-01 1.434129499999999879e+01 6.966639999999999588e+01 1.600610000000000127e+03
5.500000000000000028e-02 6.960135000000000627e-01 1.601475500000000096e+01 7.306454999999999700e+01 1.601549999999999955e+03
5.600000000000000117e-02 6.968490000000000517e-01 1.766939999999999955e+01 7.648259999999999081e+01 1.602500000000000000e+03
5.700000000000000205e-02 6.976705000000000823e-01 1.927850000000000108e+01 7.987059999999999604e+01 1.603450000000000045e+03
5.800000000000000294e-02 6.984704999999999941e-01 2.082124999999999915e+01 8.318795000000000073e+01 1.604394999999999982e+03
5.900000000000000383e-02 6.992435000000000178e-01 2.228314999999999912e+01 8.640540000000000020e+01 1.605325000000000045e+03
6.000000000000000472e-02 6.999870000000000259e-01 2.365610000000000213e+01 8.950549999999999784e+01 1.606230000000000018e+03
6.099999999999999867e-02 7.007019999999999360e-01 2.493720000000000070e+01 9.248210000000000264e+01 1.607105000000000018e+03
6.199999999999999956e-02 7.013914999999999456e-01 2.612814999999999799e+01 9.533934999999999604e+01 1.607944999999999936e+03
6.300000000000000044e-02 7.020585000000000298e-01 2.723369999999999891e+01 9.808750000000000568e+01 1.608764999999999873e+03
6.400000000000000133e-02 7.027094999999999869e-01 2.826099999999999923e+01 1.007443999999999988e+02 1.609559999999999945e+03
6.500000000000000222e-02 7.033475000000000144e-01 2.921824999999999761e+01 1.033292500000000018e+02 1.610329999999999927e+03
6.600000000000000311e-02 7.039790000000000214e-01 3.011415000000000219e+01 1.058631499999999903e+02 1.611089999999999918e+03
6.700000000000000400e-02 7.046075000000000532e-01 3.095689999999999742e+01 1.083669999999999902e+02 1.611840000000000146e+03
6.800000000000000488e-02 7.052374999999999616e-01 3.175359999999999872e+01 1.108575000000000017e+02 1.612585000000000036e+03
6.900000000000000577e-02 7.058705000000000673e-01 3.250985000000000014e+01 1.133474999999999966e+02 1.613329999999999927e+03
7.000000000000000666e-02 7.065074999999999550e-01 3.322885000000000133e+01 1.158455000000000013e+02 1.614065000000000055e+03
7.100000000000000755e-02 7.071479999999999988e-01 3.391154999999999831e+01 1.183520000000000039e+02 1.614815000000000055e+03
7.200000000000000844e-02 7.077895000000000714e-01 3.455625000000000568e+01 1.208615000000000066e+02 1.615559999999999945e+03
7.300000000000000933e-02 7.084274999999999878e-01 3.515885000000000105e+01 1.233635000000000019e+02 1.616299999999999955e+03
7.399999999999999634e-02 7.090579999999999661e-01 3.571330000000000382e+01 1.258404999999999916e+02 1.617035000000000082e+03
7.499999999999999722e-02 7.096750000000000558e-01 3.621219999999999573e+01 1.282719999999999914e+02 1.617759999999999991e+03
7.599999999999999811e-02 7.102720000000000145e-01 3.664744999999999919e+01 1.306340000000000146e+02 1.618469999999999800e+03
7.699999999999999900e-02 7.108434999999999615e-01 3.701104999999999734e+01 1.329029999999999916e+02 1.619154999999999973e+03
7.799999999999999989e-02 7.113834999999999464e-01 3.729554999999999865e+01 1.350545000000000186e+02 1.619809999999999945e+03
7.900000000000000078e-02 7.118864999999999776e-01 3.749474999999999625e+01 1.370670000000000073e+02 1.620425000000000182e+03
8.000000000000000167e-02 7.123485000000000511e-01 3.760389999999999588e+01 1.389219999999999970e+02 1.620994999999999891e+03
8.100000000000000255e-02 7.127674999999999983e-01 3.762019999999999698e+01 1.406050000000000182e+02 1.621525000000000091e+03
8.200000000000000344e-02 7.131410000000000249e-01 3.754240000000000066e+01 1.421065000000000111e+02 1.622000000000000000e+03
8.300000000000000433e-02 7.134685000000000610e-01 3.737160000000000082e+01 1.434209999999999923e+02 1.622425000000000182e+03
8.400000000000000522e-02 7.137495000000000367e-01 3.711029999999999518e+01 1.445469999999999970e+02 1.622795000000000073e+03
8.500000000000000611e-02 7.139865000000000794e-01 3.676330000000000098e+01 1.454900000000000091e+02 1.623115000000000009e+03
8.600000000000000699e-02 7.141809999999999548e-01 3.633669999999999334e+01 1.462554999999999836e+02 1.623384999999999991e+03
8.700000000000000788e-02 7.143355000000000121e-01 3.583820000000000050e+01 1.468569999999999993e+02 1.623599999999999909e+03
8.800000000000000877e-02 7.144555000000000211e-01 3.527689999999999770e+01 1.473079999999999927e+02 1.623775000000000091e+03
8.899999999999999578e-02 7.145440000000000680e-01 3.466290000000000049e+01 1.476260000000000048e+02 1.623905000000000200e+03
8.999999999999999667e-02 7.146060000000000745e-01 3.400714999999999577e+01 1.478294999999999959e+02 1.624000000000000000e+03
9.099999999999999756e-02 7.146464999999999623e-01 3.332090000000000174e+01 1.479385000000000048e+02 1.624065000000000055e+03
9.199999999999999845e-02 7.146704999999999863e-01 3.261540000000000106e+01 1.479739999999999895e+02 1.624099999999999909e+03
9.299999999999999933e-02 7.146829999999999572e-01 3.190165000000000006e+01 1.479560000000000173e+02 1.624125000000000000e+03
9.400000000000000022e-02 7.146874999999999201e-01 3.118970000000000198e+01 1.479014999999999986e+02 1.624130000000000109e+03
9.500000000000000111e-02 7.146890000000000187e-01 3.048819999999999908e+01 1.478285000000000196e+02 1.624125000000000000e+03
9.600000000000000200e-02 7.146894999999999776e-01 2.980454999999999899e+01 1.477510000000000048e+02 1.624110000000000127e+03
9.700000000000000289e-02 7.146909999999999652e-01 2.914395000000000380e+01 1.476790000000000020e+02 1.624099999999999909e+03
9.800000000000000377e-02 7.146959999999999980e-01 2.850970000000000226e+01 1.476200000000000045e+02 1.624085000000000036e+03
9.900000000000000466e-02 7.147034999999999361e-01 2.790299999999999869e+01 1.475774999999999864e+02 1.624070000000000164e+03
1.000000000000000056e-01 7.147129999999999317e-01 2.732304999999999851e+01 1.475504999999999995e+02 1.624065000000000055e+03
1.010000000000000064e-01 7.147240000000000260e-01 2.676729999999999876e+01 1.475355000000000132e+02 1.624059999999999945e+03
1.020000000000000073e-01 7.147339999999999804e-01 2.623164999999999836e+01 1.475264999999999986e+02 1.624055000000000064e+03
1.030000000000000082e-01 7.147405000000000008e-01 2.571074999999999733e+01 1.475134999999999934e+02 1.624045000000000073e+03
1.040000000000000091e-01 7.147405000000000008e-01 2.519854999999999734e+01 1.474869999999999948e+02 1.624034999999999854e+03
1.050000000000000100e-01 7.147315000000000751e-01 2.468849999999999767e+01 1.474350000000000023e+02 1.624019999999999982e+03
1.059999999999999970e-01 7.147105000000000263e-01 2.417409999999999926e+01 1.473455000000000155e+02 1.623994999999999891e+03
1.069999999999999979e-01 7.146755000000000191e-01 2.364905000000000257e+01 1.472079999999999984e+02 1.623960000000000036e+03
1.079999999999999988e-01 7.146239999999999259e-01 2.310764999999999958e+01 1.470124999999999886e+02 1.623905000000000200e+03
1.089999999999999997e-01 7.145544999999999813e-01 2.254524999999999935e+01 1.467514999999999930e+02 1.623835000000000036e+03
1.100000000000000006e-01 7.144649999999999057e-01 2.195824999999999960e+01 1.464180000000000064e+02 1.623744999999999891e+03
1.110000000000000014e-01 7.143565000000000609e-01 2.134459999999999980e+01 1.460095000000000027e+02 1.623639999999999873e+03
1.120000000000000023e-01 7.142284999999999329e-01 2.070354999999999990e+01 1.455260000000000105e+02 1.623505000000000109e+03
1.130000000000000032e-01 7.140824999999999534e-01 2.003609999999999758e+01 1.449695000000000107e+02 1.623355000000000018e+03
1.140000000000000041e-01 7.139204999999999579e-01 1.934485000000000099e+01 1.443460000000000036e+02 1.623184999999999945e+03
1.150000000000000050e-01 7.137445000000000039e-01 1.863390000000000057e+01 1.436639999999999873e+02 1.623000000000000000e+03
1.160000000000000059e-01 7.135584999999999845e-01 1.790874999999999773e+01 1.429339999999999975e+02 1.622800000000000182e+03
1.170000000000000068e-01 7.133655000000000967e-01 1.717620000000000147e+01 1.421700000000000159e+02 1.622585000000000036e+03
1.180000000000000077e-01 7.131689999999999419e-01 1.644395000000000095e+01 1.413874999999999886e+02 1.622365000000000009e+03
1.190000000000000085e-01 7.129745000000000665e-01 1.572025000000000006e+01 1.406020000000000039e+02 1.622144999999999982e+03
1.200000000000000094e-01 7.127850000000000019e-01 1.501365000000000194e+01 1.398305000000000007e+02 1.621920000000000073e+03
1.209999999999999964e-01 7.126049999999999329e-01 1.433269499999999930e+01 1.390889999999999986e+02 1.621710000000000036e+03
1.219999999999999973e-01 7.124384999999999746e-01 1.368533500000000025e+01 1.383935000000000173e+02 1.621505000000000109e+03
1.229999999999999982e-01 7.122884999999999911e-01 1.307901000000000025e+01 1.377580000000000098e+02 1.621315000000000055e+03
1.239999999999999991e-01 7.121580000000000688e-01 1.251982500000000087e+01 1.371945000000000050e+02 1.621139999999999873e+03
1.250000000000000000e-01 7.120489999999999320e-01 1.201284000000000063e+01 1.367129999999999939e+02 1.620990000000000009e+03
1.260000000000000009e-01 7.119619999999999838e-01 1.156146999999999991e+01 1.363185000000000002e+02 1.620859999999999900e+03
1.270000000000000018e-01 7.118980000000000308e-01 1.116777000000000086e+01 1.360165000000000077e+02 1.620755000000000109e+03
1.280000000000000027e-01 7.118569999999999620e-01 1.083202499999999979e+01 1.358064999999999998e+02 1.620674999999999955e+03
1.290000000000000036e-01 7.118379999999999708e-01 1.055317499999999953e+01 1.356870000000000118e+02 1.620625000000000000e+03
1.300000000000000044e-01 7.118385000000000407e-01 1.032859000000000016e+01 1.356519999999999868e+02 1.620595000000000027e+03
1.310000000000000053e-01 7.118575000000000319e-01 1.015461499999999972e+01 1.356945000000000050e+02 1.620585000000000036e+03
1.320000000000000062e-01 7.118919999999999693e-01 1.002645499999999856e+01 1.358054999999999950e+02 1.620599999999999909e+03
1.330000000000000071e-01 7.119389999999999885e-01 9.938704999999998790e+00 1.359745000000000061e+02 1.620634999999999991e+03
1.340000000000000080e-01 7.119964999999999211e-01 9.885355000000000558e+00 1.361899999999999977e+02 1.620679999999999836e+03
1.350000000000000089e-01 7.120604999999999851e-01 9.860400000000000276e+00 1.364404999999999859e+02 1.620740000000000009e+03
1.360000000000000098e-01 7.121295000000000819e-01 9.857714999999998895e+00 1.367150000000000034e+02 1.620799999999999955e+03
1.370000000000000107e-01 7.122005000000000141e-01 9.871579999999999799e+00 1.370029999999999859e+02 1.620875000000000000e+03
1.380000000000000115e-01 7.122714999999999463e-01 9.896660000000000679e+00 1.372959999999999923e+02 1.620954999999999927e+03
1.390000000000000124e-01 7.123405000000000431e-01 9.928219999999999601e+00 1.375849999999999795e+02 1.621029999999999973e+03
1.400000000000000133e-01 7.124064999999999426e-01 9.962094999999999700e+00 1.378640000000000043e+02 1.621105000000000018e+03
1.410000000000000142e-01 7.124684999999999491e-01 9.994894999999999641e+00 1.381279999999999859e+02 1.621179999999999836e+03
1.420000000000000151e-01 7.125255000000000338e-01 1.002398499999999970e+01 1.383745000000000118e+02 1.621250000000000000e+03
1.430000000000000160e-01 7.125785000000000036e-01 1.004735499999999959e+01 1.386005000000000109e+02 1.621315000000000055e+03
1.440000000000000169e-01 7.126259999999999817e-01 1.006366500000000030e+01 1.388064999999999998e+02 1.621375000000000000e+03
1.450000000000000178e-01 7.126689999999999969e-01 1.007216000000000022e+01 1.389929999999999950e+02 1.621430000000000064e+03
1.459999999999999909e-01 7.127080000000000082e-01 1.007261000000000095e+01 1.391610000000000014e+02 1.621480000000000018e+03
1.469999999999999918e-01 7.127434999999999743e-01 1.006532500000000141e+01 1.393125000000000000e+02 1.621530000000000200e+03
1.479999999999999927e-01 7.127765000000000351e-01 1.005081000000000024e+01 1.394510000000000218e+02 1.621575000000000045e+03
1.489999999999999936e-01 7.128075000000000383e-01 1.003002000000000038e+01 1.395790000000000077e+02 1.621615000000000009e+03
1.499999999999999944e-01 7.128369999999999429e-01 1.000409000000000148e+01 1.396999999999999886e+02 1.621650000000000091e+03
1.509999999999999953e-01 7.128659999999999997e-01 9.974244999999999806e+00 1.398159999999999741e+02 1.621690000000000055e+03
1.519999999999999962e-01 7.128955000000000153e-01 9.941784999999999428e+00 1.399310000000000116e+02 1.621720000000000027e+03
1.529999999999999971e-01 7.129250000000000309e-01 9.907959999999999212e+00 1.400469999999999970e+02 1.621759999999999991e+03
1.539999999999999980e-01 7.129564999999999930e-01 9.873920000000000030e+00 1.401659999999999968e+02 1.621795000000000073e+03
1.549999999999999989e-01 7.129889999999999839e-01 9.840685000000000571e+00 1.402900000000000205e+02 1.621835000000000036e+03
1.559999999999999998e-01 7.130235000000000323e-01 9.809029999999999916e+00 1.404189999999999827e+02 1.621869999999999891e+03
1.570000000000000007e-01 7.130594999999999573e-01 9.779450000000000642e+00 1.405544999999999902e+02 1.621914999999999964e+03
1.580000000000000016e-01 7.130969999999999809e-01 9.752279999999998950e+00 1.406949999999999932e+02 1.621954999999999927e+03
1.590000000000000024e-01 7.131359999999999921e-01 9.727619999999999933e+00 1.408405000000000200e+02 1.622000000000000000e+03
