# t [s], A [cm^2], U [cm/s], P [cPa], c [cm/s]
1.000000000000000021e-03 2.045224999999999960e-01 3.653132000000000046e-01 1.047884999999999991e+02 2.248914999999999964e+03
2.000000000000000042e-03 2.044475000000000042e-01 2.087281500000000012e+00 1.007402500000000032e+02 2.248329999999999927e+03
3.000000000000000062e-03 2.042700000000000071e-01 4.232260000000000133e+00 9.501255000000000450e+01 2.246989999999999782e+03
4.000000000000000083e-03 2.040434999999999888e-01 6.669836000000000098e+00 8.901255000000000450e+01 2.245300000000000182e+03
5.000000000000000104e-03 2.038149999999999962e-01 9.263804999999999623e+00 8.391989999999999839e+01 2.243614999999999782e+03
6.000000000000000125e-03 2.036034999999999928e-01 1.170196499999999951e+01 7.983740000000000236e+01 2.242079999999999927e+03
7.000000000000000146e-03 2.034104999999999941e-01 1.372125499999999931e+01 7.625995000000000346e+01 2.240710000000000036e+03
8.000000000000000167e-03 2.032414999999999916e-01 1.532945000000000135e+01 7.311464999999999748e+01 2.239534999999999854e+03
9.000000000000001055e-03 2.031020000000000048e-01 1.660135000000000005e+01 7.058605000000000018e+01 2.238579999999999927e+03
1.000000000000000194e-02 2.029925000000000201e-01 1.757045000000000101e+01 6.867855000000000132e+01 2.237835000000000036e+03
1.099999999999999936e-02 2.029110000000000080e-01 1.827505000000000024e+01 6.732800000000000296e+01 2.237289999999999964e+03
1.200000000000000025e-02 2.028519999999999768e-01 1.873160000000000025e+01 6.640465000000000373e+01 2.236905000000000200e+03
1.300000000000000114e-02 2.028070000000000150e-01 1.894304999999999950e+01 6.568725000000000591e+01 2.236630000000000109e+03
1.400000000000000203e-02 2.027740000000000098e-01 1.900270000000000081e+01 6.514404999999999291e+01 2.236430000000000291e+03
1.499999999999999944e-02 2.027619999999999978e-01 1.913304999999999723e+01 6.518285000000000196e+01 2.236364999999999782e+03
1.600000000000000033e-02 2.027869999999999950e-01 1.956994999999999862e+01 6.643940000000000623e+01 2.236545000000000073e+03
1.700000000000000122e-02 2.028604999999999992e-01 2.039470000000000027e+01 6.924869999999999948e+01 2.237050000000000182e+03
1.800000000000000211e-02 2.029785000000000061e-01 2.146134999999999948e+01 7.327035000000000764e+01 2.237864999999999782e+03
1.900000000000000300e-02 2.031169999999999920e-01 2.246265000000000001e+01 7.754900000000000659e+01 2.238824999999999818e+03
2.000000000000000042e-02 2.032440000000000080e-01 2.307894999999999897e+01 8.093219999999999459e+01 2.239730000000000018e+03
2.100000000000000130e-02 2.033304999999999974e-01 2.312010000000000076e+01 8.257874999999999943e+01 2.240364999999999782e+03
2.200000000000000219e-02 2.033615000000000006e-01 2.259519999999999840e+01 8.229150000000001342e+01 2.240625000000000000e+03
2.299999999999999961e-02 2.033424999999999816e-01 2.168495000000000061e+01 8.053524999999999068e+01 2.240529999999999745e+03
2.400000000000000050e-02 2.032920000000000005e-01 2.064294999999999902e+01 7.816179999999999950e+01 2.240199999999999818e+03
2.500000000000000139e-02 2.032329999999999970e-01 1.968070000000000164e+01 7.600704999999999245e+01 2.239789999999999964e+03
2.600000000000000228e-02 2.031830000000000025e-01 1.889110000000000156e+01 7.455934999999999491e+01 2.239434999999999945e+03
2.700000000000000316e-02 2.031494999999999829e-01 1.823594999999999899e+01 7.383135000000000048e+01 2.239185000000000400e+03
2.800000000000000058e-02 2.031270000000000020e-01 1.759004999999999797e+01 7.344955000000000211e+01 2.239019999999999982e+03
2.900000000000000147e-02 2.031030000000000058e-01 1.681455000000000055e+01 7.288665000000000305e+01 2.238854999999999563e+03
3.000000000000000236e-02 2.030664999999999831e-01 1.582929999999999993e+01 7.172884999999999422e+01 2.238609999999999673e+03
3.099999999999999978e-02 2.030104999999999826e-01 1.465814999999999912e+01 6.987794999999999845e+01 2.238230000000000018e+03
3.200000000000000067e-02 2.029394999999999949e-01 1.343224999999999980e+01 6.761785000000000423e+01 2.237744999999999891e+03
3.300000000000000155e-02 2.028665000000000052e-01 1.234919999999999973e+01 6.552320000000000277e+01 2.237234999999999673e+03
3.400000000000000244e-02 2.028110000000000190e-01 1.160575000000000045e+01 6.425090000000000146e+01 2.236835000000000036e+03
3.500000000000000333e-02 2.027899999999999980e-01 1.133060000000000045e+01 6.429994999999999550e+01 2.236659999999999854e+03
3.600000000000000422e-02 2.028129999999999933e-01 1.154255000000000031e+01 6.583464999999999634e+01 2.236800000000000182e+03
3.700000000000000511e-02 2.028794999999999904e-01 1.214545000000000030e+01 6.862659999999999627e+01 2.237230000000000018e+03
3.799999999999999906e-02 2.029775000000000051e-01 1.295615000000000094e+01 7.212180000000000746e+01 2.237894999999999982e+03
3.899999999999999994e-02 2.030889999999999918e-01 1.375179999999999936e+01 7.559239999999999782e+01 2.238659999999999854e+03
4.000000000000000083e-02 2.031899999999999817e-01 1.431930000000000014e+01 7.831530000000000769e+01 2.239369999999999891e+03
4.100000000000000172e-02 2.032605000000000106e-01 1.449540000000000006e+01 7.972624999999999318e+01 2.239880000000000109e+03
4.200000000000000261e-02 2.032864999999999811e-01 1.418860000000000099e+01 7.951320000000001187e+01 2.240079999999999927e+03
4.300000000000000350e-02 2.032594999999999819e-01 1.338189999999999991e+01 7.763835000000000264e+01 2.239914999999999964e+03
4.400000000000000439e-02 2.031810000000000005e-01 1.212036000000000158e+01 7.429599999999999227e+01 2.239400000000000091e+03
4.499999999999999833e-02 2.030580000000000163e-01 1.048948000000000036e+01 6.983034999999999570e+01 2.238559999999999945e+03
4.599999999999999922e-02 2.029005000000000114e-01 8.592404999999999404e+00 6.464279999999999404e+01 2.237470000000000255e+03
4.700000000000000011e-02 2.027204999999999979e-01 6.532220000000000582e+00 5.911464999999999748e+01 2.236220000000000255e+03
4.800000000000000100e-02 2.025285000000000002e-01 4.401912499999999895e+00 5.356175000000000352e+01 2.234890000000000327e+03
4.900000000000000189e-02 2.023355000000000015e-01 2.282515000000000072e+00 4.822225000000000250e+01 2.233534999999999854e+03
5.000000000000000278e-02 2.021485000000000087e-01 2.458900000000001640e-01 4.326999999999999602e+01 2.232224999999999909e+03
5.100000000000000366e-02 2.019739999999999869e-01 -1.640265000000000306e+00 3.884090000000000487e+01 2.231000000000000000e+03
5.200000000000000455e-02 2.018175000000000108e-01 -3.308624300000000407e+00 3.505774999999999864e+01 2.229894999999999982e+03
5.300000000000000544e-02 2.016840000000000022e-01 -4.691449999999999676e+00 3.204609999999999559e+01 2.228949999999999818e+03
5.399999999999999939e-02 2.015790000000000082e-01 -5.723124999999999574e+00 2.993594999999999828e+01 2.228194999999999709e+03
5.500000000000000028e-02 2.015075000000000061e-01 -6.345475000000000421e+00 2.885130000000000194e+01 2.227675000000000182e+03
5.600000000000000117e-02 2.014734999999999998e-01 -6.514199999999999768e+00 2.889175000000000182e+01 2.227409999999999854e+03
5.700000000000000205e-02 2.014795000000000058e-01 -6.204744999999999955e+00 3.011305000000000121e+01 2.227420000000000073e+03
5.800000000000000294e-02 2.015280000000000127e-01 -5.416050000000000253e+00 3.251255000000000450e+01 2.227725000000000364e+03
5.900000000000000383e-02 2.016169999999999907e-01 -4.171420000000000350e+00 3.602309999999999945e+01 2.228315000000000055e+03
6.000000000000000472e-02 2.017455000000000220e-01 -2.516521000000000008e+00 4.051724999999999710e+01 2.229175000000000182e+03
6.099999999999999867e-02 2.019064999999999888e-01 -5.152550000000000185e-01 4.581844999999999857e+01 2.230279999999999745e+03
6.199999999999999956e-02 2.020959999999999979e-01 1.755534999999999846e+00 5.171815000000000140e+01 2.231579999999999927e+03
6.300000000000000044e-02 2.023054999999999992e-01 4.211638500000000285e+00 5.799285000000000423e+01 2.233029999999999745e+03
6.400000000000000133e-02 2.025285000000000002e-01 6.766614999999999824e+00 6.442029999999999745e+01 2.234574999999999818e+03
6.500000000000000222e-02 2.027565000000000062e-01 9.336484999999999701e+00 7.079295000000000471e+01 2.236170000000000073e+03
6.600000000000000311e-02 2.029825000000000101e-01 1.184389499999999984e+01 7.692885000000001128e+01 2.237765000000000327e+03
6.700000000000000400e-02 2.032014999999999794e-01 1.422184999999999988e+01 8.267994999999999095e+01 2.239310000000000400e+03
6.800000000000000488e-02 2.034080000000000055e-01 1.641724999999999923e+01 8.793979999999999109e+01 2.240769999999999982e+03
6.900000000000000577e-02 2.035974999999999868e-01 1.839305000000000234e+01 9.264804999999999779e+01 2.242125000000000000e+03
7.000000000000000666e-02 2.037694999999999923e-01 2.013034999999999997e+01 9.679204999999998904e+01 2.243355000000000018e+03
7.100000000000000755e-02 2.039229999999999932e-01 2.162794999999999845e+01 1.004061499999999967e+02 2.244460000000000036e+03
7.200000000000000844e-02 2.040605000000000058e-01 2.290079999999999671e+01 1.035645000000000095e+02 2.245449999999999818e+03
7.300000000000000933e-02 2.041824999999999890e-01 2.397735000000000127e+01 1.063725000000000023e+02 2.246340000000000146e+03
7.399999999999999634e-02 2.042939999999999756e-01 2.489480000000000004e+01 1.089509999999999934e+02 2.247144999999999982e+03
7.499999999999999722e-02 2.043989999999999974e-01 2.569494999999999862e+01 1.114250000000000114e+02 2.247900000000000091e+03
7.599999999999999811e-02 2.045005000000000017e-01 2.641915000000000191e+01 1.139099999999999966e+02 2.248635000000000218e+03
7.699999999999999900e-02 2.046025000000000205e-01 2.710439999999999827e+01 1.164979999999999905e+02 2.249369999999999891e+03
7.799999999999999989e-02 2.047080000000000011e-01 2.777989999999999782e+01 1.192520000000000095e+02 2.250135000000000218e+03
7.900000000000000078e-02 2.048185000000000144e-01 2.846520000000000294e+01 1.222009999999999934e+02 2.250920000000000073e+03
8.000000000000000167e-02 2.049350000000000060e-01 2.916910000000000025e+01 1.253409999999999940e+02 2.251760000000000218e+03
8.100000000000000255e-02 2.050569999999999893e-01 2.988969999999999771e+01 1.286374999999999886e+02 2.252625000000000000e+03
8.200000000000000344e-02 2.051834999999999909e-01 3.061560000000000059e+01 1.320269999999999868e+02 2.253525000000000091e+03
8.300000000000000433e-02 2.053114999999999801e-01 3.132755000000000223e+01 1.354310000000000116e+02 2.254439999999999600e+03
8.400000000000000522e-02 2.054390000000000105e-01 3.200039999999999907e+01 1.387570000000000050e+02 2.255349999999999909e+03
8.500000000000000611e-02 2.055624999999999813e-01 3.260584999999999667e+01 1.419105000000000132e+02 2.256239999999999782e+03
8.600000000000000699e-02 2.056784999999999863e-01 3.311424999999999841e+01 1.447984999999999900e+02 2.257074999999999818e+03
8.700000000000000788e-02 2.057844999999999813e-01 3.349739999999999895e+01 1.473380000000000223e+02 2.257840000000000146e+03
8.800000000000000877e-02 2.058770000000000044e-01 3.373014999999999475e+01 1.494599999999999795e+02 2.258510000000000218e+03
8.899999999999999578e-02 2.059549999999999992e-01 3.379245000000000232e+01 1.511115000000000066e+02 2.259074999999999818e+03
8.999999999999999667e-02 2.060154999999999903e-01 3.367020000000000124e+01 1.522605000000000075e+02 2.259519999999999982e+03
9.099999999999999756e-02 2.060584999999999778e-01 3.335685000000000144e+01 1.528944999999999936e+02 2.259835000000000036e+03
9.199999999999999845e-02 2.060830000000000162e-01 3.285320000000000107e+01 1.530240000000000009e+02 2.260029999999999745e+03
9.299999999999999933e-02 2.060894999999999810e-01 3.216770000000000351e+01 1.526779999999999973e+02 2.260090000000000146e+03
9.400000000000000022e-02 2.060794999999999988e-01 3.131575000000000131e+01 1.519019999999999868e+02 2.260029999999999745e+03
9.500000000000000111e-02 2.060540000000000149e-01 3.031889999999999930e+01 1.507570000000000050e+02 2.259860000000000127e+03
9.600000000000000200e-02 2.060154999999999903e-01 2.920345000000000013e+01 1.493139999999999930e+02 2.259599999999999909e+03
9.700000000000000289e-02 2.059664999999999968e-01 2.799895000000000067e+01 1.476499999999999773e+02 2.259260000000000218e+03
9.800000000000000377e-02 2.059100000000000097e-01 2.673675000000000068e+01 1.458425000000000011e+02 2.258864999999999782e+03
9.900000000000000466e-02 2.058479999999999754e-01 2.544845000000000113e+01 1.439685000000000059e+02 2.258425000000000182e+03
1.000000000000000056e-01 2.057835000000000081e-01 2.416420000000000101e+01 1.420994999999999777e+02 2.257970000000000255e+03
1.010000000000000064e-01 2.057184999999999986e-01 2.291174999999999784e+01 1.402975000000000136e+02 2.257505000000000109e+03
1.020000000000000073e-01 2.056560000000000055e-01 2.171519999999999939e+01 1.386154999999999973e+02 2.257055000000000291e+03
1.030000000000000082e-01 2.055970000000000020e-01 2.059384999999999977e+01 1.370925000000000011e+02 2.256630000000000109e+03
1.040000000000000091e-01 2.055434999999999901e-01 1.956170000000000186e+01 1.357539999999999907e+02 2.256250000000000000e+03
1.050000000000000100e-01 2.054954999999999976e-01 1.862700000000000244e+01 1.346125000000000114e+02 2.255899999999999636e+03
1.059999999999999970e-01 2.054540000000000255e-01 1.779165000000000063e+01 1.336630000000000109e+02 2.255595000000000255e+03
1.069999999999999979e-01 2.054189999999999905e-01 1.705174999999999841e+01 1.328890000000000100e+02 2.255335000000000036e+03
1.079999999999999988e-01 2.053889999999999882e-01 1.639775000000000205e+01 1.322584999999999980e+02 2.255114999999999782e+03
1.089999999999999997e-01 2.053639999999999910e-01 1.581524999999999892e+01 1.317305000000000064e+02 2.254929999999999836e+03
1.100000000000000006e-01 2.053419999999999968e-01 1.528610000000000113e+01 1.312535000000000025e+02 2.254764999999999873e+03
1.110000000000000014e-01 2.053210000000000035e-01 1.478960000000000008e+01 1.307744999999999891e+02 2.254614999999999782e+03
1.120000000000000023e-01 2.052994999999999959e-01 1.430410000000000004e+01 1.302369999999999948e+02 2.254449999999999818e+03
1.130000000000000032e-01 2.052754999999999996e-01 1.380825000000000102e+01 1.295879999999999939e+02 2.254279999999999745e+03
1.140000000000000041e-01 2.052474999999999994e-01 1.328275000000000006e+01 1.287820000000000107e+02 2.254079999999999927e+03
1.150000000000000050e-01 2.052134999999999931e-01 1.271150000000000091e+01 1.277824999999999989e+02 2.253840000000000146e+03
1.160000000000000059e-01 2.051735000000000086e-01 1.208265000000000100e+01 1.265675000000000097e+02 2.253550000000000182e+03
1.170000000000000068e-01 2.051250000000000018e-01 1.138975999999999900e+01 1.251274999999999977e+02 2.253210000000000036e+03
1.180000000000000077e-01 2.050695000000000157e-01 1.063199499999999986e+01 1.234695000000000107e+02 2.252815000000000055e+03
1.190000000000000085e-01 2.050064999999999804e-01 9.814109999999999445e+00 1.216154999999999973e+02 2.252375000000000000e+03
1.200000000000000094e-01 2.049370000000000080e-01 8.946445000000000647e+00 1.196009999999999991e+02 2.251880000000000109e+03
1.209999999999999964e-01 2.048619999999999886e-01 8.043894999999999129e+00 1.174729999999999990e+02 2.251355000000000018e+03
1.219999999999999973e-01 2.047839999999999938e-01 7.125119999999999898e+00 1.152864999999999895e+02 2.250795000000000073e+03
1.229999999999999982e-01 2.047039999999999971e-01 6.211294999999999789e+00 1.131020000000000039e+02 2.250225000000000364e+03
1.239999999999999991e-01 2.046244999999999870e-01 5.324654999999999916e+00 1.109805000000000064e+02 2.249664999999999964e+03
1.250000000000000000e-01 2.045474999999999932e-01 4.487205000000000332e+00 1.089795000000000016e+02 2.249119999999999891e+03
1.260000000000000009e-01 2.044750000000000179e-01 3.719369999999999621e+00 1.071520000000000010e+02 2.248600000000000364e+03
1.270000000000000018e-01 2.044090000000000074e-01 3.038880000000000248e+00 1.055409999999999968e+02 2.248125000000000000e+03
1.280000000000000027e-01 2.043504999999999905e-01 2.459859999999999935e+00 1.041784999999999997e+02 2.247699999999999818e+03
1.290000000000000036e-01 2.043004999999999960e-01 1.992227500000000040e+00 1.030854999999999961e+02 2.247340000000000146e+03
1.300000000000000044e-01 2.042605000000000115e-01 1.641326999999999980e+00 1.022699999999999960e+02 2.247050000000000182e+03
1.310000000000000053e-01 2.042299999999999949e-01 1.407904000000000044e+00 1.017284999999999968e+02 2.246824999999999818e+03
1.320000000000000062e-01 2.042090000000000016e-01 1.288307000000000091e+00 1.014470000000000027e+02 2.246664999999999964e+03
1.330000000000000071e-01 2.041970000000000174e-01 1.274913999999999881e+00 1.014004999999999939e+02 2.246570000000000164e+03
1.340000000000000080e-01 2.041935000000000000e-01 1.356740000000000057e+00 1.015575000000000045e+02 2.246539999999999964e+03
1.350000000000000089e-01 2.041969999999999896e-01 1.520089999999999941e+00 1.018830000000000098e+02 2.246555000000000291e+03
1.360000000000000098e-01 2.042065000000000130e-01 1.749395000000000033e+00 1.023365000000000009e+02 2.246614999999999782e+03
1.370000000000000107e-01 2.042200000000000126e-01 2.027930000000000010e+00 1.028764999999999930e+02 2.246704999999999927e+03
1.380000000000000115e-01 2.042370000000000019e-01 2.338585000000000136e+00 1.034634999999999962e+02 2.246819999999999709e+03
1.390000000000000124e-01 2.042559999999999931e-01 2.664590000000000014e+00 1.040579999999999927e+02 2.246949999999999818e+03
1.400000000000000133e-01 2.042749999999999844e-01 2.990174999999999805e+00 1.046270000000000095e+02 2.247085000000000036e+03
1.410000000000000142e-01 2.042935000000000167e-01 3.301089999999999858e+00 1.051384999999999934e+02 2.247215000000000146e+03
1.420000000000000151e-01 2.043099999999999916e-01 3.585144999999999804e+00 1.055699999999999932e+02 2.247335000000000036e+03
1.430000000000000160e-01 2.043240000000000056e-01 3.832530000000000214e+00 1.059020000000000010e+02 2.247430000000000291e+03
1.440000000000000169e-01 2.043349999999999889e-01 4.036105000000000054e+00 1.061235000000000070e+02 2.247510000000000218e+03
1.450000000000000178e-01 2.043420000000000236e-01 4.191525000000000389e+00 1.062295000000000016e+02 2.247560000000000400e+03
1.459999999999999909e-01 2.043444999999999845e-01 4.297235000000000582e+00 1.062210000000000036e+02 2.247590000000000146e+03
1.469999999999999918e-01 2.043439999999999979e-01 4.354314999999999714e+00 1.061055000000000064e+02 2.247585000000000036e+03
1.479999999999999927e-01 2.043399999999999939e-01 4.366234999999999644e+00 1.058960000000000008e+02 2.247559999999999945e+03
1.489999999999999936e-01 2.043325000000000002e-01 4.338420000000000165e+00 1.056085000000000065e+02 2.247510000000000218e+03
1.499999999999999944e-01 2.043224999999999902e-01 4.277800000000000047e+00 1.052625000000000028e+02 2.247440000000000055e+03
1.509999999999999953e-01 2.043105000000000060e-01 4.192219999999999835e+00 1.048789999999999907e+02 2.247364999999999782e+03
1.519999999999999962e-01 2.042975000000000207e-01 4.089904999999999902e+00 1.044780000000000086e+02 2.247269999999999982e+03
1.529999999999999971e-01 2.042839999999999934e-01 3.978889999999999816e+00 1.040780000000000030e+02 2.247175000000000182e+03
1.539999999999999980e-01 2.042705000000000215e-01 3.866544999999999899e+00 1.036959999999999980e+02 2.247079999999999927e+03
1.549999999999999989e-01 2.042570000000000219e-01 3.759159999999999613e+00 1.033439999999999941e+02 2.246984999999999673e+03
1.559999999999999998e-01 2.042450000000000099e-01 3.661690000000000111e+00 1.030304999999999893e+02 2.246900000000000091e+03
1.570000000000000007e-01 2.042335000000000123e-01 3.577570000000000139e+00 1.027614999999999981e+02 2.246824999999999818e+03
1.580000000000000016e-01 2.042240000000000166e-01 3.508680000000000021e+00 1.025360000000000014e+02 2.246755000000000109e+03
1.590000000000000024e-01 2.042160000000000086e-01 3.455435000000000034e+00 1.023509999999999991e+02 2.246694999999999709e+03
