# t [s], A [cm^2], U [cm/s], P [cPa], c [cm/s]
1.000000000000000021e-03 1.719579999999999997e-01 3.538050500000000098e-01 8.701210000000000377e+01 2.343289999999999964e+03
2.000000000000000042e-03 1.719019999999999992e-01 1.792859500000000050e+00 8.329175000000000750e+01 2.342730000000000018e+03
3.000000000000000062e-03 1.717779999999999863e-01 3.570503999999999678e+00 7.815344999999999231e+01 2.341519999999999982e+03
4.000000000000000083e-03 1.716249999999999998e-01 5.604771999999999643e+00 7.300665000000000759e+01 2.340045000000000073e+03
5.000000000000000104e-03 1.714745000000000019e-01 7.763944999999999652e+00 6.886029999999999518e+01 2.338614999999999782e+03
6.000000000000000125e-03 1.713375000000000037e-01 9.729219999999999757e+00 6.555360000000000298e+01 2.337324999999999818e+03
7.000000000000000146e-03 1.712115000000000165e-01 1.130511500000000069e+01 6.254849999999999710e+01 2.336175000000000182e+03
8.000000000000000167e-03 1.711024999999999907e-01 1.255492500000000078e+01 5.992624999999999602e+01 2.335199999999999818e+03
9.000000000000001055e-03 1.710135000000000127e-01 1.353685000000000116e+01 5.785729999999999507e+01 2.334409999999999854e+03
1.000000000000000194e-02 1.709440000000000126e-01 1.427110000000000056e+01 5.629729999999999990e+01 2.333800000000000182e+03
1.099999999999999936e-02 1.708915000000000017e-01 1.477890000000000015e+01 5.515494999999999948e+01 2.333350000000000364e+03
1.200000000000000025e-02 1.708505000000000162e-01 1.505160000000000053e+01 5.423140000000000072e+01 2.333010000000000218e+03
1.300000000000000114e-02 1.708159999999999956e-01 1.512279999999999980e+01 5.335909999999999798e+01 2.332724999999999909e+03
1.400000000000000203e-02 1.707909999999999984e-01 1.517589999999999861e+01 5.280819999999999936e+01 2.332529999999999745e+03
1.499999999999999944e-02 1.707899999999999974e-01 1.548709999999999987e+01 5.330670000000000641e+01 2.332529999999999745e+03
1.600000000000000033e-02 1.708284999999999942e-01 1.622739999999999938e+01 5.547939999999999827e+01 2.332864999999999782e+03
1.700000000000000122e-02 1.709074999999999900e-01 1.731800000000000139e+01 5.923884999999999934e+01 2.333559999999999945e+03
1.800000000000000211e-02 1.710119999999999973e-01 1.845390000000000086e+01 6.366125000000000256e+01 2.334500000000000000e+03
1.900000000000000300e-02 1.711149999999999893e-01 1.926265000000000072e+01 6.740444999999999709e+01 2.335440000000000055e+03
2.000000000000000042e-02 1.711885000000000212e-01 1.948474999999999824e+01 6.935200000000000387e+01 2.336130000000000109e+03
2.100000000000000130e-02 1.712160000000000071e-01 1.908104999999999762e+01 6.910349999999999682e+01 2.336420000000000073e+03
2.200000000000000219e-02 1.711980000000000168e-01 1.822180000000000177e+01 6.707820000000000960e+01 2.336295000000000073e+03
2.299999999999999961e-02 1.711499999999999966e-01 1.718045000000000044e+01 6.422315000000000396e+01 2.335885000000000218e+03
2.400000000000000050e-02 1.710915000000000075e-01 1.619760000000000133e+01 6.152174999999999727e+01 2.335364999999999782e+03
2.500000000000000139e-02 1.710389999999999966e-01 1.538520000000000110e+01 5.956945000000000334e+01 2.334885000000000218e+03
2.600000000000000228e-02 1.710004999999999997e-01 1.470779999999999887e+01 5.840099999999999625e+01 2.334524999999999636e+03
2.700000000000000316e-02 1.709704999999999975e-01 1.403304999999999936e+01 5.759645000000000437e+01 2.334244999999999891e+03
2.800000000000000058e-02 1.709390000000000076e-01 1.321705000000000041e+01 5.656855000000000189e+01 2.333960000000000036e+03
2.900000000000000147e-02 1.708965000000000067e-01 1.218735000000000035e+01 5.488804999999999978e+01 2.333590000000000146e+03
3.000000000000000236e-02 1.708385000000000042e-01 1.099056000000000033e+01 5.251474999999999937e+01 2.333074999999999818e+03
3.099999999999999978e-02 1.707704999999999917e-01 9.787620000000000431e+00 4.984855000000000302e+01 2.332469999999999800e+03
3.200000000000000067e-02 1.707059999999999966e-01 8.798759999999999692e+00 4.758534999999999826e+01 2.331880000000000109e+03
3.300000000000000155e-02 1.706604999999999928e-01 8.222629999999998773e+00 4.644384999999999764e+01 2.331454999999999927e+03
3.400000000000000244e-02 1.706489999999999951e-01 8.163880000000000692e+00 4.688439999999999941e+01 2.331324999999999818e+03
3.500000000000000333e-02 1.706755000000000078e-01 8.597149999999999181e+00 4.893354999999999677e+01 2.331534999999999854e+03
3.600000000000000422e-02 1.707369999999999999e-01 9.375430000000001485e+00 5.216870000000000118e+01 2.332059999999999945e+03
3.700000000000000511e-02 1.708195000000000130e-01 1.027320999999999884e+01 5.584675000000000011e+01 2.332784999999999854e+03
3.799999999999999906e-02 1.709050000000000014e-01 1.104527500000000018e+01 5.911220000000000141e+01 2.333550000000000182e+03
3.899999999999999994e-02 1.709729999999999861e-01 1.148069999999999879e+01 6.120889999999999986e+01 2.334170000000000073e+03
4.000000000000000083e-02 1.710079999999999933e-01 1.144020000000000081e+01 6.163554999999999495e+01 2.334510000000000218e+03
4.100000000000000172e-02 1.710014999999999730e-01 1.086959999999999837e+01 6.021345000000000169e+01 2.334474999999999909e+03
4.200000000000000261e-02 1.709499999999999909e-01 9.792400000000000659e+00 5.706609999999999872e+01 2.334034999999999854e+03
4.300000000000000350e-02 1.708574999999999955e-01 8.288019999999999499e+00 5.253444999999999965e+01 2.333220000000000255e+03
4.400000000000000439e-02 1.707329999999999959e-01 6.464614999999999334e+00 4.706434999999999746e+01 2.332110000000000127e+03
4.499999999999999833e-02 1.705860000000000154e-01 4.436234549999999999e+00 4.110415000000000418e+01 2.330795000000000073e+03
4.599999999999999922e-02 1.704259999999999942e-01 2.308385000000000353e+00 3.503744999999999976e+01 2.329364999999999782e+03
4.700000000000000011e-02 1.702635000000000121e-01 1.732700000000000351e-01 2.915809999999999746e+01 2.327894999999999982e+03
4.800000000000000100e-02 1.701040000000000052e-01 -1.887990000000000057e+00 2.368090000000000117e+01 2.326454999999999927e+03
4.900000000000000189e-02 1.699545000000000083e-01 -3.800114730000000218e+00 1.877025000000000077e+01 2.325099999999999909e+03
5.000000000000000278e-02 1.698204999999999854e-01 -5.489174999999999471e+00 1.457118000000000180e+01 2.323875000000000000e+03
5.100000000000000366e-02 1.697055000000000091e-01 -6.881299999999999528e+00 1.122879499999999986e+01 2.322829999999999927e+03
5.200000000000000455e-02 1.696150000000000158e-01 -7.905400000000000205e+00 8.891830000000000567e+00 2.321989999999999782e+03
5.300000000000000544e-02 1.695530000000000093e-01 -8.499034999999999229e+00 7.700230000000000352e+00 2.321409999999999854e+03
5.399999999999999939e-02 1.695234999999999936e-01 -8.615629999999999455e+00 7.763545000000000584e+00 2.321110000000000127e+03
5.500000000000000028e-02 1.695284999999999986e-01 -8.230980000000000629e+00 9.138359999999998706e+00 2.321119999999999891e+03
5.600000000000000117e-02 1.695689999999999975e-01 -7.347104999999999109e+00 1.181184499999999993e+01 2.321460000000000036e+03
5.700000000000000205e-02 1.696449999999999902e-01 -5.992914999999999992e+00 1.569630000000000081e+01 2.322109999999999673e+03
5.800000000000000294e-02 1.697535000000000016e-01 -4.221510499999999944e+00 2.063534999999999897e+01 2.323055000000000291e+03
5.900000000000000383e-02 1.698899999999999855e-01 -2.105264999999999720e+00 2.641879999999999740e+01 2.324260000000000218e+03
6.000000000000000472e-02 1.700490000000000057e-01 2.703400000000000247e-01 3.280304999999999893e+01 2.325675000000000182e+03
6.099999999999999867e-02 1.702239999999999864e-01 2.813044999999999796e+00 3.953175000000000239e+01 2.327234999999999673e+03
6.199999999999999956e-02 1.704080000000000039e-01 5.429820000000000313e+00 4.635469999999999402e+01 2.328889999999999873e+03
6.300000000000000044e-02 1.705949999999999966e-01 8.032469999999999999e+00 5.304404999999999859e+01 2.330579999999999927e+03
6.400000000000000133e-02 1.707784999999999997e-01 1.054246499999999997e+01 5.940775000000000716e+01 2.332250000000000000e+03
6.500000000000000222e-02 1.709545000000000092e-01 1.289564499999999825e+01 6.530039999999999623e+01 2.333859999999999673e+03
6.600000000000000311e-02 1.711185000000000067e-01 1.504555000000000042e+01 7.063110000000000355e+01 2.335364999999999782e+03
6.700000000000000400e-02 1.712690000000000046e-01 1.696600000000000108e+01 7.536775000000000091e+01 2.336750000000000000e+03
6.800000000000000488e-02 1.714045000000000152e-01 1.865120000000000289e+01 7.953600000000000136e+01 2.338005000000000109e+03
6.900000000000000577e-02 1.715260000000000118e-01 2.011430000000000007e+01 8.321254999999999313e+01 2.339135000000000218e+03
7.000000000000000666e-02 1.716364999999999974e-01 2.138450000000000273e+01 8.651354999999999507e+01 2.340159999999999854e+03
7.100000000000000755e-02 1.717374999999999874e-01 2.250159999999999982e+01 8.957814999999999372e+01 2.341105000000000018e+03
7.200000000000000844e-02 1.718330000000000135e-01 2.351095000000000113e+01 9.255140000000000100e+01 2.341994999999999891e+03
7.300000000000000933e-02 1.719269999999999965e-01 2.445799999999999841e+01 9.556740000000000634e+01 2.342869999999999891e+03
7.399999999999999634e-02 1.720220000000000082e-01 2.538305000000000078e+01 9.873474999999999113e+01 2.343755000000000109e+03
7.499999999999999722e-02 1.721209999999999962e-01 2.631779999999999831e+01 1.021277000000000044e+02 2.344670000000000073e+03
7.599999999999999811e-02 1.722265000000000046e-01 2.728289999999999793e+01 1.057794999999999987e+02 2.345639999999999873e+03
7.699999999999999900e-02 1.723375000000000046e-01 2.828659999999999997e+01 1.096850000000000023e+02 2.346664999999999964e+03
7.799999999999999989e-02 1.724539999999999962e-01 2.932515000000000072e+01 1.138000000000000114e+02 2.347734999999999673e+03
7.900000000000000078e-02 1.725754999999999928e-01 3.038395000000000223e+01 1.180519999999999925e+02 2.348860000000000127e+03
8.000000000000000167e-02 1.726995000000000058e-01 3.143945000000000078e+01 1.223460000000000036e+02 2.350000000000000000e+03
8.100000000000000255e-02 1.728234999999999910e-01 3.246170000000000044e+01 1.265730000000000075e+02 2.351144999999999982e+03
8.200000000000000344e-02 1.729450000000000154e-01 3.341700000000000159e+01 1.306204999999999927e+02 2.352269999999999982e+03
8.300000000000000433e-02 1.730605000000000060e-01 3.427075000000000671e+01 1.343790000000000191e+02 2.353340000000000146e+03
8.400000000000000522e-02 1.731675000000000020e-01 3.498995000000000033e+01 1.377510000000000048e+02 2.354340000000000146e+03
8.500000000000000611e-02 1.732635000000000147e-01 3.554569999999999652e+01 1.406560000000000059e+02 2.355234999999999673e+03
8.600000000000000699e-02 1.733465000000000145e-01 3.591509999999999536e+01 1.430335000000000036e+02 2.356014999999999873e+03
8.700000000000000788e-02 1.734145000000000270e-01 3.608289999999999509e+01 1.448480000000000132e+02 2.356659999999999854e+03
8.800000000000000877e-02 1.734674999999999967e-01 3.604234999999999900e+01 1.460889999999999986e+02 2.357159999999999854e+03
8.899999999999999578e-02 1.735039999999999916e-01 3.579569999999999652e+01 1.467715000000000032e+02 2.357514999999999873e+03
8.999999999999999667e-02 1.735265000000000002e-01 3.535375000000000512e+01 1.469350000000000023e+02 2.357739999999999782e+03
9.099999999999999756e-02 1.735340000000000216e-01 3.473505000000000109e+01 1.466355000000000075e+02 2.357824999999999818e+03
9.199999999999999845e-02 1.735289999999999888e-01 3.396470000000000056e+01 1.459480000000000075e+02 2.357789999999999964e+03
9.299999999999999933e-02 1.735140000000000016e-01 3.307249999999999801e+01 1.449550000000000125e+02 2.357664999999999964e+03
9.400000000000000022e-02 1.734899999999999776e-01 3.209130000000000393e+01 1.437454999999999927e+02 2.357449999999999818e+03
9.500000000000000111e-02 1.734600000000000031e-01 3.105515000000000114e+01 1.424080000000000155e+02 2.357184999999999945e+03
9.600000000000000200e-02 1.734269999999999978e-01 2.999729999999999919e+01 1.410254999999999939e+02 2.356880000000000109e+03
9.700000000000000289e-02 1.733915000000000040e-01 2.894899999999999807e+01 1.396740000000000066e+02 2.356565000000000055e+03
9.800000000000000377e-02 1.733570000000000111e-01 2.793764999999999787e+01 1.384175000000000182e+02 2.356239999999999782e+03
9.900000000000000466e-02 1.733244999999999925e-01 2.698590000000000089e+01 1.373054999999999950e+02 2.355940000000000055e+03
1.000000000000000056e-01 1.732954999999999912e-01 2.611045000000000016e+01 1.363725000000000023e+02 2.355670000000000073e+03
1.010000000000000064e-01 1.732710000000000083e-01 2.532144999999999868e+01 1.356334999999999980e+02 2.355440000000000055e+03
1.020000000000000073e-01 1.732515000000000027e-01 2.462229999999999919e+01 1.350879999999999939e+02 2.355250000000000000e+03
1.030000000000000082e-01 1.732360000000000011e-01 2.400949999999999918e+01 1.347169999999999845e+02 2.355105000000000018e+03
1.040000000000000091e-01 1.732249999999999901e-01 2.347340000000000160e+01 1.344869999999999948e+02 2.354989999999999782e+03
1.050000000000000100e-01 1.732174999999999965e-01 2.299879999999999924e+01 1.343505000000000109e+02 2.354914999999999964e+03
1.059999999999999970e-01 1.732119999999999771e-01 2.256625000000000014e+01 1.342509999999999764e+02 2.354855000000000018e+03
1.069999999999999979e-01 1.732064999999999855e-01 2.215390000000000015e+01 1.341254999999999882e+02 2.354805000000000291e+03
1.079999999999999988e-01 1.732004999999999795e-01 2.173870000000000147e+01 1.339130000000000109e+02 2.354744999999999891e+03
1.089999999999999997e-01 1.731910000000000116e-01 2.129864999999999853e+01 1.335545000000000186e+02 2.354659999999999854e+03
1.100000000000000006e-01 1.731779999999999986e-01 2.081390000000000029e+01 1.330020000000000095e+02 2.354539999999999964e+03
1.110000000000000014e-01 1.731595000000000217e-01 2.026885000000000048e+01 1.322170000000000130e+02 2.354364999999999782e+03
1.120000000000000023e-01 1.731344999999999967e-01 1.965279999999999916e+01 1.311795000000000186e+02 2.354139999999999873e+03
1.130000000000000032e-01 1.731030000000000069e-01 1.896119999999999806e+01 1.298859999999999957e+02 2.353849999999999909e+03
1.140000000000000041e-01 1.730645000000000100e-01 1.819549999999999912e+01 1.283489999999999895e+02 2.353500000000000000e+03
1.150000000000000050e-01 1.730200000000000071e-01 1.736359999999999815e+01 1.266004999999999967e+02 2.353090000000000146e+03
1.160000000000000059e-01 1.729694999999999983e-01 1.647879999999999967e+01 1.246855000000000047e+02 2.352630000000000109e+03
1.170000000000000068e-01 1.729154999999999998e-01 1.555904999999999916e+01 1.226594999999999942e+02 2.352135000000000218e+03
1.180000000000000077e-01 1.728584999999999983e-01 1.462549999999999883e+01 1.205870000000000033e+02 2.351614999999999782e+03
1.190000000000000085e-01 1.728004999999999958e-01 1.370135000000000147e+01 1.185354999999999990e+02 2.351079999999999927e+03
1.200000000000000094e-01 1.727434999999999943e-01 1.280985000000000085e+01 1.165695000000000050e+02 2.350550000000000182e+03
1.209999999999999964e-01 1.726884999999999948e-01 1.197332000000000107e+01 1.147489999999999952e+02 2.350045000000000073e+03
1.219999999999999973e-01 1.726380000000000137e-01 1.121126500000000092e+01 1.131250000000000000e+02 2.349574999999999818e+03
1.229999999999999982e-01 1.725929999999999964e-01 1.053983500000000006e+01 1.117369999999999948e+02 2.349149999999999636e+03
1.239999999999999991e-01 1.725539999999999852e-01 9.970644999999999314e+00 1.106105000000000018e+02 2.348784999999999854e+03
1.250000000000000000e-01 1.725214999999999943e-01 9.510735000000000383e+00 1.097584999999999980e+02 2.348484999999999673e+03
1.260000000000000009e-01 1.724974999999999981e-01 9.162095000000000766e+00 1.091800000000000068e+02 2.348255000000000109e+03
1.270000000000000018e-01 1.724805000000000088e-01 8.922240000000000393e+00 1.088635000000000019e+02 2.348090000000000146e+03
1.280000000000000027e-01 1.724700000000000122e-01 8.784310000000001395e+00 1.087839999999999918e+02 2.347984999999999673e+03
1.290000000000000036e-01 1.724660000000000082e-01 8.737925000000000608e+00 1.089110000000000014e+02 2.347944999999999709e+03
1.300000000000000044e-01 1.724680000000000102e-01 8.769845000000000113e+00 1.092059999999999889e+02 2.347949999999999818e+03
1.310000000000000053e-01 1.724744999999999751e-01 8.864819999999999922e+00 1.096289999999999907e+02 2.348000000000000000e+03
1.320000000000000062e-01 1.724844999999999851e-01 9.006389999999999674e+00 1.101364999999999981e+02 2.348085000000000036e+03
1.330000000000000071e-01 1.724959999999999827e-01 9.177724999999998801e+00 1.106870000000000118e+02 2.348195000000000164e+03
1.340000000000000080e-01 1.725099999999999967e-01 9.362370000000000303e+00 1.112394999999999925e+02 2.348315000000000055e+03
1.350000000000000089e-01 1.725240000000000107e-01 9.544934999999998837e+00 1.117590000000000003e+02 2.348440000000000055e+03
1.360000000000000098e-01 1.725364999999999815e-01 9.711714999999999876e+00 1.122145000000000010e+02 2.348555000000000291e+03
1.370000000000000107e-01 1.725475000000000203e-01 9.851189999999999003e+00 1.125815000000000055e+02 2.348659999999999854e+03
1.380000000000000115e-01 1.725565000000000015e-01 9.954435000000000144e+00 1.128419999999999987e+02 2.348744999999999891e+03
1.390000000000000124e-01 1.725629999999999942e-01 1.001529000000000025e+01 1.129859999999999900e+02 2.348805000000000291e+03
1.400000000000000133e-01 1.725659999999999972e-01 1.003060999999999936e+01 1.130109999999999957e+02 2.348840000000000146e+03
1.410000000000000142e-01 1.725669999999999982e-01 1.000018999999999991e+01 1.129205000000000041e+02 2.348845000000000255e+03
1.420000000000000151e-01 1.725639999999999952e-01 9.926504999999998802e+00 1.127254999999999967e+02 2.348820000000000164e+03
1.430000000000000160e-01 1.725585000000000035e-01 9.814329999999999998e+00 1.124424999999999955e+02 2.348780000000000200e+03
1.440000000000000169e-01 1.725514999999999965e-01 9.670394999999999186e+00 1.120914999999999964e+02 2.348710000000000036e+03
1.450000000000000178e-01 1.725420000000000009e-01 9.502600000000001046e+00 1.116940000000000026e+02 2.348625000000000000e+03
1.459999999999999909e-01 1.725309999999999899e-01 9.319589999999999819e+00 1.112740000000000009e+02 2.348529999999999745e+03
1.469999999999999918e-01 1.725200000000000067e-01 9.129905000000000825e+00 1.108539999999999992e+02 2.348434999999999945e+03
1.479999999999999927e-01 1.725089999999999957e-01 8.941575000000000273e+00 1.104530000000000030e+02 2.348329999999999927e+03
1.489999999999999936e-01 1.724984999999999991e-01 8.761504999999999654e+00 1.100865000000000009e+02 2.348235000000000127e+03
1.499999999999999944e-01 1.724884999999999891e-01 8.595185000000000741e+00 1.097650000000000006e+02 2.348144999999999982e+03
1.509999999999999953e-01 1.724800000000000222e-01 8.446424999999999628e+00 1.094959999999999951e+02 2.348064999999999600e+03
1.519999999999999962e-01 1.724725000000000008e-01 8.317350000000001131e+00 1.092794999999999987e+02 2.347994999999999891e+03
1.529999999999999971e-01 1.724664999999999948e-01 8.208429999999999893e+00 1.091140000000000043e+02 2.347940000000000055e+03
1.539999999999999980e-01 1.724620000000000042e-01 8.118680000000001229e+00 1.089919999999999902e+02 2.347890000000000327e+03
1.549999999999999989e-01 1.724580000000000002e-01 8.045894999999999797e+00 1.089050000000000011e+02 2.347859999999999673e+03
1.559999999999999998e-01 1.724554999999999838e-01 7.986964999999999648e+00 1.088425000000000011e+02 2.347829999999999927e+03
1.570000000000000007e-01 1.724529999999999952e-01 7.938140000000000640e+00 1.087925000000000040e+02 2.347805000000000291e+03
1.580000000000000016e-01 1.724514999999999798e-01 7.895360000000000156e+00 1.087435000000000116e+02 2.347784999999999854e+03
1.590000000000000024e-01 1.724489999999999912e-01 7.854509999999999437e+00 1.086844999999999999e+02 2.347765000000000327e+03
