# t [s], A [cm^2], U [cm/s], P [cPa], c [cm/s]
1.000000000000000021e-03 5.488420000000000520e-01 4.233050000000002089e-03 9.558594999999999686e+01 1.523949999999999818e+03
2.000000000000000042e-03 5.488340000000000440e-01 -2.091142499999999998e-03 9.556719999999999970e+01 1.523949999999999818e+03
3.000000000000000062e-03 5.488565000000000804e-01 3.801419999999999799e-02 9.560540000000000305e+01 1.523960000000000036e+03
4.000000000000000083e-03 5.489029999999999188e-01 1.252370999999999901e-01 9.571135000000001014e+01 1.523985000000000127e+03
5.000000000000000104e-03 5.489165000000000294e-01 1.618472499999999981e-01 9.575544999999999618e+01 1.524000000000000000e+03
6.000000000000000125e-03 5.488834999999999686e-01 1.144379999999999842e-01 9.567024999999999579e+01 1.523985000000000127e+03
7.000000000000000146e-03 5.488410000000000233e-01 4.591600000000001236e-02 9.551210000000000377e+01 1.523944999999999936e+03
8.000000000000000167e-03 5.488055000000000572e-01 -1.422300000000004117e-02 9.532620000000000005e+01 1.523900000000000091e+03
9.000000000000001055e-03 5.487505000000000299e-01 -1.185070000000000290e-01 9.506235000000000923e+01 1.523835000000000036e+03
1.000000000000000194e-02 5.486604999999999954e-01 -3.014425000000000021e-01 9.466904999999999859e+01 1.523735000000000127e+03
1.099999999999999936e-02 5.485309999999999908e-01 -5.696200000000000152e-01 9.411690000000000111e+01 1.523599999999999909e+03
1.200000000000000025e-02 5.483514999999999917e-01 -9.376299999999999635e-01 9.336499999999999488e+01 1.523409999999999854e+03
1.300000000000000114e-02 5.481129999999999614e-01 -1.414899999999999824e+00 9.237354999999999450e+01 1.523164999999999964e+03
1.400000000000000203e-02 5.478250000000000064e-01 -1.969904999999999795e+00 9.114979999999999905e+01 1.522849999999999909e+03
1.499999999999999944e-02 5.475185000000000191e-01 -2.524445000000000050e+00 8.976765000000000327e+01 1.522485000000000127e+03
1.600000000000000033e-02 5.472289999999999655e-01 -2.984515000000000029e+00 8.834014999999999418e+01 1.522095000000000027e+03
1.700000000000000122e-02 5.469824999999999271e-01 -3.278200000000000003e+00 8.697310000000000230e+01 1.521704999999999927e+03
1.800000000000000211e-02 5.467834999999999779e-01 -3.376221000000000139e+00 8.572964999999999236e+01 1.521335000000000036e+03
1.900000000000000300e-02 5.466204999999999536e-01 -3.291170999999999847e+00 8.461979999999999791e+01 1.520985000000000127e+03
2.000000000000000042e-02 5.464719999999999578e-01 -3.063422000000000089e+00 8.360960000000000036e+01 1.520654999999999973e+03
2.100000000000000130e-02 5.463149999999999951e-01 -2.742851300000000325e+00 8.264115000000001032e+01 1.520329999999999927e+03
2.200000000000000219e-02 5.461325000000000207e-01 -2.372695499999999846e+00 8.165505000000000280e+01 1.520000000000000000e+03
2.299999999999999961e-02 5.459184999999999732e-01 -1.978960000000000274e+00 8.060855000000000814e+01 1.519654999999999973e+03
2.400000000000000050e-02 5.456754999999999800e-01 -1.567130000000000134e+00 7.948595000000000255e+01 1.519289999999999964e+03
2.500000000000000139e-02 5.454140000000000654e-01 -1.126014999999999766e+00 7.829895000000000493e+01 1.518900000000000091e+03
2.600000000000000228e-02 5.451464999999999783e-01 -6.369499999999999051e-01 7.707829999999999870e+01 1.518509999999999991e+03
2.700000000000000316e-02 5.448844999999999938e-01 -8.474499999999984823e-02 7.585965000000000202e+01 1.518110000000000127e+03
2.800000000000000058e-02 5.446334999999999926e-01 5.333450000000001801e-01 7.467005000000000337e+01 1.517720000000000027e+03
2.900000000000000147e-02 5.443904999999999994e-01 1.202984999999999749e+00 7.351779999999999404e+01 1.517329999999999927e+03
3.000000000000000236e-02 5.441475000000000062e-01 1.893065000000000220e+00 7.238819999999999766e+01 1.516949999999999818e+03
3.099999999999999978e-02 5.438904999999999434e-01 2.560385000000000133e+00 7.124599999999999511e+01 1.516569999999999936e+03
3.200000000000000067e-02 5.436050000000000049e-01 3.157094999999999541e+00 7.004309999999999548e+01 1.516180000000000064e+03
3.300000000000000155e-02 5.432789999999999564e-01 3.639419999999999433e+00 6.872899999999999920e+01 1.515755000000000109e+03
3.400000000000000244e-02 5.429045000000000121e-01 3.975769999999999804e+00 6.726330000000000098e+01 1.515304999999999836e+03
3.500000000000000333e-02 5.424820000000000197e-01 4.152689999999999770e+00 6.562549999999998818e+01 1.514809999999999945e+03
3.600000000000000422e-02 5.420194999999999874e-01 4.176534999999999442e+00 6.382219999999999516e+01 1.514275000000000091e+03
3.700000000000000511e-02 5.415305000000000257e-01 4.071950000000000180e+00 6.188714999999999833e+01 1.513710000000000036e+03
3.799999999999999906e-02 5.410350000000000437e-01 3.875974999999999948e+00 5.987664999999999793e+01 1.513119999999999891e+03
3.899999999999999994e-02 5.405514999999999626e-01 3.631005000000000038e+00 5.786149999999999949e+01 1.512525000000000091e+03
4.000000000000000083e-02 5.400979999999999670e-01 3.378445000000000142e+00 5.591669999999999874e+01 1.511945000000000164e+03
4.100000000000000172e-02 5.396894999999999332e-01 3.153374999999999595e+00 5.411275000000000546e+01 1.511400000000000091e+03
4.200000000000000261e-02 5.393360000000000376e-01 2.982084999999999653e+00 5.250950000000000273e+01 1.510900000000000091e+03
4.300000000000000350e-02 5.390439999999999676e-01 2.881634999999999724e+00 5.115215000000000600e+01 1.510469999999999800e+03
4.400000000000000439e-02 5.388159999999999616e-01 2.861320000000000086e+00 5.007094999999999629e+01 1.510110000000000127e+03
4.499999999999999833e-02 5.386524999999999785e-01 2.925025500000000278e+00 4.928260000000000218e+01 1.509829999999999927e+03
4.599999999999999922e-02 5.385539999999999772e-01 3.073944000000000010e+00 4.879335000000000377e+01 1.509630000000000109e+03
4.700000000000000011e-02 5.385174999999999823e-01 3.308984999999999843e+00 4.860269999999999868e+01 1.509525000000000091e+03
4.800000000000000100e-02 5.385429999999999939e-01 3.632455000000000211e+00 4.870680000000000121e+01 1.509500000000000000e+03
4.900000000000000189e-02 5.386309999999999709e-01 4.048645000000000493e+00 4.910074999999999790e+01 1.509565000000000055e+03
5.000000000000000278e-02 5.387800000000000367e-01 4.563485000000000014e+00 4.977989999999999782e+01 1.509720000000000027e+03
5.100000000000000366e-02 5.389919999999999156e-01 5.183275000000000077e+00 5.073999999999999488e+01 1.509949999999999818e+03
5.200000000000000455e-02 5.392649999999999944e-01 5.913104999999999833e+00 5.197575000000000500e+01 1.510264999999999873e+03
5.300000000000000544e-02 5.395984999999999809e-01 6.755224999999999369e+00 5.347925000000000040e+01 1.510664999999999964e+03
5.399999999999999939e-02 5.399884999999999824e-01 7.707870000000000665e+00 5.523859999999999815e+01 1.511144999999999982e+03
5.500000000000000028e-02 5.404309999999999947e-01 8.764509999999999579e+00 5.723659999999999570e+01 1.511694999999999936e+03
5.600000000000000117e-02 5.409199999999999564e-01 9.913914999999999367e+00 5.945005000000000450e+01 1.512309999999999945e+03
5.700000000000000205e-02 5.414474999999999705e-01 1.114096499999999956e+01 6.185060000000000002e+01 1.512985000000000127e+03
5.800000000000000294e-02 5.420055000000000289e-01 1.242755499999999991e+01 6.440529999999999688e+01 1.513714999999999918e+03
5.900000000000000383e-02 5.425849999999999840e-01 1.375389499999999998e+01 6.707845000000000368e+01 1.514485000000000127e+03
6.000000000000000472e-02 5.431785000000000085e-01 1.510018999999999956e+01 6.983365000000000578e+01 1.515289999999999964e+03
6.099999999999999867e-02 5.437784999999999425e-01 1.644750499999999960e+01 7.263559999999999661e+01 1.516115000000000009e+03
6.199999999999999956e-02 5.443780000000000285e-01 1.777909999999999968e+01 7.545194999999999652e+01 1.516950000000000045e+03
6.300000000000000044e-02 5.449725000000000819e-01 1.908089999999999975e+01 7.825479999999998881e+01 1.517789999999999964e+03
6.400000000000000133e-02 5.455570000000000697e-01 2.034175000000000111e+01 8.102145000000000152e+01 1.518634999999999991e+03
6.500000000000000222e-02 5.461294999999999344e-01 2.155349999999999966e+01 8.373499999999999943e+01 1.519464999999999918e+03
6.600000000000000311e-02 5.466889999999999805e-01 2.271075000000000088e+01 8.638394999999999868e+01 1.520280000000000200e+03
6.700000000000000400e-02 5.472349999999999159e-01 2.381034999999999968e+01 8.896215000000000828e+01 1.521079999999999927e+03
6.800000000000000488e-02 5.477670000000000039e-01 2.485090000000000288e+01 9.146750000000000114e+01 1.521869999999999891e+03
6.900000000000000577e-02 5.482854999999999812e-01 2.583230000000000004e+01 9.390125000000000455e+01 1.522634999999999991e+03
7.000000000000000666e-02 5.487925000000000164e-01 2.675545000000000329e+01 9.626705000000001178e+01 1.523380000000000109e+03
7.100000000000000755e-02 5.492885000000000684e-01 2.762129999999999797e+01 9.856960000000000832e+01 1.524110000000000127e+03
7.200000000000000844e-02 5.497744999999999438e-01 2.843104999999999905e+01 1.008142500000000013e+02 1.524824999999999818e+03
7.300000000000000933e-02 5.502510000000000456e-01 2.918545000000000300e+01 1.030054000000000087e+02 1.525525000000000091e+03
7.399999999999999634e-02 5.507184999999999997e-01 2.988494999999999990e+01 1.051465499999999906e+02 1.526214999999999918e+03
7.499999999999999722e-02 5.511764999999999581e-01 3.052919999999999945e+01 1.072390000000000043e+02 1.526880000000000109e+03
7.599999999999999811e-02 5.516254999999999908e-01 3.111730000000000018e+01 1.092830000000000013e+02 1.527539999999999964e+03
7.699999999999999900e-02 5.520635000000000403e-01 3.164765000000000228e+01 1.112744999999999891e+02 1.528179999999999836e+03
7.799999999999999989e-02 5.524894999999999667e-01 3.211814999999999998e+01 1.132100000000000080e+02 1.528804999999999836e+03
7.900000000000000078e-02 5.529005000000000170e-01 3.252635000000000076e+01 1.150815000000000055e+02 1.529409999999999854e+03
8.000000000000000167e-02 5.532964999999999689e-01 3.286965000000000003e+01 1.168824999999999932e+02 1.530000000000000000e+03
8.100000000000000255e-02 5.536745000000000694e-01 3.314570000000000505e+01 1.186039999999999992e+02 1.530559999999999945e+03
8.200000000000000344e-02 5.540329999999999977e-01 3.335245000000000459e+01 1.202360000000000042e+02 1.531099999999999909e+03
8.300000000000000433e-02 5.543694999999999595e-01 3.348834999999999695e+01 1.217719999999999914e+02 1.531605000000000018e+03
8.400000000000000522e-02 5.546834999999999960e-01 3.355254999999999654e+01 1.232034999999999911e+02 1.532085000000000036e+03
8.500000000000000611e-02 5.549729999999999386e-01 3.354489999999999839e+01 1.245229999999999961e+02 1.532530000000000200e+03
8.600000000000000699e-02 5.552375000000000504e-01 3.346594999999999942e+01 1.257270000000000039e+02 1.532940000000000055e+03
8.700000000000000788e-02 5.554764999999999286e-01 3.331700000000000017e+01 1.268104999999999905e+02 1.533315000000000055e+03
8.800000000000000877e-02 5.556889999999999885e-01 3.310000000000000142e+01 1.277724999999999937e+02 1.533655000000000200e+03
8.899999999999999578e-02 5.558760000000000367e-01 3.281745000000000090e+01 1.286115000000000066e+02 1.533954999999999927e+03
8.999999999999999667e-02 5.560365000000000446e-01 3.247249999999999659e+01 1.293290000000000077e+02 1.534220000000000027e+03
9.099999999999999756e-02 5.561719999999999997e-01 3.206855000000000189e+01 1.299269999999999925e+02 1.534444999999999936e+03
9.199999999999999845e-02 5.562829999999999719e-01 3.160979999999999990e+01 1.304089999999999918e+02 1.534634999999999991e+03
9.299999999999999933e-02 5.563704999999999901e-01 3.110069999999999979e+01 1.307795000000000130e+02 1.534784999999999854e+03
9.400000000000000022e-02 5.564365000000000006e-01 3.054629999999999868e+01 1.310434999999999945e+02 1.534904999999999973e+03
9.500000000000000111e-02 5.564804999999999335e-01 2.995195000000000363e+01 1.312094999999999914e+02 1.534994999999999891e+03
9.600000000000000200e-02 5.565059999999999452e-01 2.932365000000000066e+01 1.312849999999999966e+02 1.535049999999999955e+03
9.700000000000000289e-02 5.565145000000000231e-01 2.866760000000000019e+01 1.312780000000000200e+02 1.535079999999999927e+03
9.800000000000000377e-02 5.565080000000000027e-01 2.799029999999999774e+01 1.311984999999999957e+02 1.535085000000000036e+03
9.900000000000000466e-02 5.564884999999999415e-01 2.729829999999999757e+01 1.310564999999999998e+02 1.535065000000000055e+03
1.000000000000000056e-01 5.564580000000000082e-01 2.659815000000000040e+01 1.308615000000000066e+02 1.535029999999999973e+03
1.010000000000000064e-01 5.564194999999999558e-01 2.589610000000000056e+01 1.306254999999999882e+02 1.534980000000000018e+03
1.020000000000000073e-01 5.563740000000000352e-01 2.519780000000000086e+01 1.303564999999999827e+02 1.534910000000000082e+03
1.030000000000000082e-01 5.563234999999999708e-01 2.450849999999999795e+01 1.300639999999999930e+02 1.534835000000000036e+03
1.040000000000000091e-01 5.562700000000000422e-01 2.383245000000000147e+01 1.297570000000000050e+02 1.534750000000000000e+03
1.050000000000000100e-01 5.562139999999999862e-01 2.317295000000000016e+01 1.294405000000000143e+02 1.534654999999999973e+03
1.059999999999999970e-01 5.561574999999999713e-01 2.253229999999999933e+01 1.291220000000000141e+02 1.534565000000000055e+03
1.069999999999999979e-01 5.561000000000000387e-01 2.191179999999999950e+01 1.288029999999999973e+02 1.534470000000000027e+03
1.079999999999999988e-01 5.560424999999999951e-01 2.131159999999999854e+01 1.284865000000000066e+02 1.534369999999999891e+03
1.089999999999999997e-01 5.559844999999999926e-01 2.073104999999999976e+01 1.281730000000000018e+02 1.534275000000000091e+03
1.100000000000000006e-01 5.559250000000000025e-01 2.016864999999999952e+01 1.278614999999999924e+02 1.534180000000000064e+03
1.110000000000000014e-01 5.558644999999999836e-01 1.962215000000000131e+01 1.275494999999999948e+02 1.534075000000000045e+03
1.120000000000000023e-01 5.558015000000000594e-01 1.908885000000000076e+01 1.272349999999999994e+02 1.533974999999999909e+03
1.130000000000000032e-01 5.557360000000000078e-01 1.856569999999999965e+01 1.269140000000000015e+02 1.533869999999999891e+03
1.140000000000000041e-01 5.556659999999999933e-01 1.804950000000000188e+01 1.265815000000000055e+02 1.533769999999999982e+03
1.150000000000000050e-01 5.555919999999999748e-01 1.753689999999999927e+01 1.262340000000000089e+02 1.533660000000000082e+03
1.160000000000000059e-01 5.555120000000000058e-01 1.702479999999999905e+01 1.258679999999999950e+02 1.533545000000000073e+03
1.170000000000000068e-01 5.554255000000000164e-01 1.651024999999999920e+01 1.254789999999999992e+02 1.533425000000000182e+03
1.180000000000000077e-01 5.553329999999999655e-01 1.599074999999999847e+01 1.250660000000000025e+02 1.533295000000000073e+03
1.190000000000000085e-01 5.552334999999999354e-01 1.546419999999999817e+01 1.246250000000000000e+02 1.533160000000000082e+03
1.200000000000000094e-01 5.551274999999999959e-01 1.492905000000000015e+01 1.241550000000000011e+02 1.533014999999999873e+03
1.209999999999999964e-01 5.550144999999999662e-01 1.438435000000000130e+01 1.236574999999999989e+02 1.532865000000000009e+03
1.219999999999999973e-01 5.548954999999999860e-01 1.382979499999999895e+01 1.231310000000000002e+02 1.532704999999999927e+03
1.229999999999999982e-01 5.547705000000000553e-01 1.326577499999999965e+01 1.225794999999999959e+02 1.532539999999999964e+03
1.239999999999999991e-01 5.546409999999999396e-01 1.269341999999999970e+01 1.220054999999999978e+02 1.532365000000000009e+03
1.250000000000000000e-01 5.545074999999999310e-01 1.211439499999999825e+01 1.214129999999999967e+02 1.532184999999999945e+03
1.260000000000000009e-01 5.543715000000000170e-01 1.153103499999999926e+01 1.208075000000000045e+02 1.531994999999999891e+03
1.270000000000000018e-01 5.542350000000000332e-01 1.094628499999999960e+01 1.201949999999999932e+02 1.531815000000000055e+03
1.280000000000000027e-01 5.540990000000000082e-01 1.036346999999999952e+01 1.195815000000000055e+02 1.531625000000000000e+03
1.290000000000000036e-01 5.539654999999999996e-01 9.786270000000000024e+00 1.189749999999999943e+02 1.531434999999999945e+03
1.300000000000000044e-01 5.538350000000000772e-01 9.218645000000000422e+00 1.183820000000000050e+02 1.531255000000000109e+03
1.310000000000000053e-01 5.537104999999999944e-01 8.664535000000000764e+00 1.178100000000000023e+02 1.531075000000000045e+03
1.320000000000000062e-01 5.535939999999999195e-01 8.128009999999999735e+00 1.172665000000000077e+02 1.530904999999999973e+03
1.330000000000000071e-01 5.534845000000000459e-01 7.612910000000000288e+00 1.167584999999999980e+02 1.530744999999999891e+03
1.340000000000000080e-01 5.533859999999999335e-01 7.122675000000000978e+00 1.162915000000000134e+02 1.530595000000000027e+03
1.350000000000000089e-01 5.532974999999999977e-01 6.660479999999999734e+00 1.158704999999999927e+02 1.530454999999999927e+03
1.360000000000000098e-01 5.532209999999999628e-01 6.228899999999999437e+00 1.155005000000000024e+02 1.530329999999999927e+03
1.370000000000000107e-01 5.531559999999999810e-01 5.829945000000000377e+00 1.151844999999999999e+02 1.530224999999999909e+03
1.380000000000000115e-01 5.531044999999999989e-01 5.464964999999999407e+00 1.149240000000000066e+02 1.530130000000000109e+03
1.390000000000000124e-01 5.530645000000000699e-01 5.134624999999999773e+00 1.147194999999999965e+02 1.530055000000000064e+03
1.400000000000000133e-01 5.530364999999999309e-01 4.838924999999999699e+00 1.145699999999999932e+02 1.529994999999999891e+03
1.410000000000000142e-01 5.530205000000000259e-01 4.577214999999999812e+00 1.144745000000000061e+02 1.529949999999999818e+03
1.420000000000000151e-01 5.530144999999999644e-01 4.348240000000000549e+00 1.144284999999999997e+02 1.529920000000000073e+03
1.430000000000000160e-01 5.530184999999999684e-01 4.150235000000000340e+00 1.144295000000000044e+02 1.529909999999999854e+03
1.440000000000000169e-01 5.530310000000000503e-01 3.980999999999999872e+00 1.144720000000000084e+02 1.529909999999999854e+03
1.450000000000000178e-01 5.530505000000000004e-01 3.838009999999999700e+00 1.145504999999999995e+02 1.529920000000000073e+03
1.459999999999999909e-01 5.530755000000000532e-01 3.718515000000000015e+00 1.146589999999999918e+02 1.529940000000000055e+03
1.469999999999999918e-01 5.531059999999999865e-01 3.619629999999999903e+00 1.147930000000000064e+02 1.529969999999999800e+03
1.479999999999999927e-01 5.531405000000000349e-01 3.538445000000000285e+00 1.149449999999999932e+02 1.530005000000000109e+03
1.489999999999999936e-01 5.531770000000000298e-01 3.472094999999999931e+00 1.151110000000000042e+02 1.530049999999999955e+03
1.499999999999999944e-01 5.532144999999999424e-01 3.417819999999999858e+00 1.152844999999999942e+02 1.530095000000000027e+03
1.509999999999999953e-01 5.532525000000000359e-01 3.373029999999999973e+00 1.154615000000000009e+02 1.530144999999999982e+03
1.519999999999999962e-01 5.532900000000000595e-01 3.335345000000000226e+00 1.156374999999999886e+02 1.530190000000000055e+03
1.529999999999999971e-01 5.533259999999999845e-01 3.302599999999999980e+00 1.158089999999999975e+02 1.530240000000000009e+03
1.539999999999999980e-01 5.533609999999999918e-01 3.272890000000000299e+00 1.159724999999999966e+02 1.530284999999999854e+03
1.549999999999999989e-01 5.533930000000000238e-01 3.244559999999999889e+00 1.161264999999999930e+02 1.530335000000000036e+03
1.559999999999999998e-01 5.534225000000000394e-01 3.216224999999999667e+00 1.162680000000000007e+02 1.530375000000000000e+03
1.570000000000000007e-01 5.534494999999999276e-01 3.186740000000000350e+00 1.163969999999999914e+02 1.530414999999999964e+03
1.580000000000000016e-01 5.534734999999999516e-01 3.155224999999999724e+00 1.165105000000000075e+02 1.530450000000000045e+03
1.590000000000000024e-01 5.534939999999999305e-01 3.121024999999999938e+00 1.166105000000000018e+02 1.530485000000000127e+03
