# t [s], A [cm^2], U [cm/s], P [cPa], c [cm/s]
1.000000000000000021e-03 1.457875000000000143e-01 1.261041350000000061e-01 9.186455000000000837e+01 1.918634999999999991e+03
2.000000000000000042e-03 1.457684999999999953e-01 1.320170000000000066e+00 8.950094999999998890e+01 1.918430000000000064e+03
3.000000000000000062e-03 1.456914999999999738e-01 2.862387499999999640e+00 8.626900000000000546e+01 1.917639999999999873e+03
4.000000000000000083e-03 1.455724999999999936e-01 4.606182999999999694e+00 8.243250000000000455e+01 1.916440000000000055e+03
5.000000000000000104e-03 1.454320000000000057e-01 6.505192499999999711e+00 7.858940000000001191e+01 1.915035000000000082e+03
6.000000000000000125e-03 1.452864999999999851e-01 8.487035000000000551e+00 7.515995000000000914e+01 1.913599999999999909e+03
7.000000000000000146e-03 1.451455000000000106e-01 1.042313500000000026e+01 7.224164999999999281e+01 1.912224999999999909e+03
8.000000000000000167e-03 1.450120000000000020e-01 1.217977499999999935e+01 6.969230000000000302e+01 1.910945000000000164e+03
9.000000000000001055e-03 1.448875000000000024e-01 1.370014499999999913e+01 6.738705000000000211e+01 1.909769999999999982e+03
1.000000000000000194e-02 1.447755000000000014e-01 1.499830000000000041e+01 6.533974999999999511e+01 1.908724999999999909e+03
1.099999999999999936e-02 1.446775000000000144e-01 1.609900000000000020e+01 6.360354999999999848e+01 1.907819999999999936e+03
1.200000000000000025e-02 1.445950000000000013e-01 1.701670000000000016e+01 6.218880000000000052e+01 1.907069999999999936e+03
1.300000000000000114e-02 1.445265000000000022e-01 1.776149999999999807e+01 6.106965000000000288e+01 1.906449999999999818e+03
1.400000000000000203e-02 1.444709999999999883e-01 1.833834999999999837e+01 6.019525000000000148e+01 1.905960000000000036e+03
1.499999999999999944e-02 1.444259999999999988e-01 1.874709999999999965e+01 5.948870000000000147e+01 1.905570000000000164e+03
1.600000000000000033e-02 1.443889999999999896e-01 1.899990000000000023e+01 5.888150000000000261e+01 1.905250000000000000e+03
1.700000000000000122e-02 1.443590000000000151e-01 1.914179999999999993e+01 5.837730000000000530e+01 1.905000000000000000e+03
1.800000000000000211e-02 1.443369999999999931e-01 1.925285000000000224e+01 5.808644999999999925e+01 1.904825000000000045e+03
1.900000000000000300e-02 1.443284999999999985e-01 1.942354999999999876e+01 5.818949999999999534e+01 1.904759999999999991e+03
2.000000000000000042e-02 1.443375000000000075e-01 1.971945000000000192e+01 5.884720000000000084e+01 1.904849999999999909e+03
2.100000000000000130e-02 1.443649999999999933e-01 2.015494999999999948e+01 6.011180000000000234e+01 1.905109999999999900e+03
2.200000000000000219e-02 1.444110000000000116e-01 2.068880000000000052e+01 6.188479999999999848e+01 1.905529999999999973e+03
2.299999999999999961e-02 1.444695000000000007e-01 2.124054999999999893e+01 6.393755000000000166e+01 1.906079999999999927e+03
2.400000000000000050e-02 1.445339999999999958e-01 2.171804999999999808e+01 6.597754999999999370e+01 1.906684999999999945e+03
2.500000000000000139e-02 1.445960000000000023e-01 2.204500000000000171e+01 6.773040000000000305e+01 1.907275000000000091e+03
2.600000000000000228e-02 1.446494999999999864e-01 2.217985000000000184e+01 6.900804999999999723e+01 1.907789999999999964e+03
2.700000000000000316e-02 1.446899999999999853e-01 2.212145000000000294e+01 6.974415000000000475e+01 1.908184999999999945e+03
2.800000000000000058e-02 1.447169999999999845e-01 2.190290000000000248e+01 6.999125000000000796e+01 1.908454999999999927e+03
2.900000000000000147e-02 1.447315000000000129e-01 2.157629999999999981e+01 6.988540000000000418e+01 1.908605000000000018e+03
3.000000000000000236e-02 1.447370000000000045e-01 2.119460000000000122e+01 6.959399999999999409e+01 1.908675000000000182e+03
3.099999999999999978e-02 1.447375000000000189e-01 2.079700000000000060e+01 6.926330000000000098e+01 1.908690000000000055e+03
3.200000000000000067e-02 1.447354999999999892e-01 2.039979999999999905e+01 6.898134999999999195e+01 1.908679999999999836e+03
3.300000000000000155e-02 1.447330000000000005e-01 1.999685000000000201e+01 6.876445000000001073e+01 1.908654999999999973e+03
3.400000000000000244e-02 1.447295000000000109e-01 1.956555000000000177e+01 6.856620000000000914e+01 1.908625000000000000e+03
3.500000000000000333e-02 1.447239999999999915e-01 1.907804999999999751e+01 6.830469999999999686e+01 1.908574999999999818e+03
3.600000000000000422e-02 1.447144999999999959e-01 1.851269999999999882e+01 6.789709999999999468e+01 1.908490000000000009e+03
3.700000000000000511e-02 1.446990000000000220e-01 1.786399999999999721e+01 6.729274999999999807e+01 1.908355000000000018e+03
3.799999999999999906e-02 1.446775000000000144e-01 1.714744999999999919e+01 6.649604999999999677e+01 1.908164999999999964e+03
3.899999999999999994e-02 1.446510000000000018e-01 1.639930000000000021e+01 6.557325000000000159e+01 1.907920000000000073e+03
4.000000000000000083e-02 1.446224999999999872e-01 1.567050000000000054e+01 6.464260000000000161e+01 1.907655000000000200e+03
4.100000000000000172e-02 1.445950000000000013e-01 1.501670000000000016e+01 6.384960000000000235e+01 1.907400000000000091e+03
4.200000000000000261e-02 1.445724999999999927e-01 1.448704999999999998e+01 6.333530000000000371e+01 1.907195000000000164e+03
4.300000000000000350e-02 1.445599999999999941e-01 1.411459999999999937e+01 6.320565000000000566e+01 1.907070000000000164e+03
4.400000000000000439e-02 1.445589999999999931e-01 1.391055000000000064e+01 6.350889999999999702e+01 1.907045000000000073e+03
4.499999999999999833e-02 1.445710000000000051e-01 1.386254999999999882e+01 6.422610000000000241e+01 1.907144999999999982e+03
4.599999999999999922e-02 1.445945000000000147e-01 1.393805000000000049e+01 6.527570000000000050e+01 1.907349999999999909e+03
4.700000000000000011e-02 1.446264999999999912e-01 1.409065000000000012e+01 6.652915000000000134e+01 1.907639999999999873e+03
4.800000000000000100e-02 1.446649999999999880e-01 1.426740000000000030e+01 6.783355000000000246e+01 1.907990000000000009e+03
4.900000000000000189e-02 1.447034999999999849e-01 1.441710000000000136e+01 6.903549999999999898e+01 1.908344999999999800e+03
5.000000000000000278e-02 1.447395000000000209e-01 1.449575000000000102e+01 7.000190000000000623e+01 1.908675000000000182e+03
5.100000000000000366e-02 1.447684999999999944e-01 1.447104999999999997e+01 7.063485000000000014e+01 1.908945000000000164e+03
5.200000000000000455e-02 1.447869999999999990e-01 1.432349999999999923e+01 7.087850000000000250e+01 1.909125000000000000e+03
5.300000000000000544e-02 1.447944999999999927e-01 1.404605000000000103e+01 7.071834999999998672e+01 1.909204999999999927e+03
5.399999999999999939e-02 1.447895000000000154e-01 1.364179999999999993e+01 7.017470000000000141e+01 1.909170000000000073e+03
5.500000000000000028e-02 1.447729999999999850e-01 1.312089999999999890e+01 6.929259999999999309e+01 1.909025000000000091e+03
5.600000000000000117e-02 1.447454999999999992e-01 1.249745000000000061e+01 6.813044999999999618e+01 1.908775000000000091e+03
5.700000000000000205e-02 1.447090000000000043e-01 1.178720000000000034e+01 6.675010000000000332e+01 1.908444999999999936e+03
5.800000000000000294e-02 1.446645000000000014e-01 1.100585500000000039e+01 6.520990000000000464e+01 1.908034999999999854e+03
5.900000000000000383e-02 1.446145000000000069e-01 1.016844500000000018e+01 6.356084999999999496e+01 1.907570000000000164e+03
6.000000000000000472e-02 1.445595000000000074e-01 9.289719999999999089e+00 6.184635000000000105e+01 1.907065000000000055e+03
6.099999999999999867e-02 1.445015000000000049e-01 8.384679999999999467e+00 6.010415000000000418e+01 1.906525000000000091e+03
6.199999999999999956e-02 1.444415000000000004e-01 7.469810000000000727e+00 5.836955000000000382e+01 1.905970000000000027e+03
6.300000000000000044e-02 1.443814999999999960e-01 6.563540000000000596e+00 5.667934999999999945e+01 1.905414999999999964e+03
6.400000000000000133e-02 1.443224999999999925e-01 5.686939999999999884e+00 5.507410000000000139e+01 1.904865000000000009e+03
6.500000000000000222e-02 1.442660000000000053e-01 4.863474999999999326e+00 5.359985000000000355e+01 1.904335000000000036e+03
6.600000000000000311e-02 1.442140000000000088e-01 4.118445000000000356e+00 5.230754999999999910e+01 1.903849999999999909e+03
6.700000000000000400e-02 1.441685000000000050e-01 3.477910000000000057e+00 5.125135000000000218e+01 1.903414999999999964e+03
6.800000000000000488e-02 1.441304999999999947e-01 2.967309999999999892e+00 5.048559999999999803e+01 1.903054999999999836e+03
6.900000000000000577e-02 1.441025000000000222e-01 2.609984999999999999e+00 5.006090000000000373e+01 1.902785000000000082e+03
7.000000000000000666e-02 1.440859999999999919e-01 2.425699999999999967e+00 5.002044999999999675e+01 1.902619999999999891e+03
7.100000000000000755e-02 1.440829999999999889e-01 2.429495000000000182e+00 5.039659999999999940e+01 1.902575000000000045e+03
7.200000000000000844e-02 1.440929999999999989e-01 2.630774999999999864e+00 5.120844999999999914e+01 1.902659999999999854e+03
7.300000000000000933e-02 1.441184999999999827e-01 3.032869999999999955e+00 5.246054999999999779e+01 1.902880000000000109e+03
7.399999999999999634e-02 1.441590000000000094e-01 3.632959999999999745e+00 5.414254999999999995e+01 1.903234999999999900e+03
7.499999999999999722e-02 1.442145000000000232e-01 4.422444999999999737e+00 5.623015000000000185e+01 1.903730000000000018e+03
7.599999999999999811e-02 1.442835000000000090e-01 5.387550000000000061e+00 5.868710000000000093e+01 1.904360000000000127e+03
7.699999999999999900e-02 1.443655000000000077e-01 6.510214999999999641e+00 6.146744999999999948e+01 1.905105000000000018e+03
7.799999999999999989e-02 1.444590000000000041e-01 7.769164999999999210e+00 6.451885000000000048e+01 1.905964999999999918e+03
7.900000000000000078e-02 1.445624999999999827e-01 9.141030000000000655e+00 6.778540000000000987e+01 1.906920000000000073e+03
8.000000000000000167e-02 1.446735000000000104e-01 1.060151000000000110e+01 7.121090000000000941e+01 1.907945000000000164e+03
8.100000000000000255e-02 1.447920000000000040e-01 1.212646999999999942e+01 7.474164999999999281e+01 1.909039999999999964e+03
8.200000000000000344e-02 1.449139999999999873e-01 1.369297500000000056e+01 7.832910000000001105e+01 1.910179999999999836e+03
8.300000000000000433e-02 1.450394999999999879e-01 1.527994999999999948e+01 8.193144999999999811e+01 1.911349999999999909e+03
8.400000000000000522e-02 1.451664999999999761e-01 1.686909999999999954e+01 8.551515000000000555e+01 1.912539999999999964e+03
8.500000000000000611e-02 1.452934999999999921e-01 1.844480000000000075e+01 8.905529999999998836e+01 1.913735000000000127e+03
8.600000000000000699e-02 1.454205000000000081e-01 1.999459999999999837e+01 9.253549999999999898e+01 1.914929999999999836e+03
8.700000000000000788e-02 1.455460000000000087e-01 2.150889999999999702e+01 9.594710000000000605e+01 1.916115000000000009e+03
8.800000000000000877e-02 1.456700000000000217e-01 2.298065000000000069e+01 9.928804999999999836e+01 1.917289999999999964e+03
8.899999999999999578e-02 1.457920000000000049e-01 2.440504999999999924e+01 1.025594499999999982e+02 1.918454999999999927e+03
8.999999999999999667e-02 1.459125000000000005e-01 2.577875000000000227e+01 1.057676999999999907e+02 1.919595000000000027e+03
9.099999999999999756e-02 1.460314999999999808e-01 2.709955000000000069e+01 1.089174999999999898e+02 1.920724999999999909e+03
9.199999999999999845e-02 1.461480000000000001e-01 2.836580000000000013e+01 1.120150000000000006e+02 1.921840000000000146e+03
9.299999999999999933e-02 1.462634999999999907e-01 2.957604999999999862e+01 1.150630000000000024e+02 1.922940000000000055e+03
9.400000000000000022e-02 1.463770000000000071e-01 3.072879999999999967e+01 1.180620000000000118e+02 1.924030000000000200e+03
9.500000000000000111e-02 1.464894999999999947e-01 3.182215000000000060e+01 1.210114999999999981e+02 1.925105000000000018e+03
9.600000000000000200e-02 1.465994999999999937e-01 3.285410000000000252e+01 1.239060000000000059e+02 1.926164999999999964e+03
9.700000000000000289e-02 1.467074999999999907e-01 3.382215000000000060e+01 1.267379999999999995e+02 1.927204999999999927e+03
9.800000000000000377e-02 1.468140000000000001e-01 3.472355000000000302e+01 1.294985000000000070e+02 1.928224999999999909e+03
9.900000000000000466e-02 1.469179999999999930e-01 3.555534999999999712e+01 1.321765000000000043e+02 1.929224999999999909e+03
1.000000000000000056e-01 1.470179999999999820e-01 3.631465000000000032e+01 1.347604999999999791e+02 1.930195000000000164e+03
1.010000000000000064e-01 1.471155000000000102e-01 3.699835000000000207e+01 1.372389999999999759e+02 1.931139999999999873e+03
1.020000000000000073e-01 1.472090000000000065e-01 3.760340000000000060e+01 1.395995000000000061e+02 1.932045000000000073e+03
1.030000000000000082e-01 1.472990000000000133e-01 3.812699999999999534e+01 1.418315000000000055e+02 1.932909999999999854e+03
1.040000000000000091e-01 1.473835000000000006e-01 3.856640000000000157e+01 1.439225000000000136e+02 1.933735000000000127e+03
1.050000000000000100e-01 1.474639999999999840e-01 3.891904999999999859e+01 1.458629999999999995e+02 1.934515000000000100e+03
1.059999999999999970e-01 1.475385000000000169e-01 3.918269999999999698e+01 1.476430000000000007e+02 1.935244999999999891e+03
1.069999999999999979e-01 1.476080000000000170e-01 3.935549999999999926e+01 1.492539999999999907e+02 1.935920000000000073e+03
1.079999999999999988e-01 1.476709999999999967e-01 3.943595000000000539e+01 1.506895000000000095e+02 1.936539999999999964e+03
1.089999999999999997e-01 1.477279999999999982e-01 3.942340000000000089e+01 1.519424999999999955e+02 1.937095000000000027e+03
1.100000000000000006e-01 1.477780000000000205e-01 3.931775000000000375e+01 1.530104999999999791e+02 1.937590000000000146e+03
1.110000000000000014e-01 1.478220000000000089e-01 3.912010000000000076e+01 1.538905000000000030e+02 1.938025000000000091e+03
1.120000000000000023e-01 1.478585000000000038e-01 3.883244999999999436e+01 1.545840000000000032e+02 1.938389999999999873e+03
1.130000000000000032e-01 1.478889999999999927e-01 3.845799999999999841e+01 1.550949999999999989e+02 1.938690000000000055e+03
1.140000000000000041e-01 1.479129999999999889e-01 3.800109999999999388e+01 1.554300000000000068e+02 1.938929999999999836e+03
1.150000000000000050e-01 1.479304999999999926e-01 3.746744999999999948e+01 1.555989999999999895e+02 1.939110000000000127e+03
1.160000000000000059e-01 1.479420000000000179e-01 3.686369999999999436e+01 1.556129999999999995e+02 1.939230000000000018e+03
1.170000000000000068e-01 1.479475000000000096e-01 3.619740000000000180e+01 1.554879999999999995e+02 1.939295000000000073e+03
1.180000000000000077e-01 1.479480000000000239e-01 3.547700000000000387e+01 1.552400000000000091e+02 1.939309999999999945e+03
1.190000000000000085e-01 1.479439999999999922e-01 3.471124999999999972e+01 1.548854999999999791e+02 1.939280000000000200e+03
1.200000000000000094e-01 1.479364999999999986e-01 3.390930000000000177e+01 1.544424999999999955e+02 1.939204999999999927e+03
1.209999999999999964e-01 1.479245000000000143e-01 3.308015000000000327e+01 1.539300000000000068e+02 1.939105000000000018e+03
1.219999999999999973e-01 1.479105000000000003e-01 3.223259999999999792e+01 1.533634999999999877e+02 1.938964999999999918e+03
1.229999999999999982e-01 1.478935000000000111e-01 3.137500000000000000e+01 1.527599999999999909e+02 1.938809999999999945e+03
1.239999999999999991e-01 1.478754999999999931e-01 3.051480000000000103e+01 1.521320000000000050e+02 1.938634999999999991e+03
1.250000000000000000e-01 1.478555000000000008e-01 2.965870000000000317e+01 1.514919999999999902e+02 1.938445000000000164e+03
1.260000000000000009e-01 1.478349999999999942e-01 2.881244999999999834e+01 1.508499999999999943e+02 1.938250000000000000e+03
1.270000000000000018e-01 1.478134999999999866e-01 2.798060000000000258e+01 1.502119999999999891e+02 1.938045000000000073e+03
1.280000000000000027e-01 1.477919999999999789e-01 2.716664999999999708e+01 1.495835000000000150e+02 1.937835000000000036e+03
1.290000000000000036e-01 1.477709999999999857e-01 2.637290000000000134e+01 1.489660000000000082e+02 1.937630000000000109e+03
1.300000000000000044e-01 1.477495000000000058e-01 2.560065000000000168e+01 1.483594999999999970e+02 1.937424999999999955e+03
1.310000000000000053e-01 1.477280000000000260e-01 2.485000000000000142e+01 1.477629999999999768e+02 1.937214999999999918e+03
1.320000000000000062e-01 1.477064999999999906e-01 2.412024999999999864e+01 1.471705000000000041e+02 1.937009999999999991e+03
1.330000000000000071e-01 1.476854999999999973e-01 2.340959999999999752e+01 1.465785000000000196e+02 1.936800000000000182e+03
1.340000000000000080e-01 1.476640000000000175e-01 2.271589999999999776e+01 1.459795000000000016e+02 1.936590000000000146e+03
1.350000000000000089e-01 1.476419999999999955e-01 2.203609999999999758e+01 1.453665000000000020e+02 1.936375000000000000e+03
1.360000000000000098e-01 1.476195000000000146e-01 2.136694999999999922e+01 1.447314999999999827e+02 1.936155000000000200e+03
1.370000000000000107e-01 1.475960000000000050e-01 2.070495000000000019e+01 1.440665000000000191e+02 1.935924999999999955e+03
1.380000000000000115e-01 1.475715000000000221e-01 2.004659999999999798e+01 1.433645000000000209e+02 1.935690000000000055e+03
1.390000000000000124e-01 1.475454999999999961e-01 1.938840000000000074e+01 1.426179999999999950e+02 1.935440000000000055e+03
1.400000000000000133e-01 1.475180000000000102e-01 1.872739999999999938e+01 1.418215000000000146e+02 1.935174999999999955e+03
1.410000000000000142e-01 1.474890000000000090e-01 1.806094999999999828e+01 1.409710000000000036e+02 1.934889999999999873e+03
1.420000000000000151e-01 1.474575000000000191e-01 1.738700000000000045e+01 1.400625000000000000e+02 1.934595000000000027e+03
1.430000000000000160e-01 1.474245000000000139e-01 1.670429999999999993e+01 1.390955000000000155e+02 1.934279999999999973e+03
1.440000000000000169e-01 1.473900000000000210e-01 1.601245000000000118e+01 1.380715000000000146e+02 1.933940000000000055e+03
1.450000000000000178e-01 1.473524999999999974e-01 1.531170000000000009e+01 1.369925000000000068e+02 1.933585000000000036e+03
1.459999999999999909e-01 1.473140000000000005e-01 1.460350000000000037e+01 1.358640000000000043e+02 1.933215000000000146e+03
1.469999999999999918e-01 1.472729999999999873e-01 1.388995000000000068e+01 1.346929999999999836e+02 1.932825000000000045e+03
1.479999999999999927e-01 1.472310000000000008e-01 1.317419999999999902e+01 1.334879999999999995e+02 1.932420000000000073e+03
1.489999999999999936e-01 1.471874999999999989e-01 1.245994999999999919e+01 1.322599999999999909e+02 1.932000000000000000e+03
1.499999999999999944e-01 1.471434999999999826e-01 1.175158500000000039e+01 1.310194999999999936e+02 1.931575000000000045e+03
1.509999999999999953e-01 1.470990000000000075e-01 1.105391499999999994e+01 1.297794999999999845e+02 1.931150000000000091e+03
1.519999999999999962e-01 1.470540000000000180e-01 1.037211500000000086e+01 1.285525000000000091e+02 1.930720000000000027e+03
1.529999999999999971e-01 1.470095000000000152e-01 9.711365000000000691e+00 1.273514999999999873e+02 1.930295000000000073e+03
1.539999999999999980e-01 1.469659999999999855e-01 9.076834999999999098e+00 1.261889999999999930e+02 1.929869999999999891e+03
1.549999999999999989e-01 1.469229999999999980e-01 8.473205000000000098e+00 1.250750000000000028e+02 1.929465000000000146e+03
1.559999999999999998e-01 1.468824999999999992e-01 7.904949999999999477e+00 1.240210000000000008e+02 1.929070000000000164e+03
1.570000000000000007e-01 1.468435000000000157e-01 7.375785000000000480e+00 1.230339999999999918e+02 1.928694999999999936e+03
1.580000000000000016e-01 1.468065000000000064e-01 6.888765000000000249e+00 1.221214999999999975e+02 1.928340000000000146e+03
1.590000000000000024e-01 1.467720000000000136e-01 6.446150000000000269e+00 1.212874999999999943e+02 1.928009999999999991e+03
