# t [s], A [cm^2], U [cm/s], P [cPa], c [cm/s]
1.000000000000000021e-03 7.268029999999999768e-01 6.267550000000003674e-03 1.043729999999999905e+02 1.687275000000000091e+03
2.000000000000000042e-03 7.267905000000000060e-01 -2.387791499999999956e-03 1.043425000000000011e+02 1.687264999999999873e+03
3.000000000000000062e-03 7.268529999999999713e-01 9.743865000000001553e-02 1.044559999999999889e+02 1.687289999999999964e+03
4.000000000000000083e-03 7.269054999999999822e-01 1.943433400000000033e-01 1.045805000000000007e+02 1.687320000000000164e+03
5.000000000000000104e-03 7.268695000000000572e-01 1.609193999999999902e-01 1.045039999999999907e+02 1.687309999999999945e+03
6.000000000000000125e-03 7.267930000000000224e-01 5.901600000000001289e-02 1.042590000000000003e+02 1.687259999999999991e+03
7.000000000000000146e-03 7.267274999999999707e-01 -3.282800000000002383e-02 1.039610000000000127e+02 1.687200000000000045e+03
8.000000000000000167e-03 7.266215000000000312e-01 -2.053899999999999615e-01 1.035125000000000028e+02 1.687099999999999909e+03
9.000000000000001055e-03 7.264444999999999375e-01 -5.107849999999999335e-01 1.028190000000000026e+02 1.686960000000000036e+03
1.000000000000000194e-02 7.261919999999999487e-01 -9.530149999999999455e-01 1.018338500000000124e+02 1.686760000000000218e+03
1.099999999999999936e-02 7.258400000000000407e-01 -1.558359999999999967e+00 1.004772499999999980e+02 1.686480000000000018e+03
1.200000000000000025e-02 7.253830000000000000e-01 -2.316964999999999719e+00 9.870810000000000173e+01 1.686105000000000018e+03
1.300000000000000114e-02 7.248719999999999608e-01 -3.119454999999999867e+00 9.662715000000000032e+01 1.685655000000000200e+03
1.400000000000000203e-02 7.243889999999999496e-01 -3.794261999999999802e+00 9.445965000000001055e+01 1.685170000000000073e+03
1.499999999999999944e-02 7.239974999999999605e-01 -4.198804999999999232e+00 9.243930000000000291e+01 1.684695000000000164e+03
1.600000000000000033e-02 7.237119999999999109e-01 -4.278761499999999884e+00 9.070369999999999777e+01 1.684264999999999873e+03
1.700000000000000122e-02 7.235000000000000320e-01 -4.070146000000000264e+00 8.925919999999999277e+01 1.683875000000000000e+03
1.800000000000000211e-02 7.233085000000000209e-01 -3.664625000000000021e+00 8.800780000000000314e+01 1.683525000000000091e+03
1.900000000000000300e-02 7.230870000000000353e-01 -3.164431000000000438e+00 8.680525000000000091e+01 1.683184999999999945e+03
2.000000000000000042e-02 7.228045000000000719e-01 -2.644306000000000267e+00 8.552365000000000350e+01 1.682829999999999927e+03
2.100000000000000130e-02 7.224580000000000446e-01 -2.131254999999999900e+00 8.409649999999999181e+01 1.682440000000000055e+03
2.200000000000000219e-02 7.220705000000000595e-01 -1.607219999999999871e+00 8.253300000000000125e+01 1.682034999999999854e+03
2.299999999999999961e-02 7.216724999999999390e-01 -1.031350000000000211e+00 8.089770000000000039e+01 1.681605000000000018e+03
2.400000000000000050e-02 7.212899999999999867e-01 -3.700049999999999173e-01 7.926954999999999529e+01 1.681174999999999955e+03
2.500000000000000139e-02 7.209319999999999062e-01 3.793899999999998940e-01 7.770025000000001114e+01 1.680755000000000109e+03
2.600000000000000228e-02 7.205859999999999488e-01 1.178599999999999870e+00 7.618710000000000093e+01 1.680340000000000146e+03
2.700000000000000316e-02 7.202234999999999054e-01 1.953719999999999901e+00 7.466814999999999714e+01 1.679930000000000064e+03
2.800000000000000058e-02 7.198059999999999459e-01 2.611550000000000260e+00 7.303645000000000209e+01 1.679494999999999891e+03
2.900000000000000147e-02 7.193005000000000093e-01 3.061949999999999950e+00 7.116974999999999341e+01 1.679025000000000091e+03
3.000000000000000236e-02 7.186854999999999771e-01 3.240324999999999900e+00 6.896630000000000393e+01 1.678485000000000127e+03
3.099999999999999978e-02 7.179605000000000015e-01 3.124064999999999870e+00 6.637690000000000623e+01 1.677864999999999782e+03
3.200000000000000067e-02 7.171475000000000488e-01 2.737994999999999735e+00 6.342434999999999690e+01 1.677164999999999964e+03
3.300000000000000155e-02 7.162854999999999084e-01 2.146860000000000213e+00 6.020275000000000176e+01 1.676414999999999964e+03
3.400000000000000244e-02 7.154209999999999736e-01 1.439000000000000057e+00 5.685970000000000368e+01 1.675630000000000109e+03
3.500000000000000333e-02 7.146010000000000417e-01 7.071750000000003311e-01 5.356834999999999525e+01 1.674845000000000027e+03
3.600000000000000422e-02 7.138655000000000417e-01 3.231999999999946027e-02 5.049800000000000466e+01 1.674095000000000027e+03
3.700000000000000511e-02 7.132410000000000139e-01 -5.253600000000000492e-01 4.779200000000000159e+01 1.673420000000000073e+03
3.799999999999999906e-02 7.127425000000000566e-01 -9.292050000000000587e-01 4.555445000000000277e+01 1.672835000000000036e+03
3.899999999999999994e-02 7.123749999999999805e-01 -1.162954999999999961e+00 4.384694999999999965e+01 1.672369999999999891e+03
4.000000000000000083e-02 7.121370000000000200e-01 -1.224554999999999838e+00 4.269294999999999618e+01 1.672029999999999973e+03
4.100000000000000172e-02 7.120214999999999739e-01 -1.118892999999999915e+00 4.208760000000000190e+01 1.671815000000000055e+03
4.200000000000000261e-02 7.120225000000000026e-01 -8.514884999999999815e-01 4.200915000000000532e+01 1.671724999999999909e+03
4.300000000000000350e-02 7.121334999999999749e-01 -4.246149999999999647e-01 4.242905000000000371e+01 1.671759999999999991e+03
4.400000000000000439e-02 7.123509999999999565e-01 1.635349999999999859e-01 4.331900000000000261e+01 1.671909999999999854e+03
4.499999999999999833e-02 7.126715000000000133e-01 9.169199999999999573e-01 4.465285000000000082e+01 1.672170000000000073e+03
4.599999999999999922e-02 7.130904999999999605e-01 1.838010000000000144e+00 4.640514999999999901e+01 1.672534999999999854e+03
4.700000000000000011e-02 7.136035000000000572e-01 2.923974999999999991e+00 4.854710000000000036e+01 1.672994999999999891e+03
4.800000000000000100e-02 7.141990000000000283e-01 4.163780000000000037e+00 5.104250000000000398e+01 1.673550000000000182e+03
4.900000000000000189e-02 7.148660000000000014e-01 5.537199999999999456e+00 5.384494999999999720e+01 1.674174999999999955e+03
5.000000000000000278e-02 7.155875000000000430e-01 7.015516499999999489e+00 5.689740000000000464e+01 1.674880000000000109e+03
5.100000000000000366e-02 7.163459999999999273e-01 8.563841500000000551e+00 6.013385000000000247e+01 1.675625000000000000e+03
5.200000000000000455e-02 7.171239999999999837e-01 1.014452500000000157e+01 6.348344999999999771e+01 1.676414999999999964e+03
5.300000000000000544e-02 7.179040000000000976e-01 1.172032499999999899e+01 6.687555000000000405e+01 1.677224999999999909e+03
5.399999999999999939e-02 7.186715000000000186e-01 1.325778999999999996e+01 7.024460000000000548e+01 1.678034999999999854e+03
5.500000000000000028e-02 7.194145000000000678e-01 1.472927999999999926e+01 7.353489999999999327e+01 1.678844999999999800e+03
5.600000000000000117e-02 7.201265000000000027e-01 1.611431500000000128e+01 7.670374999999999943e+01 1.679634999999999991e+03
5.700000000000000205e-02 7.208019999999999428e-01 1.739995000000000047e+01 7.972284999999999400e+01 1.680394999999999982e+03
5.800000000000000294e-02 7.214414999999999578e-01 1.857999999999999829e+01 8.257845000000000368e+01 1.681119999999999891e+03
5.900000000000000383e-02 7.220459999999999656e-01 1.965429999999999922e+01 8.526990000000000691e+01 1.681809999999999945e+03
6.000000000000000472e-02 7.226200000000000401e-01 2.062720000000000198e+01 8.780760000000000787e+01 1.682474999999999909e+03
6.099999999999999867e-02 7.231674999999999631e-01 2.150619999999999976e+01 9.021004999999999541e+01 1.683099999999999909e+03
6.199999999999999956e-02 7.236960000000000059e-01 2.230110000000000170e+01 9.250119999999999720e+01 1.683700000000000045e+03
6.300000000000000044e-02 7.242109999999999381e-01 2.302224999999999966e+01 9.470720000000000027e+01 1.684279999999999973e+03
6.400000000000000133e-02 7.247170000000000556e-01 2.368005000000000138e+01 9.685389999999999588e+01 1.684845000000000027e+03
6.500000000000000222e-02 7.252199999999999758e-01 2.428379999999999939e+01 9.896420000000000528e+01 1.685400000000000091e+03
6.600000000000000311e-02 7.257219999999999782e-01 2.484089999999999776e+01 1.010567499999999939e+02 1.685945000000000164e+03
6.700000000000000400e-02 7.262254999999999683e-01 2.535630000000000095e+01 1.031419500000000085e+02 1.686485000000000127e+03
6.800000000000000488e-02 7.267295000000000282e-01 2.583225000000000193e+01 1.052240000000000038e+02 1.687030000000000200e+03
6.900000000000000577e-02 7.272319999999999895e-01 2.626804999999999879e+01 1.072994999999999948e+02 1.687565000000000055e+03
7.000000000000000666e-02 7.277289999999999592e-01 2.666035000000000110e+01 1.093559999999999945e+02 1.688094999999999800e+03
7.100000000000000755e-02 7.282165000000000443e-01 2.700384999999999991e+01 1.113774999999999977e+02 1.688625000000000000e+03
7.200000000000000844e-02 7.286880000000000024e-01 2.729180000000000206e+01 1.133400000000000034e+02 1.689134999999999991e+03
7.300000000000000933e-02 7.291374999999999940e-01 2.751675000000000182e+01 1.152199999999999989e+02 1.689625000000000000e+03
7.399999999999999634e-02 7.295590000000000686e-01 2.767154999999999987e+01 1.169904999999999973e+02 1.690095000000000027e+03
7.499999999999999722e-02 7.299474999999999714e-01 2.774960000000000093e+01 1.186280000000000001e+02 1.690529999999999973e+03
7.599999999999999811e-02 7.302975000000000438e-01 2.774564999999999770e+01 1.201094999999999970e+02 1.690930000000000064e+03
7.699999999999999900e-02 7.306060000000000887e-01 2.765595000000000070e+01 1.214170000000000016e+02 1.691295000000000073e+03
7.799999999999999989e-02 7.308695000000000608e-01 2.747865000000000180e+01 1.225370000000000061e+02 1.691605000000000018e+03
7.900000000000000078e-02 7.310875000000000012e-01 2.721349999999999980e+01 1.234600000000000080e+02 1.691875000000000000e+03
8.000000000000000167e-02 7.312579999999999636e-01 2.686244999999999905e+01 1.241825000000000045e+02 1.692095000000000027e+03
8.100000000000000255e-02 7.313830000000000053e-01 2.642905000000000015e+01 1.247065000000000055e+02 1.692264999999999873e+03
8.200000000000000344e-02 7.314640000000000031e-01 2.591910000000000025e+01 1.250374999999999943e+02 1.692384999999999991e+03
8.300000000000000433e-02 7.315034999999999732e-01 2.533970000000000056e+01 1.251864999999999952e+02 1.692460000000000036e+03
8.400000000000000522e-02 7.315059999999999896e-01 2.469980000000000331e+01 1.251684999999999945e+02 1.692494999999999891e+03
8.500000000000000611e-02 7.314749999999999863e-01 2.400970000000000226e+01 1.250020000000000095e+02 1.692485000000000127e+03
8.600000000000000699e-02 7.314160000000000661e-01 2.328059999999999974e+01 1.247075000000000102e+02 1.692445000000000164e+03
8.700000000000000788e-02 7.313339999999999286e-01 2.252475000000000094e+01 1.243085000000000093e+02 1.692375000000000000e+03
8.800000000000000877e-02 7.312349999999999683e-01 2.175424999999999898e+01 1.238284999999999911e+02 1.692275000000000091e+03
8.899999999999999578e-02 7.311239999999999961e-01 2.098124999999999929e+01 1.232925000000000040e+02 1.692164999999999964e+03
8.999999999999999667e-02 7.310069999999999624e-01 2.021699999999999875e+01 1.227229999999999990e+02 1.692035000000000082e+03
9.099999999999999756e-02 7.308879999999999821e-01 1.947140000000000271e+01 1.221414999999999935e+02 1.691900000000000091e+03
9.199999999999999845e-02 7.307710000000000594e-01 1.875274999999999892e+01 1.215660000000000025e+02 1.691764999999999873e+03
9.299999999999999933e-02 7.306580000000000297e-01 1.806714999999999804e+01 1.210120000000000005e+02 1.691630000000000109e+03
9.400000000000000022e-02 7.305524999999999380e-01 1.741860000000000142e+01 1.204884999999999877e+02 1.691494999999999891e+03
9.500000000000000111e-02 7.304545000000000066e-01 1.680850000000000222e+01 1.200030000000000001e+02 1.691369999999999891e+03
9.600000000000000200e-02 7.303634999999999433e-01 1.623624999999999829e+01 1.195554999999999950e+02 1.691255000000000109e+03
9.700000000000000289e-02 7.302790000000000115e-01 1.569889999999999830e+01 1.191449999999999960e+02 1.691144999999999982e+03
9.800000000000000377e-02 7.301995000000000013e-01 1.519194999999999851e+01 1.187644999999999982e+02 1.691039999999999964e+03
9.900000000000000466e-02 7.301214999999999788e-01 1.470934999999999881e+01 1.184045000000000130e+02 1.690940000000000055e+03
1.000000000000000056e-01 7.300425000000000386e-01 1.424419999999999931e+01 1.180544999999999902e+02 1.690845000000000027e+03
1.010000000000000064e-01 7.299605000000000121e-01 1.378904999999999959e+01 1.177014999999999958e+02 1.690750000000000000e+03
1.020000000000000073e-01 7.298719999999999652e-01 1.333634999999999948e+01 1.173329999999999984e+02 1.690654999999999973e+03
1.030000000000000082e-01 7.297744999999999926e-01 1.287875500000000173e+01 1.169360000000000070e+02 1.690550000000000182e+03
1.040000000000000091e-01 7.296654999999999669e-01 1.240991000000000000e+01 1.164995000000000118e+02 1.690440000000000055e+03
1.050000000000000100e-01 7.295439999999999703e-01 1.192427999999999955e+01 1.160155000000000030e+02 1.690315000000000055e+03
1.059999999999999970e-01 7.294080000000000563e-01 1.141779499999999992e+01 1.154759999999999991e+02 1.690184999999999945e+03
1.069999999999999979e-01 7.292570000000000441e-01 1.088798000000000066e+01 1.148780000000000001e+02 1.690039999999999964e+03
1.079999999999999988e-01 7.290929999999999911e-01 1.033409499999999959e+01 1.142220000000000084e+02 1.689880000000000109e+03
1.089999999999999997e-01 7.289159999999998973e-01 9.757390000000000896e+00 1.135109999999999957e+02 1.689704999999999927e+03
1.100000000000000006e-01 7.287280000000000424e-01 9.160695000000000476e+00 1.127520000000000095e+02 1.689525000000000091e+03
1.110000000000000014e-01 7.285325000000000273e-01 8.548745000000000260e+00 1.119544999999999959e+02 1.689335000000000036e+03
1.120000000000000023e-01 7.283330000000000082e-01 7.927694999999999936e+00 1.111329999999999956e+02 1.689130000000000109e+03
1.130000000000000032e-01 7.281330000000000302e-01 7.304909999999999570e+00 1.103010000000000019e+02 1.688924999999999955e+03
1.140000000000000041e-01 7.279370000000000562e-01 6.688705000000000567e+00 1.094770000000000039e+02 1.688724999999999909e+03
1.150000000000000050e-01 7.277489999999999792e-01 6.087764999999999205e+00 1.086779999999999973e+02 1.688525000000000091e+03
1.160000000000000059e-01 7.275730000000000253e-01 5.510934999999999917e+00 1.079215000000000089e+02 1.688335000000000036e+03
1.170000000000000068e-01 7.274134999999999351e-01 4.966660000000000075e+00 1.072249999999999943e+02 1.688160000000000082e+03
1.180000000000000077e-01 7.272730000000000583e-01 4.462674999999999947e+00 1.066030000000000086e+02 1.687990000000000009e+03
1.190000000000000085e-01 7.271549999999999958e-01 4.005580000000000140e+00 1.060695000000000050e+02 1.687849999999999909e+03
1.200000000000000094e-01 7.270609999999999573e-01 3.600609999999999644e+00 1.056340000000000003e+02 1.687730000000000018e+03
1.209999999999999964e-01 7.269920000000000826e-01 3.251380000000000159e+00 1.053029999999999973e+02 1.687634999999999991e+03
1.219999999999999973e-01 7.269490000000000673e-01 2.959769999999999790e+00 1.050799999999999983e+02 1.687559999999999945e+03
1.229999999999999982e-01 7.269309999999999938e-01 2.725905000000000022e+00 1.049639999999999986e+02 1.687519999999999982e+03
1.239999999999999991e-01 7.269360000000000266e-01 2.548224999999999962e+00 1.049509999999999934e+02 1.687494999999999891e+03
1.250000000000000000e-01 7.269634999999999847e-01 2.423614999999999853e+00 1.050340000000000060e+02 1.687500000000000000e+03
1.260000000000000009e-01 7.270095000000000862e-01 2.347634999999999916e+00 1.052040000000000077e+02 1.687519999999999982e+03
1.270000000000000018e-01 7.270715000000000927e-01 2.314810000000000034e+00 1.054470000000000027e+02 1.687559999999999945e+03
1.280000000000000027e-01 7.271464999999999179e-01 2.318889999999999674e+00 1.057510000000000048e+02 1.687625000000000000e+03
1.290000000000000036e-01 7.272300000000000431e-01 2.353180000000000049e+00 1.061005000000000109e+02 1.687699999999999818e+03
1.300000000000000044e-01 7.273205000000000364e-01 2.410849999999999937e+00 1.064830000000000041e+02 1.687784999999999854e+03
1.310000000000000053e-01 7.274134999999999351e-01 2.485170000000000101e+00 1.068834999999999980e+02 1.687869999999999891e+03
1.320000000000000062e-01 7.275059999999999860e-01 2.569760000000000044e+00 1.072890000000000015e+02 1.687965000000000146e+03
1.330000000000000071e-01 7.275970000000000493e-01 2.658760000000000012e+00 1.076885000000000048e+02 1.688059999999999945e+03
1.340000000000000080e-01 7.276835000000000386e-01 2.746979999999999755e+00 1.080725000000000051e+02 1.688150000000000091e+03
1.350000000000000089e-01 7.277640000000000775e-01 2.829979999999999940e+00 1.084329999999999927e+02 1.688240000000000009e+03
1.360000000000000098e-01 7.278370000000000672e-01 2.904135000000000133e+00 1.087634999999999934e+02 1.688320000000000164e+03
1.370000000000000107e-01 7.279024999999998968e-01 2.966660000000000075e+00 1.090604999999999905e+02 1.688394999999999982e+03
1.380000000000000115e-01 7.279594999999999816e-01 3.015589999999999993e+00 1.093205000000000098e+02 1.688464999999999918e+03
1.390000000000000124e-01 7.280085000000000583e-01 3.049760000000000026e+00 1.095434999999999945e+02 1.688525000000000091e+03
1.400000000000000133e-01 7.280489999999999462e-01 3.068719999999999892e+00 1.097309999999999945e+02 1.688574999999999818e+03
1.410000000000000142e-01 7.280824999999999658e-01 3.072729999999999961e+00 1.098830000000000098e+02 1.688619999999999891e+03
1.420000000000000151e-01 7.281090000000000062e-01 3.062590000000000146e+00 1.100039999999999907e+02 1.688654999999999973e+03
1.430000000000000160e-01 7.281299999999999439e-01 3.039614999999999956e+00 1.100964999999999918e+02 1.688684999999999945e+03
1.440000000000000169e-01 7.281450000000000422e-01 3.005460000000000242e+00 1.101645000000000039e+02 1.688704999999999927e+03
1.450000000000000178e-01 7.281569999999999432e-01 2.962040000000000006e+00 1.102129999999999939e+02 1.688724999999999909e+03
1.459999999999999909e-01 7.281659999999999799e-01 2.911389999999999922e+00 1.102460000000000093e+02 1.688735000000000127e+03
1.469999999999999918e-01 7.281725000000000003e-01 2.855545000000000222e+00 1.102665000000000077e+02 1.688750000000000000e+03
1.479999999999999927e-01 7.281775000000000331e-01 2.796429999999999971e+00 1.102789999999999964e+02 1.688755000000000109e+03
1.489999999999999936e-01 7.281820000000001070e-01 2.735764999999999780e+00 1.102849999999999966e+02 1.688759999999999991e+03
1.499999999999999944e-01 7.281854999999999301e-01 2.674990000000000201e+00 1.102884999999999991e+02 1.688764999999999873e+03
1.509999999999999953e-01 7.281889999999999752e-01 2.615210000000000257e+00 1.102890000000000015e+02 1.688769999999999982e+03
1.519999999999999962e-01 7.281919999999999504e-01 2.557179999999999787e+00 1.102879999999999967e+02 1.688769999999999982e+03
1.529999999999999971e-01 7.281950000000000367e-01 2.501305000000000334e+00 1.102849999999999966e+02 1.688764999999999873e+03
1.539999999999999980e-01 7.281964999999999133e-01 2.447664999999999758e+00 1.102785000000000082e+02 1.688764999999999873e+03
1.549999999999999989e-01 7.281965000000000243e-01 2.396094999999999864e+00 1.102680000000000007e+02 1.688764999999999873e+03
1.559999999999999998e-01 7.281954999999999956e-01 2.346229999999999816e+00 1.102500000000000000e+02 1.688764999999999873e+03
1.570000000000000007e-01 7.281910000000000327e-01 2.297590000000000021e+00 1.102235000000000014e+02 1.688759999999999991e+03
1.580000000000000016e-01 7.281845000000000123e-01 2.249680000000000124e+00 1.101860000000000070e+02 1.688750000000000000e+03
1.590000000000000024e-01 7.281739999999999879e-01 2.202040000000000219e+00 1.101359999999999957e+02 1.688744999999999891e+03
