# t [s], A [cm^2], U [cm/s], P [cPa], c [cm/s]
1.000000000000000021e-03 1.622755000000000170e-01 4.691607999999999890e-01 8.716065000000000396e+01 1.843815000000000055e+03
2.000000000000000042e-03 1.622259999999999813e-01 2.138977000000000128e+00 8.379900000000000659e+01 1.843384999999999991e+03
3.000000000000000062e-03 1.620924999999999727e-01 4.103056499999999218e+00 7.943819999999999482e+01 1.842284999999999854e+03
4.000000000000000083e-03 1.619114999999999860e-01 6.263268500000000572e+00 7.499949999999999761e+01 1.840809999999999945e+03
5.000000000000000104e-03 1.617195000000000160e-01 8.544090000000000629e+00 7.128020000000000778e+01 1.839250000000000000e+03
6.000000000000000125e-03 1.615364999999999995e-01 1.075145499999999998e+01 6.839294999999999902e+01 1.837779999999999973e+03
7.000000000000000146e-03 1.613660000000000094e-01 1.268312500000000043e+01 6.598810000000000286e+01 1.836434999999999945e+03
8.000000000000000167e-03 1.612099999999999922e-01 1.428813500000000047e+01 6.383605000000000018e+01 1.835230000000000018e+03
9.000000000000001055e-03 1.610734999999999806e-01 1.562229999999999919e+01 6.200005000000000166e+01 1.834184999999999945e+03
1.000000000000000194e-02 1.609579999999999900e-01 1.671989999999999910e+01 6.053480000000000416e+01 1.833309999999999945e+03
1.099999999999999936e-02 1.608630000000000060e-01 1.759219999999999828e+01 5.938835000000000264e+01 1.832599999999999909e+03
1.200000000000000025e-02 1.607864999999999989e-01 1.826099999999999923e+01 5.850794999999999391e+01 1.832039999999999964e+03
1.300000000000000114e-02 1.607270000000000088e-01 1.874595000000000056e+01 5.784740000000000038e+01 1.831609999999999900e+03
1.400000000000000203e-02 1.606799999999999895e-01 1.905815000000000126e+01 5.733100000000000307e+01 1.831275000000000091e+03
1.499999999999999944e-02 1.606430000000000080e-01 1.923839999999999861e+01 5.692685000000000173e+01 1.831019999999999982e+03
1.600000000000000033e-02 1.606174999999999964e-01 1.939065000000000083e+01 5.676640000000000441e+01 1.830845000000000027e+03
1.700000000000000122e-02 1.606104999999999894e-01 1.965775000000000006e+01 5.714079999999999870e+01 1.830815000000000055e+03
1.800000000000000211e-02 1.606309999999999960e-01 2.014869999999999806e+01 5.833384999999999820e+01 1.830980000000000018e+03
1.900000000000000300e-02 1.606839999999999935e-01 2.087239999999999895e+01 6.041240000000000521e+01 1.831389999999999873e+03
2.000000000000000042e-02 1.607669999999999932e-01 2.172090000000000032e+01 6.312165000000000248e+01 1.832019999999999982e+03
2.100000000000000130e-02 1.608674999999999966e-01 2.250714999999999932e+01 6.594249999999999545e+01 1.832789999999999964e+03
2.200000000000000219e-02 1.609669999999999990e-01 2.303359999999999985e+01 6.826800000000000068e+01 1.833554999999999836e+03
2.299999999999999961e-02 1.610479999999999967e-01 2.315925000000000011e+01 6.960980000000000700e+01 1.834190000000000055e+03
2.400000000000000050e-02 1.610960000000000170e-01 2.284154999999999802e+01 6.975184999999999036e+01 1.834585000000000036e+03
2.500000000000000139e-02 1.611064999999999858e-01 2.214119999999999777e+01 6.879840000000000089e+01 1.834694999999999936e+03
2.600000000000000228e-02 1.610834999999999906e-01 2.119144999999999968e+01 6.711019999999999186e+01 1.834545000000000073e+03
2.700000000000000316e-02 1.610384999999999733e-01 2.014885000000000304e+01 6.516304999999999836e+01 1.834215000000000146e+03
2.800000000000000058e-02 1.609839999999999882e-01 1.914405000000000001e+01 6.338859999999999673e+01 1.833809999999999945e+03
2.900000000000000147e-02 1.609325000000000061e-01 1.825069999999999837e+01 6.205644999999999811e+01 1.833420000000000073e+03
3.000000000000000236e-02 1.608904999999999919e-01 1.747860000000000014e+01 6.122890000000000299e+01 1.833105000000000018e+03
3.099999999999999978e-02 1.608604999999999896e-01 1.678810000000000002e+01 6.078995000000000459e+01 1.832869999999999891e+03
3.200000000000000067e-02 1.608390000000000097e-01 1.611739999999999995e+01 6.052299999999999613e+01 1.832700000000000045e+03
3.300000000000000155e-02 1.608200000000000185e-01 1.541159999999999997e+01 6.020555000000000234e+01 1.832559999999999945e+03
3.400000000000000244e-02 1.607989999999999975e-01 1.464550000000000018e+01 5.969060000000000343e+01 1.832394999999999982e+03
3.500000000000000333e-02 1.607729999999999992e-01 1.383535000000000004e+01 5.895485000000000042e+01 1.832200000000000045e+03
3.600000000000000422e-02 1.607414999999999816e-01 1.303610000000000113e+01 5.810399999999999920e+01 1.831964999999999918e+03
3.700000000000000511e-02 1.607089999999999907e-01 1.232685000000000031e+01 5.733825000000000216e+01 1.831720000000000027e+03
3.799999999999999906e-02 1.606829999999999925e-01 1.178914999999999935e+01 5.688970000000000482e+01 1.831514999999999873e+03
3.899999999999999994e-02 1.606699999999999795e-01 1.148375000000000057e+01 5.695165000000000077e+01 1.831409999999999854e+03
4.000000000000000083e-02 1.606750000000000123e-01 1.143340000000000067e+01 5.761979999999999791e+01 1.831440000000000055e+03
4.100000000000000172e-02 1.607014999999999971e-01 1.161439999999999984e+01 5.886070000000000135e+01 1.831625000000000000e+03
4.200000000000000261e-02 1.607465000000000144e-01 1.196014999999999873e+01 6.051324999999999932e+01 1.831954999999999927e+03
4.300000000000000350e-02 1.608054999999999901e-01 1.237225000000000108e+01 6.231879999999999598e+01 1.832389999999999873e+03
4.400000000000000439e-02 1.608684999999999976e-01 1.273744999999999905e+01 6.397030000000000172e+01 1.832860000000000127e+03
4.499999999999999833e-02 1.609249999999999847e-01 1.294519999999999982e+01 6.516579999999999018e+01 1.833295000000000073e+03
4.599999999999999922e-02 1.609659999999999980e-01 1.290275000000000105e+01 6.565654999999999575e+01 1.833605000000000018e+03
4.700000000000000011e-02 1.609814999999999996e-01 1.254565000000000019e+01 6.527885000000000559e+01 1.833734999999999900e+03
4.800000000000000100e-02 1.609665000000000123e-01 1.184229999999999983e+01 6.396844999999999715e+01 1.833625000000000000e+03
4.900000000000000189e-02 1.609180000000000055e-01 1.079367500000000035e+01 6.175745000000000573e+01 1.833264999999999873e+03
5.000000000000000278e-02 1.608354999999999924e-01 9.428675000000000139e+00 5.875724999999999909e+01 1.832650000000000091e+03
5.100000000000000366e-02 1.607224999999999904e-01 7.797969999999999402e+00 5.513485000000000014e+01 1.831804999999999836e+03
5.200000000000000455e-02 1.605849999999999778e-01 5.966380000000000017e+00 5.108684999999999832e+01 1.830769999999999982e+03
5.300000000000000544e-02 1.604289999999999883e-01 4.006876000000000104e+00 4.681780000000000541e+01 1.829590000000000146e+03
5.399999999999999939e-02 1.602609999999999868e-01 1.995624999999999760e+00 4.252429999999999666e+01 1.828320000000000164e+03
5.500000000000000028e-02 1.600894999999999957e-01 8.755000000000290328e-03 3.838635000000000019e+01 1.827014999999999873e+03
5.600000000000000117e-02 1.599204999999999932e-01 -1.879400000000000182e+00 3.456494999999999607e+01 1.825730000000000018e+03
5.700000000000000205e-02 1.597615000000000007e-01 -3.597370000000000179e+00 3.120270000000000010e+01 1.824514999999999873e+03
5.800000000000000294e-02 1.596170000000000089e-01 -5.077350000000000030e+00 2.842649999999999721e+01 1.823420000000000073e+03
5.900000000000000383e-02 1.594949999999999979e-01 -6.256289999999999907e+00 2.634915000000000163e+01 1.822480000000000018e+03
6.000000000000000472e-02 1.593990000000000129e-01 -7.077564999999999884e+00 2.506925000000000026e+01 1.821740000000000009e+03
6.099999999999999867e-02 1.593340000000000034e-01 -7.493149999999999977e+00 2.466870000000000118e+01 1.821224999999999909e+03
6.199999999999999956e-02 1.593034999999999868e-01 -7.466279999999999362e+00 2.520774999999999721e+01 1.820974999999999909e+03
6.300000000000000044e-02 1.593109999999999804e-01 -6.974045000000000272e+00 2.671969999999999956e+01 1.821005000000000109e+03
6.400000000000000133e-02 1.593579999999999997e-01 -6.009595000000000020e+00 2.920530000000000115e+01 1.821329999999999927e+03
6.500000000000000222e-02 1.594444999999999890e-01 -4.583425000000000082e+00 3.262950000000000017e+01 1.821964999999999918e+03
6.600000000000000311e-02 1.595699999999999896e-01 -2.723475000000000090e+00 3.692014999999999958e+01 1.822884999999999991e+03
6.700000000000000400e-02 1.597314999999999985e-01 -4.738700000000002355e-01 4.197135000000000105e+01 1.824085000000000036e+03
6.800000000000000488e-02 1.599254999999999982e-01 2.107569999999999943e+00 4.764870000000000516e+01 1.825539999999999964e+03
6.900000000000000577e-02 1.601474999999999982e-01 4.952719999999999345e+00 5.379820000000000135e+01 1.827204999999999927e+03
7.000000000000000666e-02 1.603914999999999924e-01 7.987214999999999954e+00 6.025639999999999930e+01 1.829045000000000073e+03
7.100000000000000755e-02 1.606509999999999883e-01 1.113428000000000040e+01 6.686015000000000441e+01 1.831014999999999873e+03
7.200000000000000844e-02 1.609200000000000075e-01 1.431855999999999973e+01 7.345595000000000141e+01 1.833065000000000055e+03
7.300000000000000933e-02 1.611925000000000163e-01 1.746925000000000239e+01 7.990674999999998818e+01 1.835154999999999973e+03
7.399999999999999634e-02 1.614634999999999820e-01 2.052240000000000109e+01 8.609735000000000582e+01 1.837230000000000018e+03
7.499999999999999722e-02 1.617264999999999953e-01 2.342309999999999803e+01 9.193675000000000352e+01 1.839259999999999991e+03
7.599999999999999811e-02 1.619789999999999841e-01 2.612630000000000052e+01 9.735975000000000534e+01 1.841220000000000027e+03
7.699999999999999900e-02 1.622175000000000145e-01 2.859830000000000183e+01 1.023259500000000060e+02 1.843075000000000045e+03
7.799999999999999989e-02 1.624395000000000144e-01 3.081660000000000110e+01 1.068199500000000057e+02 1.844804999999999836e+03
7.900000000000000078e-02 1.626449999999999840e-01 3.277060000000000173e+01 1.108499999999999943e+02 1.846414999999999964e+03
8.000000000000000167e-02 1.628320000000000045e-01 3.446099999999999852e+01 1.144445000000000050e+02 1.847889999999999873e+03
8.100000000000000255e-02 1.630024999999999946e-01 3.589929999999999666e+01 1.176514999999999986e+02 1.849240000000000009e+03
8.200000000000000344e-02 1.631579999999999975e-01 3.710660000000000025e+01 1.205344999999999942e+02 1.850465000000000146e+03
8.300000000000000433e-02 1.632994999999999863e-01 3.811195000000000022e+01 1.231680000000000064e+02 1.851599999999999909e+03
8.400000000000000522e-02 1.634309999999999929e-01 3.895019999999999527e+01 1.256349999999999909e+02 1.852644999999999982e+03
8.500000000000000611e-02 1.635550000000000059e-01 3.965964999999999918e+01 1.280194999999999936e+02 1.853634999999999991e+03
8.600000000000000699e-02 1.636739999999999862e-01 4.027974999999999994e+01 1.304014999999999986e+02 1.854579999999999927e+03
8.700000000000000788e-02 1.637914999999999788e-01 4.084820000000000562e+01 1.328545000000000016e+02 1.855525000000000091e+03
8.800000000000000877e-02 1.639109999999999734e-01 4.139889999999999759e+01 1.354375000000000000e+02 1.856470000000000027e+03
8.899999999999999578e-02 1.640340000000000131e-01 4.195995000000000630e+01 1.381940000000000168e+02 1.857445000000000164e+03
8.999999999999999667e-02 1.641624999999999890e-01 4.255190000000000339e+01 1.411475000000000080e+02 1.858465000000000146e+03
9.099999999999999756e-02 1.642974999999999852e-01 4.318704999999999927e+01 1.443029999999999973e+02 1.859530000000000200e+03
9.199999999999999845e-02 1.644394999999999885e-01 4.386874999999999858e+01 1.476440000000000055e+02 1.860654999999999973e+03
9.299999999999999933e-02 1.645880000000000121e-01 4.459194999999999709e+01 1.511359999999999957e+02 1.861825000000000045e+03
9.400000000000000022e-02 1.647419999999999995e-01 4.534385000000000332e+01 1.547295000000000016e+02 1.863045000000000073e+03
9.500000000000000111e-02 1.648995000000000044e-01 4.610510000000000019e+01 1.583625000000000114e+02 1.864284999999999854e+03
9.600000000000000200e-02 1.650590000000000113e-01 4.685119999999999862e+01 1.619644999999999868e+02 1.865539999999999964e+03
9.700000000000000289e-02 1.652170000000000027e-01 4.755440000000000111e+01 1.654625000000000057e+02 1.866795000000000073e+03
9.800000000000000377e-02 1.653705000000000036e-01 4.818550000000000466e+01 1.687824999999999989e+02 1.868014999999999873e+03
9.900000000000000466e-02 1.655179999999999985e-01 4.871540000000000248e+01 1.718555000000000064e+02 1.869179999999999836e+03
1.000000000000000056e-01 1.656555000000000111e-01 4.911695000000000277e+01 1.746200000000000045e+02 1.870285000000000082e+03
1.010000000000000064e-01 1.657814999999999983e-01 4.936610000000000298e+01 1.770260000000000105e+02 1.871289999999999964e+03
1.020000000000000073e-01 1.658930000000000127e-01 4.944329999999999359e+01 1.790330000000000155e+02 1.872179999999999836e+03
1.030000000000000082e-01 1.659895000000000120e-01 4.933415000000000106e+01 1.806154999999999973e+02 1.872954999999999927e+03
1.040000000000000091e-01 1.660679999999999934e-01 4.903009999999999735e+01 1.817609999999999957e+02 1.873595000000000027e+03
1.050000000000000100e-01 1.661294999999999855e-01 4.852864999999999895e+01 1.824714999999999918e+02 1.874099999999999909e+03
1.059999999999999970e-01 1.661730000000000151e-01 4.783334999999999582e+01 1.827599999999999909e+02 1.874454999999999927e+03
1.069999999999999979e-01 1.661990000000000134e-01 4.695359999999999445e+01 1.826529999999999916e+02 1.874679999999999836e+03
1.079999999999999988e-01 1.662089999999999956e-01 4.590399999999999636e+01 1.821859999999999786e+02 1.874775000000000091e+03
1.089999999999999997e-01 1.662029999999999896e-01 4.470380000000000109e+01 1.814019999999999868e+02 1.874735000000000127e+03
1.100000000000000006e-01 1.661825000000000108e-01 4.337605000000000643e+01 1.803514999999999873e+02 1.874590000000000146e+03
1.110000000000000014e-01 1.661509999999999931e-01 4.194665000000000532e+01 1.790885000000000105e+02 1.874355000000000018e+03
1.120000000000000023e-01 1.661090000000000066e-01 4.044320000000000448e+01 1.776694999999999993e+02 1.874029999999999973e+03
1.130000000000000032e-01 1.660590000000000122e-01 3.889410000000000167e+01 1.761499999999999773e+02 1.873639999999999873e+03
1.140000000000000041e-01 1.660039999999999849e-01 3.732750000000000057e+01 1.745849999999999795e+02 1.873210000000000036e+03
1.150000000000000050e-01 1.659454999999999958e-01 3.577055000000000007e+01 1.730235000000000127e+02 1.872744999999999891e+03
1.160000000000000059e-01 1.658855000000000190e-01 3.424790000000000134e+01 1.715129999999999768e+02 1.872275000000000091e+03
1.170000000000000068e-01 1.658255000000000146e-01 3.278170000000000073e+01 1.700899999999999750e+02 1.871799999999999955e+03
1.180000000000000077e-01 1.657684999999999853e-01 3.139039999999999964e+01 1.687864999999999895e+02 1.871344999999999800e+03
1.190000000000000085e-01 1.657140000000000002e-01 3.008834999999999837e+01 1.676239999999999952e+02 1.870914999999999964e+03
1.200000000000000094e-01 1.656644999999999923e-01 2.888560000000000016e+01 1.666175000000000068e+02 1.870519999999999982e+03
1.209999999999999964e-01 1.656205000000000038e-01 2.778754999999999953e+01 1.657694999999999936e+02 1.870159999999999854e+03
1.219999999999999973e-01 1.655824999999999936e-01 2.679514999999999958e+01 1.650774999999999864e+02 1.869849999999999909e+03
1.229999999999999982e-01 1.655500000000000027e-01 2.590494999999999948e+01 1.645269999999999868e+02 1.869579999999999927e+03
1.239999999999999991e-01 1.655225000000000168e-01 2.510940000000000083e+01 1.640985000000000014e+02 1.869355000000000018e+03
1.250000000000000000e-01 1.654994999999999938e-01 2.439759999999999707e+01 1.637644999999999982e+02 1.869170000000000073e+03
1.260000000000000009e-01 1.654804999999999748e-01 2.375564999999999927e+01 1.634950000000000045e+02 1.869005000000000109e+03
1.270000000000000018e-01 1.654640000000000000e-01 2.316760000000000019e+01 1.632545000000000073e+02 1.868869999999999891e+03
1.280000000000000027e-01 1.654494999999999993e-01 2.261610000000000298e+01 1.630070000000000050e+02 1.868744999999999891e+03
1.290000000000000036e-01 1.654344999999999843e-01 2.208334999999999937e+01 1.627164999999999964e+02 1.868615000000000009e+03
1.300000000000000044e-01 1.654184999999999961e-01 2.155165000000000219e+01 1.623485000000000014e+02 1.868485000000000127e+03
1.310000000000000053e-01 1.653995000000000049e-01 2.100455000000000183e+01 1.618734999999999786e+02 1.868335000000000036e+03
1.320000000000000062e-01 1.653769999999999962e-01 2.042730000000000246e+01 1.612629999999999768e+02 1.868150000000000091e+03
1.330000000000000071e-01 1.653490000000000237e-01 1.980744999999999933e+01 1.604989999999999952e+02 1.867929999999999836e+03
1.340000000000000080e-01 1.653160000000000185e-01 1.913559999999999661e+01 1.595665000000000191e+02 1.867664999999999964e+03
1.350000000000000089e-01 1.652754999999999919e-01 1.840554999999999808e+01 1.584599999999999795e+02 1.867349999999999909e+03
1.360000000000000098e-01 1.652290000000000147e-01 1.761464999999999748e+01 1.571800000000000068e+02 1.866980000000000018e+03
1.370000000000000107e-01 1.651755000000000029e-01 1.676389999999999958e+01 1.557355000000000018e+02 1.866559999999999945e+03
1.380000000000000115e-01 1.651150000000000118e-01 1.585774999999999935e+01 1.541430000000000007e+02 1.866085000000000036e+03
1.390000000000000124e-01 1.650490000000000013e-01 1.490395000000000181e+01 1.524234999999999900e+02 1.865565000000000055e+03
1.400000000000000133e-01 1.649774999999999991e-01 1.391290000000000049e+01 1.506055000000000064e+02 1.865000000000000000e+03
1.410000000000000142e-01 1.649019999999999930e-01 1.289774999999999849e+01 1.487199999999999989e+02 1.864404999999999973e+03
1.420000000000000151e-01 1.648229999999999973e-01 1.187310499999999891e+01 1.468009999999999877e+02 1.863784999999999854e+03
1.430000000000000160e-01 1.647419999999999995e-01 1.085467000000000048e+01 1.448840000000000146e+02 1.863144999999999982e+03
1.440000000000000169e-01 1.646604999999999874e-01 9.858509999999998996e+00 1.430040000000000191e+02 1.862509999999999991e+03
1.450000000000000178e-01 1.645800000000000041e-01 8.900445000000001272e+00 1.411940000000000168e+02 1.861875000000000000e+03
1.459999999999999909e-01 1.645020000000000093e-01 7.995179999999999509e+00 1.394834999999999923e+02 1.861259999999999991e+03
1.469999999999999918e-01 1.644269999999999898e-01 7.155769999999999520e+00 1.378985000000000127e+02 1.860664999999999964e+03
1.479999999999999927e-01 1.643570000000000031e-01 6.393250000000000099e+00 1.364594999999999914e+02 1.860109999999999900e+03
1.489999999999999936e-01 1.642925000000000080e-01 5.716070000000000206e+00 1.351800000000000068e+02 1.859595000000000027e+03
1.499999999999999944e-01 1.642335000000000045e-01 5.129929999999999879e+00 1.340695000000000050e+02 1.859125000000000000e+03
1.509999999999999953e-01 1.641810000000000214e-01 4.637590000000000323e+00 1.331299999999999955e+02 1.858710000000000036e+03
1.519999999999999962e-01 1.641354999999999897e-01 4.238920000000000243e+00 1.323569999999999993e+02 1.858345000000000027e+03
1.529999999999999971e-01 1.640969999999999929e-01 3.930950000000000166e+00 1.317404999999999973e+02 1.858030000000000200e+03
1.539999999999999980e-01 1.640645000000000020e-01 3.708184999999999842e+00 1.312680000000000007e+02 1.857775000000000091e+03
1.549999999999999989e-01 1.640380000000000171e-01 3.562859999999999694e+00 1.309194999999999993e+02 1.857555000000000064e+03
1.559999999999999998e-01 1.640169999999999961e-01 3.485369999999999635e+00 1.306734999999999900e+02 1.857384999999999991e+03
1.570000000000000007e-01 1.640004999999999935e-01 3.464714999999999989e+00 1.305079999999999814e+02 1.857244999999999891e+03
1.580000000000000016e-01 1.639875000000000083e-01 3.488959999999999617e+00 1.303969999999999914e+02 1.857139999999999873e+03
1.590000000000000024e-01 1.639769999999999839e-01 3.545709999999999695e+00 1.303164999999999907e+02 1.857050000000000182e+03
