# t [s], A [cm^2], U [cm/s], P [cPa], c [cm/s]
1.000000000000000021e-03 1.951145000000000240e-01 2.538716999999999779e-01 9.579484999999999673e+01 2.200585000000000036e+03
2.000000000000000042e-03 1.950570000000000082e-01 1.723419499999999882e+00 9.244720000000000937e+01 2.200105000000000018e+03
3.000000000000000062e-03 1.949115000000000153e-01 3.591758000000000006e+00 8.760129999999999484e+01 2.198925000000000182e+03
4.000000000000000083e-03 1.947174999999999878e-01 5.730920999999999488e+00 8.228225000000000477e+01 2.197380000000000109e+03
5.000000000000000104e-03 1.945155000000000078e-01 8.051949999999999719e+00 7.754085000000000605e+01 2.195784999999999854e+03
6.000000000000000125e-03 1.943259999999999987e-01 1.032745000000000068e+01 7.367530000000000712e+01 2.194310000000000400e+03
7.000000000000000146e-03 1.941499999999999893e-01 1.229308499999999960e+01 7.032344999999999402e+01 2.192974999999999909e+03
8.000000000000000167e-03 1.939914999999999834e-01 1.389055500000000087e+01 6.728804999999999836e+01 2.191789999999999964e+03
9.000000000000001055e-03 1.938559999999999728e-01 1.518420000000000059e+01 6.471625000000000227e+01 2.190800000000000182e+03
1.000000000000000194e-02 1.937459999999999738e-01 1.620960000000000178e+01 6.267650000000000432e+01 2.189994999999999891e+03
1.099999999999999936e-02 1.936594999999999844e-01 1.699515000000000242e+01 6.113315000000000055e+01 2.189380000000000109e+03
1.200000000000000025e-02 1.935945000000000027e-01 1.756479999999999819e+01 6.001739999999999498e+01 2.188920000000000073e+03
1.300000000000000114e-02 1.935450000000000226e-01 1.791454999999999842e+01 5.916490000000000293e+01 2.188579999999999927e+03
1.400000000000000203e-02 1.935044999999999960e-01 1.806859999999999999e+01 5.842275000000000063e+01 2.188309999999999945e+03
1.499999999999999944e-02 1.934759999999999813e-01 1.815709999999999980e+01 5.791530000000000200e+01 2.188119999999999891e+03
1.600000000000000033e-02 1.934695000000000165e-01 1.839095000000000013e+01 5.809870000000000090e+01 2.188085000000000036e+03
1.700000000000000122e-02 1.934990000000000043e-01 1.893829999999999814e+01 5.946385000000000076e+01 2.188305000000000291e+03
1.800000000000000211e-02 1.935715000000000074e-01 1.980955000000000155e+01 6.213555000000000206e+01 2.188824999999999818e+03
1.900000000000000300e-02 1.936765000000000014e-01 2.083689999999999998e+01 6.568574999999999875e+01 2.189605000000000018e+03
2.000000000000000042e-02 1.937945000000000084e-01 2.175135000000000218e+01 6.927145000000000152e+01 2.190480000000000018e+03
2.100000000000000130e-02 1.938975000000000004e-01 2.230295000000000272e+01 7.198675000000000068e+01 2.191265000000000327e+03
2.200000000000000219e-02 1.939649999999999985e-01 2.236164999999999736e+01 7.322880000000000678e+01 2.191800000000000182e+03
2.299999999999999961e-02 1.939879999999999938e-01 2.195599999999999952e+01 7.290709999999999980e+01 2.192010000000000218e+03
2.400000000000000050e-02 1.939700000000000035e-01 2.124235000000000184e+01 7.142170000000000130e+01 2.191909999999999854e+03
2.500000000000000139e-02 1.939275000000000027e-01 2.042585000000000051e+01 6.944519999999999982e+01 2.191609999999999673e+03
2.600000000000000228e-02 1.938785000000000092e-01 1.967445000000000022e+01 6.762694999999999368e+01 2.191244999999999891e+03
2.700000000000000316e-02 1.938354999999999939e-01 1.906235000000000213e+01 6.635264999999999702e+01 2.190925000000000182e+03
2.800000000000000058e-02 1.938055000000000194e-01 1.855949999999999989e+01 6.564699999999999136e+01 2.190690000000000055e+03
2.900000000000000147e-02 1.937840000000000118e-01 1.806369999999999720e+01 6.522984999999999900e+01 2.190525000000000091e+03
3.000000000000000236e-02 1.937614999999999754e-01 1.745564999999999856e+01 6.468090000000000828e+01 2.190355000000000018e+03
3.099999999999999978e-02 1.937274999999999969e-01 1.665654999999999930e+01 6.363994999999999891e+01 2.190109999999999673e+03
3.200000000000000067e-02 1.936765000000000014e-01 1.566875000000000107e+01 6.197305000000000064e+01 2.189744999999999891e+03
3.300000000000000155e-02 1.936100000000000043e-01 1.458530000000000015e+01 5.984805000000000064e+01 2.189260000000000218e+03
3.400000000000000244e-02 1.935375000000000012e-01 1.356579999999999941e+01 5.769350000000000023e+01 2.188724999999999909e+03
3.500000000000000333e-02 1.934750000000000081e-01 1.278635000000000055e+01 5.605870000000000175e+01 2.188250000000000000e+03
3.600000000000000422e-02 1.934369999999999978e-01 1.238384999999999891e+01 5.542900000000000205e+01 2.187945000000000164e+03
3.700000000000000511e-02 1.934349999999999958e-01 1.241469999999999985e+01 5.606645000000000323e+01 2.187904999999999745e+03
3.799999999999999906e-02 1.934720000000000051e-01 1.283944999999999936e+01 5.792825000000000557e+01 2.188154999999999745e+03
3.899999999999999994e-02 1.935425000000000062e-01 1.353565000000000040e+01 6.068019999999999925e+01 2.188654999999999745e+03
4.000000000000000083e-02 1.936344999999999872e-01 1.432969999999999899e+01 6.378759999999999764e+01 2.189319999999999709e+03
4.100000000000000172e-02 1.937294999999999989e-01 1.503630000000000067e+01 6.664660000000000650e+01 2.190024999999999636e+03
4.200000000000000261e-02 1.938099999999999823e-01 1.549474999999999980e+01 6.871494999999998754e+01 2.190630000000000109e+03
4.300000000000000350e-02 1.938610000000000055e-01 1.559379999999999988e+01 6.961084999999999923e+01 2.191025000000000091e+03
4.400000000000000439e-02 1.938739999999999908e-01 1.528265000000000029e+01 6.916194999999999027e+01 2.191144999999999982e+03
4.499999999999999833e-02 1.938439999999999885e-01 1.456705000000000183e+01 6.740215000000000600e+01 2.190945000000000164e+03
4.599999999999999922e-02 1.937740000000000018e-01 1.349644999999999939e+01 6.452660000000000196e+01 2.190444999999999709e+03
4.700000000000000011e-02 1.936700000000000088e-01 1.214527999999999963e+01 6.082365000000000066e+01 2.189690000000000055e+03
4.800000000000000100e-02 1.935405000000000042e-01 1.059584000000000081e+01 5.660580000000000211e+01 2.188739999999999782e+03
4.900000000000000189e-02 1.933949999999999836e-01 8.925800000000000622e+00 5.215635000000000332e+01 2.187659999999999854e+03
5.000000000000000278e-02 1.932409999999999961e-01 7.202539999999999942e+00 4.770080000000000098e+01 2.186525000000000091e+03
5.100000000000000366e-02 1.930860000000000076e-01 5.483055000000000234e+00 4.340370000000000061e+01 2.185369999999999891e+03
5.200000000000000455e-02 1.929349999999999954e-01 3.817686000000000135e+00 3.938224999999999909e+01 2.184244999999999891e+03
5.300000000000000544e-02 1.927935000000000065e-01 2.254789999999999850e+00 3.572905000000000086e+01 2.183180000000000291e+03
5.399999999999999939e-02 1.926634999999999875e-01 8.444749999999998646e-01 3.253265000000000384e+01 2.182204999999999927e+03
5.500000000000000028e-02 1.925505000000000133e-01 -3.602800000000001557e-01 2.989075000000000060e+01 2.181355000000000018e+03
5.600000000000000117e-02 1.924580000000000179e-01 -1.305335000000000134e+00 2.791209999999999880e+01 2.180650000000000091e+03
5.700000000000000205e-02 1.923900000000000055e-01 -1.939374999999999849e+00 2.670929999999999893e+01 2.180125000000000000e+03
5.800000000000000294e-02 1.923509999999999942e-01 -2.219179999999999708e+00 2.638384999999999891e+01 2.179809999999999945e+03
5.900000000000000383e-02 1.923440000000000150e-01 -2.114745000000000097e+00 2.700990000000000180e+01 2.179729999999999563e+03
6.000000000000000472e-02 1.923704999999999998e-01 -1.613079999999999847e+00 2.862069999999999936e+01 2.179904999999999745e+03
6.099999999999999867e-02 1.924319999999999919e-01 -7.199649999999999661e-01 3.120029999999999859e+01 2.180329999999999927e+03
6.199999999999999956e-02 1.925274999999999903e-01 5.403900000000001480e-01 3.468280000000000030e+01 2.181015000000000327e+03
6.300000000000000044e-02 1.926539999999999919e-01 2.127604999999999968e+00 3.895789999999999509e+01 2.181930000000000291e+03
6.400000000000000133e-02 1.928080000000000072e-01 3.988509499999999708e+00 4.388119999999999976e+01 2.183045000000000073e+03
6.500000000000000222e-02 1.929839999999999889e-01 6.061125000000000540e+00 4.928609999999999758e+01 2.184345000000000255e+03
6.600000000000000311e-02 1.931765000000000010e-01 8.278579999999999828e+00 5.499684999999999491e+01 2.185765000000000327e+03
6.700000000000000400e-02 1.933799999999999963e-01 1.057321499999999936e+01 6.083955000000000268e+01 2.187274999999999636e+03
6.800000000000000488e-02 1.935879999999999823e-01 1.287990499999999905e+01 6.665274999999999750e+01 2.188829999999999927e+03
6.900000000000000577e-02 1.937959999999999960e-01 1.513974999999999937e+01 7.229619999999999891e+01 2.190385000000000218e+03
7.000000000000000666e-02 1.939980000000000038e-01 1.730284999999999940e+01 7.765809999999999036e+01 2.191904999999999745e+03
7.100000000000000755e-02 1.941910000000000025e-01 1.933109999999999928e+01 8.266100000000000136e+01 2.193369999999999891e+03
7.200000000000000844e-02 1.943729999999999902e-01 2.119964999999999833e+01 8.726470000000000482e+01 2.194750000000000000e+03
7.300000000000000933e-02 1.945425000000000071e-01 2.289750000000000085e+01 9.146739999999999782e+01 2.196039999999999964e+03
7.399999999999999634e-02 1.946990000000000109e-01 2.442699999999999960e+01 9.530174999999999841e+01 2.197234999999999673e+03
7.499999999999999722e-02 1.948440000000000172e-01 2.580165000000000219e+01 9.882829999999999870e+01 2.198345000000000255e+03
7.599999999999999811e-02 1.949795000000000000e-01 2.704370000000000118e+01 1.021273000000000053e+02 2.199385000000000218e+03
7.699999999999999900e-02 1.951080000000000036e-01 2.818025000000000091e+01 1.052874999999999943e+02 2.200375000000000000e+03
7.799999999999999989e-02 1.952329999999999899e-01 2.924009999999999820e+01 1.083949999999999960e+02 2.201329999999999927e+03
7.900000000000000078e-02 1.953564999999999885e-01 3.025039999999999907e+01 1.115244999999999891e+02 2.202275000000000091e+03
8.000000000000000167e-02 1.954805000000000015e-01 3.123379999999999868e+01 1.147325000000000017e+02 2.203224999999999909e+03
8.100000000000000255e-02 1.956065000000000165e-01 3.220700000000000074e+01 1.180524999999999949e+02 2.204190000000000055e+03
8.200000000000000344e-02 1.957365000000000077e-01 3.317929999999999779e+01 1.214939999999999998e+02 2.205175000000000182e+03
8.300000000000000433e-02 1.958695000000000019e-01 3.415255000000000507e+01 1.250424999999999898e+02 2.206190000000000055e+03
8.400000000000000522e-02 1.960054999999999992e-01 3.512174999999999869e+01 1.286630000000000109e+02 2.207230000000000018e+03
8.500000000000000611e-02 1.961430000000000118e-01 3.607564999999999600e+01 1.323064999999999998e+02 2.208275000000000091e+03
8.600000000000000699e-02 1.962800000000000100e-01 3.699819999999999709e+01 1.359100000000000250e+02 2.209320000000000164e+03
8.700000000000000788e-02 1.964144999999999919e-01 3.786995000000000289e+01 1.394069999999999823e+02 2.210355000000000018e+03
8.800000000000000877e-02 1.965445000000000109e-01 3.866955000000000098e+01 1.427280000000000086e+02 2.211349999999999909e+03
8.899999999999999578e-02 1.966674999999999951e-01 3.937539999999999907e+01 1.458059999999999832e+02 2.212295000000000073e+03
8.999999999999999667e-02 1.967814999999999981e-01 3.996675000000000466e+01 1.485824999999999818e+02 2.213175000000000182e+03
9.099999999999999756e-02 1.968840000000000034e-01 4.042539999999999623e+01 1.510070000000000050e+02 2.213965000000000146e+03
9.199999999999999845e-02 1.969739999999999824e-01 4.073635000000000161e+01 1.530399999999999920e+02 2.214664999999999964e+03
9.299999999999999933e-02 1.970494999999999886e-01 4.088915000000000077e+01 1.546560000000000059e+02 2.215255000000000109e+03
9.400000000000000022e-02 1.971100000000000074e-01 4.087824999999999420e+01 1.558439999999999941e+02 2.215730000000000018e+03
9.500000000000000111e-02 1.971554999999999835e-01 4.070359999999999445e+01 1.566069999999999993e+02 2.216090000000000146e+03
9.600000000000000200e-02 1.971855000000000135e-01 4.037064999999999770e+01 1.569635000000000105e+02 2.216329999999999927e+03
9.700000000000000289e-02 1.972015000000000018e-01 3.989015000000000555e+01 1.569445000000000050e+02 2.216465000000000146e+03
9.800000000000000377e-02 1.972035000000000038e-01 3.927734999999999843e+01 1.565910000000000082e+02 2.216500000000000000e+03
9.900000000000000466e-02 1.971940000000000082e-01 3.855145000000000266e+01 1.559550000000000125e+02 2.216440000000000055e+03
1.000000000000000056e-01 1.971749999999999892e-01 3.773434999999999917e+01 1.550919999999999845e+02 2.216300000000000182e+03
1.010000000000000064e-01 1.971475000000000033e-01 3.684945000000000448e+01 1.540625000000000000e+02 2.216105000000000018e+03
1.020000000000000073e-01 1.971140000000000114e-01 3.592085000000000150e+01 1.529234999999999900e+02 2.215855000000000018e+03
1.030000000000000082e-01 1.970760000000000012e-01 3.497180000000000177e+01 1.517325000000000159e+02 2.215569999999999709e+03
1.040000000000000091e-01 1.970365000000000033e-01 3.402420000000000044e+01 1.505380000000000109e+02 2.215265000000000327e+03
1.050000000000000100e-01 1.969960000000000044e-01 3.309740000000000038e+01 1.493854999999999791e+02 2.214960000000000036e+03
1.059999999999999970e-01 1.969569999999999932e-01 3.220775000000000432e+01 1.483085000000000093e+02 2.214659999999999854e+03
1.069999999999999979e-01 1.969199999999999839e-01 3.136779999999999902e+01 1.473329999999999984e+02 2.214375000000000000e+03
1.079999999999999988e-01 1.968860000000000054e-01 3.058610000000000184e+01 1.464745000000000061e+02 2.214114999999999782e+03
1.089999999999999997e-01 1.968559999999999754e-01 2.986684999999999945e+01 1.457364999999999782e+02 2.213880000000000109e+03
1.100000000000000006e-01 1.968290000000000040e-01 2.920985000000000298e+01 1.451150000000000091e+02 2.213664999999999964e+03
1.110000000000000014e-01 1.968060000000000087e-01 2.861064999999999969e+01 1.445930000000000177e+02 2.213489999999999782e+03
1.120000000000000023e-01 1.967865000000000031e-01 2.806105000000000160e+01 1.441465000000000032e+02 2.213329999999999927e+03
1.130000000000000032e-01 1.967685000000000128e-01 2.754950000000000188e+01 1.437420000000000186e+02 2.213189999999999600e+03
1.140000000000000041e-01 1.967514999999999958e-01 2.706204999999999927e+01 1.433435000000000059e+02 2.213055000000000291e+03
1.150000000000000050e-01 1.967344999999999788e-01 2.658314999999999984e+01 1.429099999999999966e+02 2.212920000000000073e+03
1.160000000000000059e-01 1.967154999999999876e-01 2.609700000000000131e+01 1.424014999999999986e+02 2.212774999999999636e+03
1.170000000000000068e-01 1.966940000000000077e-01 2.558820000000000050e+01 1.417800000000000011e+02 2.212609999999999673e+03
1.180000000000000077e-01 1.966680000000000095e-01 2.504319999999999879e+01 1.410130000000000052e+02 2.212414999999999964e+03
1.190000000000000085e-01 1.966370000000000062e-01 2.445070000000000121e+01 1.400759999999999934e+02 2.212175000000000182e+03
1.200000000000000094e-01 1.965999999999999970e-01 2.380314999999999870e+01 1.389534999999999911e+02 2.211894999999999982e+03
1.209999999999999964e-01 1.965560000000000085e-01 2.309655000000000058e+01 1.376410000000000196e+02 2.211565000000000055e+03
1.219999999999999973e-01 1.965060000000000140e-01 2.233120000000000260e+01 1.361434999999999889e+02 2.211184999999999945e+03
1.229999999999999982e-01 1.964494999999999991e-01 2.151164999999999949e+01 1.344789999999999850e+02 2.210760000000000218e+03
1.239999999999999991e-01 1.963874999999999926e-01 2.064645000000000152e+01 1.326750000000000114e+02 2.210289999999999964e+03
1.250000000000000000e-01 1.963205000000000089e-01 1.974749999999999872e+01 1.307669999999999959e+02 2.209784999999999854e+03
1.260000000000000009e-01 1.962504999999999944e-01 1.882975000000000065e+01 1.287974999999999852e+02 2.209255000000000109e+03
1.270000000000000018e-01 1.961789999999999923e-01 1.790990000000000038e+01 1.268129999999999882e+02 2.208710000000000036e+03
1.280000000000000027e-01 1.961069999999999758e-01 1.700569999999999737e+01 1.248605000000000018e+02 2.208159999999999854e+03
1.290000000000000036e-01 1.960359999999999880e-01 1.613489999999999824e+01 1.229879999999999995e+02 2.207619999999999891e+03
1.300000000000000044e-01 1.959680000000000033e-01 1.531425000000000125e+01 1.212365000000000066e+02 2.207099999999999909e+03
1.310000000000000053e-01 1.959049999999999958e-01 1.455845000000000056e+01 1.196434999999999889e+02 2.206614999999999782e+03
1.320000000000000062e-01 1.958469999999999933e-01 1.388000000000000078e+01 1.182379999999999995e+02 2.206175000000000182e+03
1.330000000000000071e-01 1.957959999999999978e-01 1.328805000000000014e+01 1.170405000000000086e+02 2.205779999999999745e+03
1.340000000000000080e-01 1.957520000000000093e-01 1.278845000000000098e+01 1.160625000000000000e+02 2.205435000000000400e+03
1.350000000000000089e-01 1.957160000000000011e-01 1.238364999999999938e+01 1.153054999999999950e+02 2.205150000000000091e+03
1.360000000000000098e-01 1.956869999999999998e-01 1.207264999999999944e+01 1.147650000000000006e+02 2.204929999999999836e+03
1.370000000000000107e-01 1.956660000000000066e-01 1.185144999999999982e+01 1.144254999999999995e+02 2.204760000000000218e+03
1.380000000000000115e-01 1.956519999999999926e-01 1.171320000000000050e+01 1.142694999999999936e+02 2.204644999999999982e+03
1.390000000000000124e-01 1.956444999999999990e-01 1.164900000000000091e+01 1.142704999999999984e+02 2.204579999999999927e+03
1.400000000000000133e-01 1.956419999999999826e-01 1.164830000000000076e+01 1.144029999999999916e+02 2.204559999999999945e+03
1.410000000000000142e-01 1.956450000000000133e-01 1.169934999999999903e+01 1.146364999999999981e+02 2.204569999999999709e+03
1.420000000000000151e-01 1.956509999999999916e-01 1.178994999999999926e+01 1.149420000000000073e+02 2.204610000000000127e+03
1.430000000000000160e-01 1.956600000000000006e-01 1.190769999999999840e+01 1.152909999999999968e+02 2.204675000000000182e+03
1.440000000000000169e-01 1.956704999999999972e-01 1.204080000000000084e+01 1.156560000000000059e+02 2.204755000000000109e+03
1.450000000000000178e-01 1.956819999999999948e-01 1.217820000000000036e+01 1.160134999999999934e+02 2.204835000000000036e+03
1.459999999999999909e-01 1.956930000000000058e-01 1.230995000000000061e+01 1.163425000000000011e+02 2.204914999999999964e+03
1.469999999999999918e-01 1.957034999999999747e-01 1.242764999999999986e+01 1.166264999999999930e+02 2.205000000000000000e+03
1.479999999999999927e-01 1.957119999999999971e-01 1.252465000000000117e+01 1.168520000000000039e+02 2.205065000000000055e+03
1.489999999999999936e-01 1.957194999999999907e-01 1.259609999999999985e+01 1.170115000000000123e+02 2.205119999999999891e+03
1.499999999999999944e-01 1.957240000000000091e-01 1.263884999999999970e+01 1.170999999999999943e+02 2.205159999999999854e+03
1.509999999999999953e-01 1.957269999999999843e-01 1.265204999999999913e+01 1.171200000000000045e+02 2.205180000000000291e+03
1.519999999999999962e-01 1.957269999999999843e-01 1.263625000000000043e+01 1.170739999999999981e+02 2.205185000000000400e+03
1.529999999999999971e-01 1.957249999999999823e-01 1.259379999999999988e+01 1.169720000000000084e+02 2.205175000000000182e+03
1.539999999999999980e-01 1.957220000000000071e-01 1.252850000000000108e+01 1.168234999999999957e+02 2.205144999999999982e+03
1.549999999999999989e-01 1.957170000000000021e-01 1.244500000000000028e+01 1.166424999999999983e+02 2.205114999999999782e+03
1.559999999999999998e-01 1.957105000000000095e-01 1.234880000000000067e+01 1.164429999999999978e+02 2.205070000000000164e+03
1.570000000000000007e-01 1.957045000000000035e-01 1.224559999999999960e+01 1.162394999999999925e+02 2.205025000000000091e+03
1.580000000000000016e-01 1.956974999999999965e-01 1.214090000000000025e+01 1.160450000000000017e+02 2.204970000000000255e+03
1.590000000000000024e-01 1.956910000000000038e-01 1.203989999999999938e+01 1.158709999999999951e+02 2.204925000000000182e+03
