# t [s], A [cm^2], U [cm/s], P [cPa], c [cm/s]
1.000000000000000021e-03 4.926679999999999948e-01 2.982749999999999291e-03 9.986584999999999468e+01 1.431809999999999945e+03
2.000000000000000042e-03 4.926610000000000156e-01 4.510899999999999112e-04 9.984759999999999991e+01 1.431799999999999955e+03
3.000000000000000062e-03 4.927009999999999446e-01 7.911285000000001233e-02 9.991819999999999879e+01 1.431820000000000164e+03
4.000000000000000083e-03 4.927449999999999886e-01 1.691347500000000004e-01 1.000218999999999880e+02 1.431855000000000018e+03
5.000000000000000104e-03 4.927389999999999826e-01 1.647855000000000014e-01 1.000116000000000014e+02 1.431855000000000018e+03
6.000000000000000125e-03 4.926955000000000084e-01 8.341199999999998616e-02 9.986560000000000059e+01 1.431820000000000164e+03
7.000000000000000146e-03 4.926500000000000323e-01 -7.973500000000022236e-03 9.964605000000000246e+01 1.431769999999999982e+03
8.000000000000000167e-03 4.925904999999999867e-01 -1.329329999999999679e-01 9.933859999999999957e+01 1.431695000000000164e+03
9.000000000000001055e-03 4.924890000000000101e-01 -3.514300000000000201e-01 9.886920000000000641e+01 1.431579999999999927e+03
1.000000000000000194e-02 4.923389999999999711e-01 -6.747699999999998699e-01 9.819489999999998986e+01 1.431414999999999964e+03
1.099999999999999936e-02 4.921355000000000035e-01 -1.101750000000000007e+00 9.728600000000000136e+01 1.431184999999999945e+03
1.200000000000000025e-02 4.918669999999999987e-01 -1.642879999999999896e+00 9.610105000000000075e+01 1.430869999999999891e+03
1.300000000000000114e-02 4.915300000000000225e-01 -2.286979999999999791e+00 9.462000000000000455e+01 1.430474999999999909e+03
1.400000000000000203e-02 4.911464999999999859e-01 -2.968140000000000001e+00 9.289074999999999704e+01 1.430000000000000000e+03
1.499999999999999944e-02 4.907574999999999577e-01 -3.575730000000000075e+00 9.103430000000000177e+01 1.429474999999999909e+03
1.600000000000000033e-02 4.904045000000000210e-01 -3.997440000000000548e+00 8.920374999999999943e+01 1.428934999999999945e+03
1.700000000000000122e-02 4.901130000000000209e-01 -4.160357000000000305e+00 8.752925000000000466e+01 1.428414999999999964e+03
1.800000000000000211e-02 4.898839999999999861e-01 -4.049010100000000278e+00 8.608074999999999477e+01 1.427940000000000055e+03
1.900000000000000300e-02 4.897009999999999974e-01 -3.700171000000000099e+00 8.485724999999999341e+01 1.427509999999999991e+03
2.000000000000000042e-02 4.895355000000000123e-01 -3.183535299999999957e+00 8.379974999999998886e+01 1.427110000000000127e+03
2.100000000000000130e-02 4.893600000000000172e-01 -2.577421500000000254e+00 8.281725000000000136e+01 1.426735000000000127e+03
2.200000000000000219e-02 4.891524999999999901e-01 -1.946590000000000042e+00 8.181755000000001132e+01 1.426360000000000127e+03
2.299999999999999961e-02 4.889050000000000340e-01 -1.327800000000000091e+00 8.073359999999999559e+01 1.425965000000000146e+03
2.400000000000000050e-02 4.886209999999999720e-01 -7.269200000000002326e-01 7.953810000000000002e+01 1.425545000000000073e+03
2.500000000000000139e-02 4.883129999999999971e-01 -1.274099999999998012e-01 7.824184999999999945e+01 1.425099999999999909e+03
2.600000000000000228e-02 4.879959999999999853e-01 4.943100000000000271e-01 7.687960000000001060e+01 1.424634999999999991e+03
2.700000000000000316e-02 4.876794999999999880e-01 1.153185000000000127e+00 7.548984999999998990e+01 1.424164999999999964e+03
2.800000000000000058e-02 4.873665000000000358e-01 1.844910000000000050e+00 7.409694999999999254e+01 1.423684999999999945e+03
2.900000000000000147e-02 4.870514999999999706e-01 2.542475000000000041e+00 7.269955000000000211e+01 1.423199999999999818e+03
3.000000000000000236e-02 4.867215000000000291e-01 3.199675000000000047e+00 7.126855000000000473e+01 1.422704999999999927e+03
3.099999999999999978e-02 4.863600000000000145e-01 3.759520000000000195e+00 6.975249999999999773e+01 1.422194999999999936e+03
3.200000000000000067e-02 4.859499999999999931e-01 4.165460000000000385e+00 6.808965000000000600e+01 1.421639999999999873e+03
3.300000000000000155e-02 4.854800000000000226e-01 4.372449999999999726e+00 6.622265000000000157e+01 1.421045000000000073e+03
3.400000000000000244e-02 4.849454999999999738e-01 4.356544999999999668e+00 6.411384999999999934e+01 1.420380000000000109e+03
3.500000000000000333e-02 4.843505000000000171e-01 4.119744999999999990e+00 6.175659999999999883e+01 1.419654999999999973e+03
3.600000000000000422e-02 4.837100000000000288e-01 3.690344999999999764e+00 5.918090000000000117e+01 1.418869999999999891e+03
3.700000000000000511e-02 4.830444999999999878e-01 3.118055000000000465e+00 5.645189999999999486e+01 1.418039999999999964e+03
3.799999999999999906e-02 4.823795000000000166e-01 2.466145000000000032e+00 5.366244999999999976e+01 1.417190000000000055e+03
3.899999999999999994e-02 4.817420000000000035e-01 1.802165000000000461e+00 5.092119999999999891e+01 1.416339999999999918e+03
4.000000000000000083e-02 4.811560000000000281e-01 1.189834999999999532e+00 4.834010000000000673e+01 1.415530000000000200e+03
4.100000000000000172e-02 4.806424999999999725e-01 6.828649999999996112e-01 4.602299999999999613e+01 1.414779999999999973e+03
4.200000000000000261e-02 4.802160000000000317e-01 3.219949999999998091e-01 4.405665000000000475e+01 1.414119999999999891e+03
4.300000000000000350e-02 4.798864999999999936e-01 1.341249999999996056e-01 4.250565000000000282e+01 1.413570000000000164e+03
4.400000000000000439e-02 4.796595000000000164e-01 1.337900000000002976e-01 4.141105000000000302e+01 1.413150000000000091e+03
4.499999999999999833e-02 4.795360000000000178e-01 3.258350000000000968e-01 4.079135000000000133e+01 1.412860000000000127e+03
4.599999999999999922e-02 4.795125000000000082e-01 7.084960000000000147e-01 4.064620000000000033e+01 1.412715000000000146e+03
4.700000000000000011e-02 4.795859999999999568e-01 1.276246500000000061e+00 4.096115000000000350e+01 1.412710000000000036e+03
4.800000000000000100e-02 4.797514999999999974e-01 2.021851999999999983e+00 4.171195000000000164e+01 1.412835000000000036e+03
4.900000000000000189e-02 4.800014999999999699e-01 2.937323499999999754e+00 4.286870000000000402e+01 1.413095000000000027e+03
5.000000000000000278e-02 4.803310000000000635e-01 4.013889499999999444e+00 4.439809999999999945e+01 1.413469999999999800e+03
5.100000000000000366e-02 4.807329999999999659e-01 5.241246499999999919e+00 4.626470000000000482e+01 1.413960000000000036e+03
5.200000000000000455e-02 4.811995000000000022e-01 6.606457999999999942e+00 4.843120000000000402e+01 1.414549999999999955e+03
5.300000000000000544e-02 4.817224999999999424e-01 8.093179499999999749e+00 5.085790000000000077e+01 1.415235000000000127e+03
5.399999999999999939e-02 4.822919999999999985e-01 9.680930000000000035e+00 5.350230000000000530e+01 1.415990000000000009e+03
5.500000000000000028e-02 4.828979999999999939e-01 1.134578499999999934e+01 5.631919999999999504e+01 1.416809999999999945e+03
5.600000000000000117e-02 4.835300000000000153e-01 1.306063500000000133e+01 5.926139999999999475e+01 1.417684999999999945e+03
5.700000000000000205e-02 4.841759999999999953e-01 1.479703500000000105e+01 6.228049999999999642e+01 1.418595000000000027e+03
5.800000000000000294e-02 4.848265000000000491e-01 1.652642499999999970e+01 6.532935000000000514e+01 1.419525000000000091e+03
5.900000000000000383e-02 4.854715000000000003e-01 1.822194999999999965e+01 6.836369999999999436e+01 1.420465000000000146e+03
6.000000000000000472e-02 4.861039999999999806e-01 1.985989999999999966e+01 7.134420000000000073e+01 1.421394999999999982e+03
6.099999999999999867e-02 4.867160000000000375e-01 2.142064999999999841e+01 7.423834999999999695e+01 1.422325000000000045e+03
6.199999999999999956e-02 4.873039999999999594e-01 2.288949999999999818e+01 7.702170000000000982e+01 1.423224999999999909e+03
6.300000000000000044e-02 4.878660000000000219e-01 2.425694999999999979e+01 7.967849999999999966e+01 1.424090000000000146e+03
6.400000000000000133e-02 4.884009999999999740e-01 2.551845000000000141e+01 8.220179999999999154e+01 1.424929999999999836e+03
6.500000000000000222e-02 4.889105000000000256e-01 2.667379999999999995e+01 8.459290000000000020e+01 1.425735000000000127e+03
6.600000000000000311e-02 4.893965000000000121e-01 2.772695000000000221e+01 8.686025000000000773e+01 1.426505000000000109e+03
6.700000000000000400e-02 4.898629999999999929e-01 2.868475000000000108e+01 8.901829999999999643e+01 1.427244999999999891e+03
6.800000000000000488e-02 4.903140000000000276e-01 2.955649999999999977e+01 9.108575000000000443e+01 1.427950000000000045e+03
6.900000000000000577e-02 4.907540000000000235e-01 3.035294999999999987e+01 9.308435000000000059e+01 1.428644999999999982e+03
7.000000000000000666e-02 4.911880000000000135e-01 3.108579999999999899e+01 9.503695000000000448e+01 1.429315000000000055e+03
7.100000000000000755e-02 4.916209999999999747e-01 3.176685000000000159e+01 9.696590000000000487e+01 1.429980000000000018e+03
7.200000000000000844e-02 4.920565000000000078e-01 3.240749999999999886e+01 9.889310000000000400e+01 1.430639999999999873e+03
7.300000000000000933e-02 4.924985000000000612e-01 3.301800000000000068e+01 1.008365000000000009e+02 1.431300000000000182e+03
7.399999999999999634e-02 4.929494999999999849e-01 3.360719999999999885e+01 1.028108000000000004e+02 1.431970000000000027e+03
7.499999999999999722e-02 4.934109999999999885e-01 3.418174999999999386e+01 1.048264999999999958e+02 1.432650000000000091e+03
7.599999999999999811e-02 4.938835000000000308e-01 3.474609999999999843e+01 1.068884999999999934e+02 1.433335000000000036e+03
7.699999999999999900e-02 4.943664999999999865e-01 3.530185000000000173e+01 1.089954999999999927e+02 1.434039999999999964e+03
7.799999999999999989e-02 4.948580000000000201e-01 3.584799999999999898e+01 1.111414999999999935e+02 1.434750000000000000e+03
7.900000000000000078e-02 4.953545000000000309e-01 3.638084999999999525e+01 1.133144999999999953e+02 1.435469999999999800e+03
8.000000000000000167e-02 4.958525000000000293e-01 3.689430000000000121e+01 1.154985000000000070e+02 1.436199999999999818e+03
8.100000000000000255e-02 4.963465000000000238e-01 3.738044999999999618e+01 1.176734999999999900e+02 1.436924999999999955e+03
8.200000000000000344e-02 4.968320000000000514e-01 3.782985000000000042e+01 1.198155000000000001e+02 1.437640000000000100e+03
8.300000000000000433e-02 4.973035000000000094e-01 3.823234999999999673e+01 1.218990000000000009e+02 1.438340000000000146e+03
8.400000000000000522e-02 4.977544999999999886e-01 3.857739999999999725e+01 1.239000000000000057e+02 1.439019999999999982e+03
8.500000000000000611e-02 4.981804999999999706e-01 3.885510000000000019e+01 1.257930000000000064e+02 1.439670000000000073e+03
8.600000000000000699e-02 4.985769999999999924e-01 3.905639999999999645e+01 1.275554999999999950e+02 1.440279999999999973e+03
8.700000000000000788e-02 4.989394999999999802e-01 3.917369999999999663e+01 1.291680000000000064e+02 1.440849999999999909e+03
8.800000000000000877e-02 4.992649999999999588e-01 3.920125000000000171e+01 1.306150000000000091e+02 1.441369999999999891e+03
8.899999999999999578e-02 4.995514999999999817e-01 3.913514999999999588e+01 1.318845000000000027e+02 1.441839999999999918e+03
8.999999999999999667e-02 4.997970000000000468e-01 3.897390000000000043e+01 1.329699999999999989e+02 1.442250000000000000e+03
9.099999999999999756e-02 5.000029999999999752e-01 3.871829999999999927e+01 1.338694999999999879e+02 1.442599999999999909e+03
9.199999999999999845e-02 5.001694999999999336e-01 3.837099999999999511e+01 1.345854999999999961e+02 1.442894999999999982e+03
9.299999999999999933e-02 5.002974999999999506e-01 3.793715000000000259e+01 1.351250000000000000e+02 1.443130000000000109e+03
9.400000000000000022e-02 5.003910000000000302e-01 3.742350000000000421e+01 1.354990000000000236e+02 1.443315000000000055e+03
9.500000000000000111e-02 5.004520000000000080e-01 3.683859999999999957e+01 1.357210000000000036e+02 1.443445000000000164e+03
9.600000000000000200e-02 5.004844999999999988e-01 3.619219999999999970e+01 1.358084999999999809e+02 1.443534999999999854e+03
9.700000000000000289e-02 5.004925000000000068e-01 3.549504999999999910e+01 1.357804999999999893e+02 1.443575000000000045e+03
9.800000000000000377e-02 5.004809999999999537e-01 3.475860000000000127e+01 1.356569999999999823e+02 1.443585000000000036e+03
9.900000000000000466e-02 5.004530000000000367e-01 3.399445000000000050e+01 1.354590000000000032e+02 1.443565000000000055e+03
1.000000000000000056e-01 5.004140000000000255e-01 3.321424999999999983e+01 1.352060000000000173e+02 1.443519999999999982e+03
1.010000000000000064e-01 5.003684999999999938e-01 3.242895000000000039e+01 1.349189999999999827e+02 1.443460000000000036e+03
1.020000000000000073e-01 5.003184999999999993e-01 3.164874999999999972e+01 1.346145000000000209e+02 1.443384999999999991e+03
1.030000000000000082e-01 5.002690000000000747e-01 3.088269999999999982e+01 1.343095000000000141e+02 1.443305000000000064e+03
1.040000000000000091e-01 5.002214999999999856e-01 3.013840000000000074e+01 1.340165000000000077e+02 1.443224999999999909e+03
1.050000000000000100e-01 5.001784999999999703e-01 2.942174999999999940e+01 1.337470000000000141e+02 1.443150000000000091e+03
1.059999999999999970e-01 5.001409999999999467e-01 2.873700000000000188e+01 1.335065000000000168e+02 1.443075000000000045e+03
1.069999999999999979e-01 5.001105000000000134e-01 2.808644999999999925e+01 1.333015000000000043e+02 1.443005000000000109e+03
1.079999999999999988e-01 5.000854999999999606e-01 2.747064999999999912e+01 1.331299999999999955e+02 1.442950000000000045e+03
1.089999999999999997e-01 5.000670000000000393e-01 2.688824999999999932e+01 1.329919999999999902e+02 1.442900000000000091e+03
1.100000000000000006e-01 5.000525000000000109e-01 2.633670000000000044e+01 1.328815000000000168e+02 1.442860000000000127e+03
1.110000000000000014e-01 5.000409999999999577e-01 2.581159999999999854e+01 1.327914999999999850e+02 1.442820000000000164e+03
1.120000000000000023e-01 5.000299999999999745e-01 2.530785000000000196e+01 1.327125000000000057e+02 1.442784999999999854e+03
1.130000000000000032e-01 5.000175000000000036e-01 2.481940000000000168e+01 1.326345000000000027e+02 1.442750000000000000e+03
1.140000000000000041e-01 5.000010000000000288e-01 2.433975000000000222e+01 1.325455000000000041e+02 1.442720000000000027e+03
1.150000000000000050e-01 4.999779999999999780e-01 2.386229999999999762e+01 1.324345000000000141e+02 1.442679999999999836e+03
1.160000000000000059e-01 4.999460000000000015e-01 2.338050000000000139e+01 1.322895000000000039e+02 1.442630000000000109e+03
1.170000000000000068e-01 4.999035000000000006e-01 2.288830000000000098e+01 1.321014999999999873e+02 1.442570000000000164e+03
1.180000000000000077e-01 4.998480000000000145e-01 2.238029999999999831e+01 1.318605000000000018e+02 1.442494999999999891e+03
1.190000000000000085e-01 4.997789999999999733e-01 2.185215000000000174e+01 1.315600000000000023e+02 1.442404999999999973e+03
1.200000000000000094e-01 4.996950000000000003e-01 2.130055000000000121e+01 1.311945000000000050e+02 1.442289999999999964e+03
1.209999999999999964e-01 4.995955000000000257e-01 2.072344999999999970e+01 1.307615000000000123e+02 1.442159999999999854e+03
1.219999999999999973e-01 4.994815000000000227e-01 2.012014999999999887e+01 1.302599999999999909e+02 1.442009999999999991e+03
1.229999999999999982e-01 4.993530000000000468e-01 1.949139999999999873e+01 1.296924999999999955e+02 1.441839999999999918e+03
1.239999999999999991e-01 4.992115000000000302e-01 1.883920000000000172e+01 1.290635000000000048e+02 1.441650000000000091e+03
1.250000000000000000e-01 4.990580000000000016e-01 1.816704999999999970e+01 1.283799999999999955e+02 1.441440000000000055e+03
1.260000000000000009e-01 4.988954999999999917e-01 1.747939999999999827e+01 1.276494999999999891e+02 1.441215000000000146e+03
1.270000000000000018e-01 4.987249999999999739e-01 1.678190000000000026e+01 1.268834999999999980e+02 1.440980000000000018e+03
1.280000000000000027e-01 4.985515000000000363e-01 1.608100000000000307e+01 1.260939999999999941e+02 1.440730000000000018e+03
1.290000000000000036e-01 4.983755000000000268e-01 1.538385000000000069e+01 1.252930000000000064e+02 1.440480000000000018e+03
1.300000000000000044e-01 4.982014999999999638e-01 1.469789000000000101e+01 1.244950000000000045e+02 1.440224999999999909e+03
1.310000000000000053e-01 4.980315000000000158e-01 1.403064999999999962e+01 1.237125000000000057e+02 1.439970000000000027e+03
1.320000000000000062e-01 4.978690000000000060e-01 1.338965499999999942e+01 1.229594999999999914e+02 1.439724999999999909e+03
1.330000000000000071e-01 4.977159999999999918e-01 1.278194000000000052e+01 1.222475000000000023e+02 1.439489999999999782e+03
1.340000000000000080e-01 4.975755000000000039e-01 1.221391500000000008e+01 1.215879999999999939e+02 1.439269999999999982e+03
1.350000000000000089e-01 4.974484999999999602e-01 1.169114000000000075e+01 1.209904999999999973e+02 1.439065000000000055e+03
1.360000000000000098e-01 4.973374999999999879e-01 1.121814000000000000e+01 1.204635000000000105e+02 1.438880000000000109e+03
1.370000000000000107e-01 4.972435000000000049e-01 1.079828499999999991e+01 1.200120000000000005e+02 1.438710000000000036e+03
1.380000000000000115e-01 4.971665000000000112e-01 1.043367999999999896e+01 1.196390000000000100e+02 1.438569999999999936e+03
1.390000000000000124e-01 4.971065000000000067e-01 1.012511499999999920e+01 1.193474999999999966e+02 1.438454999999999927e+03
1.400000000000000133e-01 4.970639999999999503e-01 9.872220000000000439e+00 1.191345000000000027e+02 1.438360000000000127e+03
1.410000000000000142e-01 4.970369999999999511e-01 9.673230000000000217e+00 1.189979999999999905e+02 1.438295000000000073e+03
1.420000000000000151e-01 4.970255000000000090e-01 9.525414999999998855e+00 1.189329999999999927e+02 1.438244999999999891e+03
1.430000000000000160e-01 4.970274999999999554e-01 9.425005000000000521e+00 1.189325000000000045e+02 1.438220000000000027e+03
1.440000000000000169e-01 4.970410000000000661e-01 9.367544999999999789e+00 1.189894999999999925e+02 1.438214999999999918e+03
1.450000000000000178e-01 4.970640000000000058e-01 9.347834999999999894e+00 1.190949999999999989e+02 1.438224999999999909e+03
1.459999999999999909e-01 4.970944999999999947e-01 9.360329999999999373e+00 1.192400000000000091e+02 1.438250000000000000e+03
1.469999999999999918e-01 4.971315000000000595e-01 9.399274999999999380e+00 1.194149999999999920e+02 1.438284999999999854e+03
1.479999999999999927e-01 4.971720000000000028e-01 9.458905000000001451e+00 1.196099999999999994e+02 1.438329999999999927e+03
1.489999999999999936e-01 4.972139999999999893e-01 9.533570000000000988e+00 1.198170000000000073e+02 1.438384999999999991e+03
1.499999999999999944e-01 4.972564999999999902e-01 9.617905000000000371e+00 1.200279999999999916e+02 1.438440000000000055e+03
1.509999999999999953e-01 4.972984999999999767e-01 9.707010000000000360e+00 1.202355000000000018e+02 1.438494999999999891e+03
1.519999999999999962e-01 4.973374999999999879e-01 9.796485000000000554e+00 1.204325000000000045e+02 1.438550000000000182e+03
1.529999999999999971e-01 4.973729999999999540e-01 9.882564999999999600e+00 1.206159999999999997e+02 1.438610000000000127e+03
1.539999999999999980e-01 4.974049999999999860e-01 9.962044999999999817e+00 1.207804999999999893e+02 1.438659999999999854e+03
1.549999999999999989e-01 4.974319999999999853e-01 1.003259500000000060e+01 1.209249999999999972e+02 1.438700000000000045e+03
1.559999999999999998e-01 4.974549999999999805e-01 1.009235999999999933e+01 1.210469999999999970e+02 1.438744999999999891e+03
1.570000000000000007e-01 4.974729999999999430e-01 1.014022500000000093e+01 1.211469999999999914e+02 1.438775000000000091e+03
1.580000000000000016e-01 4.974865000000000537e-01 1.017568999999999946e+01 1.212259999999999991e+02 1.438805000000000064e+03
1.590000000000000024e-01 4.974965000000000082e-01 1.019884499999999861e+01 1.212849999999999966e+02 1.438829999999999927e+03
