# t [s], A [cm^2], U [cm/s], P [cPa], c [cm/s]
1.000000000000000021e-03 6.253649999999999487e-01 6.885349999999998416e-03 1.000885999999999996e+02 1.847005000000000109e+03
2.000000000000000042e-03 6.253579999999999695e-01 3.738250000000000253e-03 1.000561500000000024e+02 1.846994999999999891e+03
3.000000000000000062e-03 6.254200000000000870e-01 1.365879999999999872e-01 1.002237000000000080e+02 1.847025000000000091e+03
4.000000000000000083e-03 6.254485000000000738e-01 2.181308000000000136e-01 1.003295499999999976e+02 1.847049999999999955e+03
5.000000000000000104e-03 6.253925000000000178e-01 1.341175000000000284e-01 1.001401999999999930e+02 1.847014999999999873e+03
6.000000000000000125e-03 6.253299999999999415e-01 2.537300000000003442e-02 9.981149999999999523e+01 1.846954999999999927e+03
7.000000000000000146e-03 6.252610000000000667e-01 -1.092134999999999634e-01 9.937950000000000728e+01 1.846875000000000000e+03
8.000000000000000167e-03 6.251309999999999922e-01 -3.897749999999999826e-01 9.867140000000000555e+01 1.846750000000000000e+03
9.000000000000001055e-03 6.249320000000000430e-01 -8.363099999999999978e-01 9.760509999999999309e+01 1.846550000000000182e+03
1.000000000000000194e-02 6.246445000000000469e-01 -1.478400000000000158e+00 9.608289999999999509e+01 1.846269999999999982e+03
1.099999999999999936e-02 6.242550000000000043e-01 -2.325289999999999857e+00 9.402235000000000298e+01 1.845889999999999873e+03
1.200000000000000025e-02 6.238094999999999057e-01 -3.253530000000000033e+00 9.154279999999999973e+01 1.845420000000000073e+03
1.300000000000000114e-02 6.233934999999999338e-01 -4.041925499999999616e+00 8.896350000000001046e+01 1.844905000000000200e+03
1.400000000000000203e-02 6.230715000000000003e-01 -4.508666500000000354e+00 8.661709999999999354e+01 1.844409999999999854e+03
1.499999999999999944e-02 6.228500000000000147e-01 -4.599214999999999165e+00 8.467714999999999748e+01 1.843980000000000018e+03
1.600000000000000033e-02 6.226914999999999534e-01 -4.380195000000000505e+00 8.311549999999999727e+01 1.843599999999999909e+03
1.700000000000000122e-02 6.225384999999999946e-01 -3.979280000000000150e+00 8.176354999999999507e+01 1.843259999999999991e+03
1.800000000000000211e-02 6.223450000000000371e-01 -3.517079999999999984e+00 8.041634999999999422e+01 1.842925000000000182e+03
1.900000000000000300e-02 6.220944999999999947e-01 -3.059007499999999879e+00 7.892830000000000723e+01 1.842559999999999945e+03
2.000000000000000042e-02 6.217984999999999207e-01 -2.601590499999999917e+00 7.726419999999998822e+01 1.842175000000000182e+03
2.100000000000000130e-02 6.214865000000000528e-01 -2.094749999999999890e+00 7.548975000000000080e+01 1.841764999999999873e+03
2.200000000000000219e-02 6.211875000000000036e-01 -1.485485000000000166e+00 7.371285000000000309e+01 1.841355000000000018e+03
2.299999999999999961e-02 6.209145000000000358e-01 -7.584650000000001668e-01 7.201185000000000969e+01 1.840945000000000164e+03
2.400000000000000050e-02 6.206540000000000390e-01 4.421999999999970399e-02 7.038564999999999827e+01 1.840559999999999945e+03
2.500000000000000139e-02 6.203760000000000385e-01 8.285799999999998722e-01 6.874099999999999966e+01 1.840164999999999964e+03
2.600000000000000228e-02 6.200400000000000356e-01 1.473750000000000115e+00 6.691755000000000564e+01 1.839740000000000009e+03
2.700000000000000316e-02 6.196129999999999693e-01 1.866954999999999920e+00 6.473910000000000764e+01 1.839255000000000109e+03
2.800000000000000058e-02 6.190765000000000295e-01 1.937454999999999483e+00 6.207414999999999594e+01 1.838684999999999945e+03
2.900000000000000147e-02 6.184395000000000309e-01 1.678174999999999972e+00 5.888625000000000398e+01 1.838025000000000091e+03
3.000000000000000236e-02 6.177319999999999478e-01 1.146970000000000489e+00 5.525489999999999924e+01 1.837269999999999982e+03
3.099999999999999978e-02 6.170010000000000217e-01 4.478650000000001796e-01 5.136005000000000109e+01 1.836470000000000027e+03
3.200000000000000067e-02 6.162954999999999961e-01 -2.981300000000004502e-01 4.744055000000000177e+01 1.835644999999999982e+03
3.300000000000000155e-02 6.156584999999999974e-01 -9.806899999999996176e-01 4.374354999999999905e+01 1.834855000000000018e+03
3.400000000000000244e-02 6.151210000000000289e-01 -1.517815000000000136e+00 4.048239999999999839e+01 1.834134999999999991e+03
3.500000000000000333e-02 6.146989999999999954e-01 -1.861295000000000144e+00 3.781130000000000280e+01 1.833525000000000091e+03
3.600000000000000422e-02 6.143965000000000121e-01 -1.992350000000000065e+00 3.581900000000000261e+01 1.833039999999999964e+03
3.700000000000000511e-02 6.142115000000000213e-01 -1.911448500000000106e+00 3.453699999999999903e+01 1.832694999999999936e+03
3.799999999999999906e-02 6.141379999999999617e-01 -1.626630999999999938e+00 3.395669999999999789e+01 1.832500000000000000e+03
3.899999999999999994e-02 6.141700000000001047e-01 -1.144007500000000066e+00 3.404945000000000022e+01 1.832444999999999936e+03
4.000000000000000083e-02 6.143049999999999899e-01 -4.628949999999999454e-01 3.478220000000000312e+01 1.832525000000000091e+03
4.100000000000000172e-02 6.145404999999999340e-01 4.236699999999999910e-01 3.612595000000000312e+01 1.832744999999999891e+03
4.200000000000000261e-02 6.148744999999999905e-01 1.524189999999999712e+00 3.805580000000000496e+01 1.833090000000000146e+03
4.300000000000000350e-02 6.153055000000000607e-01 2.842165000000000497e+00 4.054484999999999673e+01 1.833559999999999945e+03
4.400000000000000439e-02 6.158250000000000668e-01 4.370425000000000004e+00 4.355630000000000024e+01 1.834144999999999982e+03
4.499999999999999833e-02 6.164235000000000131e-01 6.088230000000000253e+00 4.703679999999999950e+01 1.834829999999999927e+03
4.599999999999999922e-02 6.170854999999999535e-01 7.961433500000000052e+00 5.091420000000000101e+01 1.835610000000000127e+03
4.700000000000000011e-02 6.177939999999999543e-01 9.945850000000000080e+00 5.510014999999999930e+01 1.836460000000000036e+03
4.800000000000000100e-02 6.185294999999999543e-01 1.199216000000000015e+01 5.949609999999999843e+01 1.837375000000000000e+03
4.900000000000000189e-02 6.192765000000000075e-01 1.405156500000000008e+01 6.400230000000000530e+01 1.838320000000000164e+03
5.000000000000000278e-02 6.200189999999999868e-01 1.608024499999999790e+01 6.852670000000000528e+01 1.839285000000000082e+03
5.100000000000000366e-02 6.207460000000000200e-01 1.804310000000000258e+01 7.299259999999999593e+01 1.840244999999999891e+03
5.200000000000000455e-02 6.214515000000000455e-01 1.991539999999999822e+01 7.734354999999999336e+01 1.841200000000000045e+03
5.300000000000000544e-02 6.221315000000000595e-01 2.168244999999999933e+01 8.154570000000001073e+01 1.842130000000000109e+03
5.399999999999999939e-02 6.227865000000000206e-01 2.333890000000000242e+01 8.558669999999999334e+01 1.843034999999999854e+03
5.500000000000000028e-02 6.234200000000000852e-01 2.488670000000000115e+01 8.947325000000000728e+01 1.843910000000000082e+03
5.600000000000000117e-02 6.240369999999999528e-01 2.633305000000000007e+01 9.322575000000000500e+01 1.844755000000000109e+03
5.700000000000000205e-02 6.246424999999999894e-01 2.768844999999999956e+01 9.687520000000000664e+01 1.845590000000000146e+03
5.800000000000000294e-02 6.252419999999999645e-01 2.896459999999999724e+01 1.004564000000000021e+02 1.846400000000000091e+03
5.900000000000000383e-02 6.258420000000000094e-01 3.017329999999999757e+01 1.040038499999999999e+02 1.847210000000000036e+03
6.000000000000000472e-02 6.264460000000000583e-01 3.132435000000000258e+01 1.075475500000000011e+02 1.848009999999999991e+03
6.099999999999999867e-02 6.270569999999999755e-01 3.242479999999999762e+01 1.111094999999999970e+02 1.848819999999999936e+03
6.199999999999999956e-02 6.276744999999999131e-01 3.347775000000000034e+01 1.147005000000000052e+02 1.849630000000000109e+03
6.300000000000000044e-02 6.282969999999999944e-01 3.448229999999999507e+01 1.183179999999999978e+02 1.850445000000000164e+03
6.400000000000000133e-02 6.289219999999999811e-01 3.543349999999999511e+01 1.219484999999999957e+02 1.851269999999999982e+03
6.500000000000000222e-02 6.295439999999999925e-01 3.632330000000000325e+01 1.255679999999999978e+02 1.852090000000000146e+03
6.600000000000000311e-02 6.301559999999999384e-01 3.714144999999999897e+01 1.291434999999999889e+02 1.852894999999999982e+03
6.700000000000000400e-02 6.307525000000000492e-01 3.787675000000000125e+01 1.326365000000000123e+02 1.853690000000000055e+03
6.800000000000000488e-02 6.313260000000000538e-01 3.851824999999999477e+01 1.360090000000000146e+02 1.854465000000000146e+03
6.900000000000000577e-02 6.318710000000000715e-01 3.905624999999999858e+01 1.392224999999999966e+02 1.855204999999999927e+03
7.000000000000000666e-02 6.323819999999999997e-01 3.948250000000000171e+01 1.422429999999999950e+02 1.855910000000000082e+03
7.100000000000000755e-02 6.328555000000000152e-01 3.979135000000000133e+01 1.450434999999999945e+02 1.856569999999999936e+03
7.200000000000000844e-02 6.332875000000000032e-01 3.997919999999999874e+01 1.476009999999999991e+02 1.857175000000000182e+03
7.300000000000000933e-02 6.336764999999999759e-01 4.004484999999999673e+01 1.499019999999999868e+02 1.857730000000000018e+03
7.399999999999999634e-02 6.340215000000000156e-01 3.998969999999999914e+01 1.519384999999999764e+02 1.858224999999999909e+03
7.499999999999999722e-02 6.343235000000000401e-01 3.981740000000000634e+01 1.537110000000000127e+02 1.858659999999999854e+03
7.599999999999999811e-02 6.345830000000000082e-01 3.953435000000000343e+01 1.552255000000000109e+02 1.859045000000000073e+03
7.699999999999999900e-02 6.348024999999999363e-01 3.914929999999999666e+01 1.564954999999999927e+02 1.859369999999999891e+03
7.799999999999999989e-02 6.349854999999999805e-01 3.867350000000000421e+01 1.575395000000000039e+02 1.859644999999999982e+03
7.900000000000000078e-02 6.351364999999999927e-01 3.812030000000000030e+01 1.583820000000000050e+02 1.859880000000000109e+03
8.000000000000000167e-02 6.352605000000000057e-01 3.750464999999999804e+01 1.590504999999999995e+02 1.860065000000000055e+03
8.100000000000000255e-02 6.353619999999999823e-01 3.684244999999999948e+01 1.595765000000000100e+02 1.860220000000000027e+03
8.200000000000000344e-02 6.354459999999999553e-01 3.614990000000000236e+01 1.599909999999999854e+02 1.860339999999999918e+03
8.300000000000000433e-02 6.355189999999999451e-01 3.544230000000000302e+01 1.603249999999999886e+02 1.860440000000000055e+03
8.400000000000000522e-02 6.355844999999999967e-01 3.473340000000000316e+01 1.606075000000000159e+02 1.860525000000000091e+03
8.500000000000000611e-02 6.356459999999999333e-01 3.403459999999999752e+01 1.608609999999999900e+02 1.860594999999999800e+03
8.600000000000000699e-02 6.357055000000000344e-01 3.335450000000000159e+01 1.611050000000000182e+02 1.860664999999999964e+03
8.700000000000000788e-02 6.357654999999999834e-01 3.269834999999999781e+01 1.613500000000000227e+02 1.860724999999999909e+03
8.800000000000000877e-02 6.358254999999999324e-01 3.206819999999999737e+01 1.616020000000000039e+02 1.860784999999999854e+03
8.899999999999999578e-02 6.358844999999999636e-01 3.146320000000000050e+01 1.618595000000000255e+02 1.860849999999999909e+03
8.999999999999999667e-02 6.359410000000000895e-01 3.087975000000000136e+01 1.621140000000000043e+02 1.860909999999999854e+03
9.099999999999999756e-02 6.359930000000000305e-01 3.031224999999999881e+01 1.623545000000000016e+02 1.860965000000000146e+03
9.199999999999999845e-02 6.360369999999999635e-01 2.975359999999999872e+01 1.625654999999999859e+02 1.861009999999999991e+03
9.299999999999999933e-02 6.360715000000000119e-01 2.919590000000000174e+01 1.627289999999999850e+02 1.861049999999999955e+03
9.400000000000000022e-02 6.360915000000000319e-01 2.863100000000000023e+01 1.628274999999999864e+02 1.861079999999999927e+03
9.500000000000000111e-02 6.360959999999999948e-01 2.805114999999999981e+01 1.628449999999999989e+02 1.861085000000000036e+03
9.600000000000000200e-02 6.360829999999999540e-01 2.744950000000000045e+01 1.627655000000000030e+02 1.861075000000000045e+03
9.700000000000000289e-02 6.360495000000000454e-01 2.682045000000000101e+01 1.625794999999999959e+02 1.861045000000000073e+03
9.800000000000000377e-02 6.359960000000000058e-01 2.616044999999999732e+01 1.622780000000000200e+02 1.860985000000000127e+03
9.900000000000000466e-02 6.359219999999999873e-01 2.546794999999999831e+01 1.618594999999999970e+02 1.860905000000000200e+03
1.000000000000000056e-01 6.358285000000000187e-01 2.474370000000000047e+01 1.613269999999999982e+02 1.860799999999999955e+03
1.010000000000000064e-01 6.357174999999999354e-01 2.399074999999999847e+01 1.606879999999999882e+02 1.860670000000000073e+03
1.020000000000000073e-01 6.355914999999999759e-01 2.321460000000000079e+01 1.599560000000000173e+02 1.860525000000000091e+03
1.030000000000000082e-01 6.354534999999998934e-01 2.242275000000000063e+01 1.591479999999999961e+02 1.860355000000000018e+03
1.040000000000000091e-01 6.353085000000000537e-01 2.162440000000000140e+01 1.582860000000000014e+02 1.860175000000000182e+03
1.050000000000000100e-01 6.351594999999999880e-01 2.082989999999999853e+01 1.573940000000000055e+02 1.859980000000000018e+03
1.059999999999999970e-01 6.350115000000000620e-01 2.005035000000000167e+01 1.564964999999999975e+02 1.859789999999999964e+03
1.069999999999999979e-01 6.348679999999999879e-01 1.929700000000000060e+01 1.556200000000000045e+02 1.859599999999999909e+03
1.079999999999999988e-01 6.347344999999999793e-01 1.858044999999999902e+01 1.547884999999999991e+02 1.859414999999999964e+03
1.089999999999999997e-01 6.346134999999999415e-01 1.791039999999999921e+01 1.540235000000000127e+02 1.859244999999999891e+03
1.100000000000000006e-01 6.345075000000000021e-01 1.729489999999999839e+01 1.533445000000000107e+02 1.859085000000000036e+03
1.110000000000000014e-01 6.344189999999999552e-01 1.674019999999999797e+01 1.527655000000000030e+02 1.858944999999999936e+03
1.120000000000000023e-01 6.343499999999999694e-01 1.625035000000000096e+01 1.522955000000000041e+02 1.858829999999999927e+03
1.130000000000000032e-01 6.342989999999999462e-01 1.582695000000000007e+01 1.519379999999999882e+02 1.858735000000000127e+03
1.140000000000000041e-01 6.342664999999999553e-01 1.546950000000000003e+01 1.516929999999999836e+02 1.858664999999999964e+03
1.150000000000000050e-01 6.342514999999999681e-01 1.517539999999999978e+01 1.515544999999999902e+02 1.858615000000000009e+03
1.160000000000000059e-01 6.342514999999999681e-01 1.494004999999999939e+01 1.515129999999999768e+02 1.858590000000000146e+03
1.170000000000000068e-01 6.342639999999999390e-01 1.475779999999999959e+01 1.515550000000000068e+02 1.858579999999999927e+03
1.180000000000000077e-01 6.342864999999999753e-01 1.462154999999999916e+01 1.516664999999999850e+02 1.858590000000000146e+03
1.190000000000000085e-01 6.343170000000000197e-01 1.452404999999999902e+01 1.518310000000000173e+02 1.858615000000000009e+03
1.200000000000000094e-01 6.343520000000000270e-01 1.445774999999999899e+01 1.520330000000000155e+02 1.858644999999999982e+03
1.209999999999999964e-01 6.343894999999999396e-01 1.441525000000000034e+01 1.522570000000000050e+02 1.858684999999999945e+03
1.219999999999999973e-01 6.344279999999999919e-01 1.438985000000000092e+01 1.524900000000000091e+02 1.858724999999999909e+03
1.229999999999999982e-01 6.344644999999999868e-01 1.437545000000000073e+01 1.527204999999999870e+02 1.858769999999999982e+03
1.239999999999999991e-01 6.344994999999999941e-01 1.436690000000000111e+01 1.529399999999999977e+02 1.858815000000000055e+03
1.250000000000000000e-01 6.345304999999999973e-01 1.435995000000000132e+01 1.531419999999999959e+02 1.858860000000000127e+03
1.260000000000000009e-01 6.345579999999999554e-01 1.435144999999999982e+01 1.533224999999999909e+02 1.858894999999999982e+03
1.270000000000000018e-01 6.345815000000000206e-01 1.433890000000000065e+01 1.534795000000000016e+02 1.858930000000000064e+03
1.280000000000000027e-01 6.346015000000000406e-01 1.432094999999999985e+01 1.536140000000000043e+02 1.858960000000000036e+03
1.290000000000000036e-01 6.346180000000000154e-01 1.429684999999999917e+01 1.537270000000000039e+02 1.858985000000000127e+03
1.300000000000000044e-01 6.346325000000000438e-01 1.426660000000000039e+01 1.538224999999999909e+02 1.859009999999999991e+03
1.310000000000000053e-01 6.346445000000000558e-01 1.423085000000000022e+01 1.539035000000000082e+02 1.859029999999999973e+03
1.320000000000000062e-01 6.346555000000000391e-01 1.419059999999999988e+01 1.539759999999999991e+02 1.859045000000000073e+03
1.330000000000000071e-01 6.346665000000000223e-01 1.414724999999999966e+01 1.540434999999999945e+02 1.859059999999999945e+03
1.340000000000000080e-01 6.346775000000000055e-01 1.410239999999999938e+01 1.541120000000000232e+02 1.859079999999999927e+03
1.350000000000000089e-01 6.346905000000000463e-01 1.405760000000000076e+01 1.541845000000000141e+02 1.859095000000000027e+03
1.360000000000000098e-01 6.347049999999999637e-01 1.401445000000000007e+01 1.542665000000000077e+02 1.859115000000000009e+03
1.370000000000000107e-01 6.347220000000000084e-01 1.397414999999999985e+01 1.543594999999999970e+02 1.859134999999999991e+03
1.380000000000000115e-01 6.347409999999999997e-01 1.393775000000000119e+01 1.544660000000000082e+02 1.859159999999999854e+03
1.390000000000000124e-01 6.347629999999999661e-01 1.390579999999999927e+01 1.545869999999999891e+02 1.859184999999999945e+03
1.400000000000000133e-01 6.347875000000000600e-01 1.387850000000000072e+01 1.547210000000000036e+02 1.859215000000000146e+03
1.410000000000000142e-01 6.348134999999999195e-01 1.385559999999999903e+01 1.548684999999999832e+02 1.859250000000000000e+03
1.420000000000000151e-01 6.348409999999999886e-01 1.383660000000000068e+01 1.550260000000000105e+02 1.859279999999999973e+03
1.430000000000000160e-01 6.348705000000000043e-01 1.382065000000000055e+01 1.551910000000000025e+02 1.859320000000000164e+03
1.440000000000000169e-01 6.348994999999999500e-01 1.380679999999999907e+01 1.553605000000000018e+02 1.859355000000000018e+03
1.450000000000000178e-01 6.349294999999999245e-01 1.379415000000000013e+01 1.555300000000000011e+02 1.859394999999999982e+03
1.459999999999999909e-01 6.349579999999999114e-01 1.378180000000000049e+01 1.556980000000000075e+02 1.859429999999999836e+03
1.469999999999999918e-01 6.349860000000000504e-01 1.376914999999999978e+01 1.558620000000000232e+02 1.859470000000000027e+03
1.479999999999999927e-01 6.350130000000000496e-01 1.375584999999999880e+01 1.560194999999999936e+02 1.859505000000000109e+03
1.489999999999999936e-01 6.350384999999999502e-01 1.374194999999999922e+01 1.561705000000000041e+02 1.859539999999999964e+03
1.499999999999999944e-01 6.350635000000000030e-01 1.372780000000000022e+01 1.563154999999999859e+02 1.859570000000000164e+03
1.509999999999999953e-01 6.350875000000000270e-01 1.371399999999999864e+01 1.564555000000000007e+02 1.859599999999999909e+03
1.519999999999999962e-01 6.351109999999999811e-01 1.370154999999999923e+01 1.565930000000000177e+02 1.859630000000000109e+03
1.529999999999999971e-01 6.351350000000000051e-01 1.369164999999999921e+01 1.567314999999999827e+02 1.859664999999999964e+03
1.539999999999999980e-01 6.351605000000000167e-01 1.368554999999999922e+01 1.568740000000000236e+02 1.859694999999999936e+03
1.549999999999999989e-01 6.351869999999999461e-01 1.368465000000000131e+01 1.570235000000000127e+02 1.859730000000000018e+03
1.559999999999999998e-01 6.352154999999999330e-01 1.369024999999999892e+01 1.571854999999999905e+02 1.859764999999999873e+03
1.570000000000000007e-01 6.352470000000000061e-01 1.370364999999999966e+01 1.573625000000000114e+02 1.859799999999999955e+03
1.580000000000000016e-01 6.352820000000000134e-01 1.372595000000000098e+01 1.575589999999999975e+02 1.859845000000000027e+03
1.590000000000000024e-01 6.353210000000000246e-01 1.375799999999999912e+01 1.577769999999999868e+02 1.859889999999999873e+03
