# t [s], A [cm^2], U [cm/s], P [cPa], c [cm/s]
1.000000000000000021e-03 2.122390000000000110e-01 4.326443499999999553e-01 1.028769999999999953e+02 2.177975000000000364e+03
2.000000000000000042e-03 2.121560000000000112e-01 2.232016999999999918e+00 9.873734999999999218e+01 2.177414999999999964e+03
3.000000000000000062e-03 2.119619999999999838e-01 4.429726999999999748e+00 9.301769999999999072e+01 2.176154999999999745e+03
4.000000000000000083e-03 2.117165000000000019e-01 6.905219999999999914e+00 8.717945000000000277e+01 2.174579999999999927e+03
5.000000000000000104e-03 2.114709999999999923e-01 9.513534999999999187e+00 8.234935000000000116e+01 2.173015000000000327e+03
6.000000000000000125e-03 2.112449999999999883e-01 1.193322500000000019e+01 7.853249999999999886e+01 2.171605000000000018e+03
7.000000000000000146e-03 2.110389999999999766e-01 1.391790500000000108e+01 7.520085000000000264e+01 2.170345000000000255e+03
8.000000000000000167e-03 2.108599999999999919e-01 1.549194999999999922e+01 7.229850000000000421e+01 2.169269999999999982e+03
9.000000000000001055e-03 2.107134999999999980e-01 1.673164999999999836e+01 7.000199999999999534e+01 2.168400000000000091e+03
1.000000000000000194e-02 2.105985000000000218e-01 1.766760000000000019e+01 6.829560000000000741e+01 2.167730000000000018e+03
1.099999999999999936e-02 2.105139999999999789e-01 1.833800000000000097e+01 6.710694999999999766e+01 2.167239999999999782e+03
1.200000000000000025e-02 2.104530000000000012e-01 1.876429999999999865e+01 6.632085000000000719e+01 2.166904999999999745e+03
1.300000000000000114e-02 2.104090000000000127e-01 1.895479999999999876e+01 6.574184999999999945e+01 2.166664999999999964e+03
1.400000000000000203e-02 2.103774999999999951e-01 1.900050000000000239e+01 6.534440000000000737e+01 2.166505000000000109e+03
1.499999999999999944e-02 2.103679999999999994e-01 1.911574999999999847e+01 6.551205000000000211e+01 2.166465000000000146e+03
1.600000000000000033e-02 2.103970000000000007e-01 1.953020000000000067e+01 6.684924999999999784e+01 2.166649999999999636e+03
1.700000000000000122e-02 2.104774999999999840e-01 2.032629999999999981e+01 6.968154999999998722e+01 2.167130000000000109e+03
1.800000000000000211e-02 2.106060000000000154e-01 2.136410000000000053e+01 7.368959999999999866e+01 2.167889999999999873e+03
1.900000000000000300e-02 2.107574999999999865e-01 2.234020000000000294e+01 7.795124999999998749e+01 2.168804999999999836e+03
2.000000000000000042e-02 2.108984999999999888e-01 2.292999999999999972e+01 8.133240000000000691e+01 2.169670000000000073e+03
2.100000000000000130e-02 2.109965000000000035e-01 2.293009999999999948e+01 8.297910000000000252e+01 2.170289999999999964e+03
2.200000000000000219e-02 2.110339999999999994e-01 2.233405000000000129e+01 8.265819999999999368e+01 2.170554999999999836e+03
2.299999999999999961e-02 2.110140000000000071e-01 2.131459999999999866e+01 8.079985000000000639e+01 2.170465000000000146e+03
2.400000000000000050e-02 2.109555000000000180e-01 2.012989999999999924e+01 7.824774999999999636e+01 2.170130000000000109e+03
2.500000000000000139e-02 2.108840000000000159e-01 1.900755000000000194e+01 7.586435000000000173e+01 2.169710000000000036e+03
2.600000000000000228e-02 2.108209999999999806e-01 1.806275000000000119e+01 7.419159999999999400e+01 2.169324999999999818e+03
2.700000000000000316e-02 2.107764999999999778e-01 1.727819999999999823e+01 7.330355000000000132e+01 2.169045000000000073e+03
2.800000000000000058e-02 2.107475000000000043e-01 1.654299999999999926e+01 7.287659999999999627e+01 2.168864999999999782e+03
2.900000000000000147e-02 2.107219999999999926e-01 1.572200000000000131e+01 7.240614999999999668e+01 2.168710000000000036e+03
3.000000000000000236e-02 2.106874999999999998e-01 1.472749999999999915e+01 7.146469999999999345e+01 2.168505000000000109e+03
3.099999999999999978e-02 2.106355000000000033e-01 1.356620000000000026e+01 6.990354999999999563e+01 2.168199999999999818e+03
3.200000000000000067e-02 2.105679999999999774e-01 1.234809999999999874e+01 6.793184999999999718e+01 2.167805000000000291e+03
3.300000000000000155e-02 2.104964999999999753e-01 1.125332500000000024e+01 6.604990000000000805e+01 2.167375000000000000e+03
3.400000000000000244e-02 2.104400000000000159e-01 1.047146499999999847e+01 6.486655000000000371e+01 2.167025000000000091e+03
3.500000000000000333e-02 2.104159999999999919e-01 1.013621499999999997e+01 6.487505000000000166e+01 2.166864999999999782e+03
3.600000000000000422e-02 2.104364999999999986e-01 1.028054999999999986e+01 6.627400000000000091e+01 2.166965000000000146e+03
3.700000000000000511e-02 2.105029999999999957e-01 1.082518999999999920e+01 6.889355000000000473e+01 2.167340000000000146e+03
3.799999999999999906e-02 2.106045000000000000e-01 1.159994999999999976e+01 7.223919999999999675e+01 2.167925000000000182e+03
3.899999999999999994e-02 2.107215000000000060e-01 1.238644999999999996e+01 7.562409999999999854e+01 2.168625000000000000e+03
4.000000000000000083e-02 2.108315000000000050e-01 1.296659999999999968e+01 7.833674999999999500e+01 2.169284999999999854e+03
4.100000000000000172e-02 2.109115000000000018e-01 1.316345000000000098e+01 7.979349999999999454e+01 2.169779999999999745e+03
4.200000000000000261e-02 2.109439999999999926e-01 1.286700000000000088e+01 7.963994999999999891e+01 2.169989999999999782e+03
4.300000000000000350e-02 2.109189999999999954e-01 1.204175000000000040e+01 7.778565000000000396e+01 2.169860000000000127e+03
4.400000000000000439e-02 2.108344999999999803e-01 1.071818000000000026e+01 7.437735000000000696e+01 2.169380000000000109e+03
4.499999999999999833e-02 2.106975000000000098e-01 8.974759999999999849e+00 6.972979999999999734e+01 2.168565000000000055e+03
4.599999999999999922e-02 2.105175000000000241e-01 6.916515000000000413e+00 6.423969999999999914e+01 2.167500000000000000e+03
4.700000000000000011e-02 2.103079999999999949e-01 4.656515500000000252e+00 5.830949999999999989e+01 2.166244999999999891e+03
4.800000000000000100e-02 2.100819999999999910e-01 2.304109999999999658e+00 5.229590000000000316e+01 2.164889999999999873e+03
4.900000000000000189e-02 2.098519999999999830e-01 -4.025999999999996248e-02 4.648870000000000147e+01 2.163500000000000000e+03
5.000000000000000278e-02 2.096284999999999954e-01 -2.284629999999999939e+00 4.111525000000000318e+01 2.162154999999999745e+03
5.100000000000000366e-02 2.094199999999999950e-01 -4.342737500000000139e+00 3.635820000000000363e+01 2.160894999999999982e+03
5.200000000000000455e-02 2.092355000000000187e-01 -6.131550000000000722e+00 3.237669999999999959e+01 2.159764999999999873e+03
5.300000000000000544e-02 2.090799999999999881e-01 -7.570940000000000225e+00 2.932000000000000028e+01 2.158815000000000055e+03
5.399999999999999939e-02 2.089620000000000088e-01 -8.586394999999999555e+00 2.733039999999999736e+01 2.158085000000000036e+03
5.500000000000000028e-02 2.088865000000000027e-01 -9.113959999999998729e+00 2.653450000000000131e+01 2.157605000000000018e+03
5.600000000000000117e-02 2.088575000000000015e-01 -9.106700000000000017e+00 2.702714999999999890e+01 2.157404999999999745e+03
5.700000000000000205e-02 2.088800000000000101e-01 -8.540440000000000254e+00 2.885379999999999967e+01 2.157505000000000109e+03
5.800000000000000294e-02 2.089540000000000008e-01 -7.417550000000000310e+00 3.199680000000000035e+01 2.157914999999999964e+03
5.900000000000000383e-02 2.090790000000000148e-01 -5.767799999999999372e+00 3.636990000000000123e+01 2.158640000000000327e+03
6.000000000000000472e-02 2.092515000000000069e-01 -3.646090500000000123e+00 4.182305000000000206e+01 2.159649999999999636e+03
6.099999999999999867e-02 2.094650000000000123e-01 -1.127755000000000063e+00 4.815484999999999616e+01 2.160904999999999745e+03
6.199999999999999956e-02 2.097114999999999951e-01 1.697595000000000187e+00 5.513129999999999598e+01 2.162375000000000000e+03
6.300000000000000044e-02 2.099840000000000040e-01 4.732450000000000045e+00 6.250499999999999545e+01 2.164000000000000000e+03
6.400000000000000133e-02 2.102715000000000001e-01 7.877369999999999983e+00 7.003289999999999793e+01 2.165730000000000018e+03
6.500000000000000222e-02 2.105660000000000032e-01 1.103595999999999933e+01 7.749035000000000650e+01 2.167510000000000218e+03
6.600000000000000311e-02 2.108595000000000053e-01 1.411902999999999864e+01 8.468099999999999739e+01 2.169284999999999854e+03
6.700000000000000400e-02 2.111434999999999840e-01 1.704840000000000089e+01 9.144474999999999909e+01 2.171015000000000327e+03
6.800000000000000488e-02 2.114125000000000032e-01 1.975999999999999801e+01 9.766174999999999784e+01 2.172659999999999854e+03
6.900000000000000577e-02 2.116620000000000168e-01 2.220674999999999955e+01 1.032593999999999994e+02 2.174194999999999709e+03
7.000000000000000666e-02 2.118895000000000084e-01 2.436039999999999850e+01 1.082111000000000018e+02 2.175599999999999909e+03
7.100000000000000755e-02 2.120930000000000037e-01 2.621235000000000070e+01 1.125384999999999991e+02 2.176869999999999891e+03
7.200000000000000844e-02 2.122745000000000049e-01 2.777309999999999945e+01 1.163089999999999975e+02 2.177994999999999891e+03
7.300000000000000933e-02 2.124365000000000003e-01 2.906965000000000288e+01 1.196250000000000000e+02 2.179010000000000218e+03
7.399999999999999634e-02 2.125825000000000076e-01 3.014239999999999853e+01 1.226140000000000043e+02 2.179925000000000182e+03
7.499999999999999722e-02 2.127165000000000028e-01 3.103979999999999961e+01 1.254170000000000016e+02 2.180765000000000327e+03
7.599999999999999811e-02 2.128444999999999920e-01 3.181349999999999767e+01 1.281715000000000089e+02 2.181569999999999709e+03
7.699999999999999900e-02 2.129705000000000070e-01 3.251339999999999719e+01 1.310004999999999882e+02 2.182355000000000018e+03
7.799999999999999989e-02 2.130994999999999973e-01 3.318290000000000362e+01 1.339995000000000118e+02 2.183159999999999854e+03
7.900000000000000078e-02 2.132344999999999935e-01 3.385585000000000377e+01 1.372300000000000182e+02 2.183994999999999891e+03
8.000000000000000167e-02 2.133770000000000111e-01 3.455389999999999873e+01 1.407175000000000011e+02 2.184880000000000109e+03
8.100000000000000255e-02 2.135285000000000100e-01 3.528614999999999924e+01 1.444470000000000027e+02 2.185814999999999600e+03
8.200000000000000344e-02 2.136879999999999891e-01 3.604885000000000161e+01 1.483725000000000023e+02 2.186795000000000073e+03
8.300000000000000433e-02 2.138535000000000019e-01 3.682710000000000150e+01 1.524184999999999945e+02 2.187819999999999709e+03
8.400000000000000522e-02 2.140219999999999900e-01 3.759645000000000437e+01 1.564890000000000043e+02 2.188859999999999673e+03
8.500000000000000611e-02 2.141899999999999915e-01 3.832614999999999839e+01 1.604764999999999873e+02 2.189899999999999636e+03
8.600000000000000699e-02 2.143535000000000024e-01 3.898120000000000118e+01 1.642710000000000150e+02 2.190909999999999854e+03
8.700000000000000788e-02 2.145090000000000052e-01 3.952575000000000216e+01 1.677655000000000030e+02 2.191875000000000000e+03
8.800000000000000877e-02 2.146520000000000095e-01 3.992560000000000286e+01 1.708645000000000209e+02 2.192760000000000218e+03
8.899999999999999578e-02 2.147784999999999833e-01 4.015070000000000050e+01 1.734890000000000043e+02 2.193555000000000291e+03
8.999999999999999667e-02 2.148864999999999803e-01 4.017705000000000126e+01 1.755805000000000007e+02 2.194230000000000018e+03
9.099999999999999756e-02 2.149725000000000108e-01 3.998825000000000074e+01 1.771034999999999968e+02 2.194780000000000200e+03
9.199999999999999845e-02 2.150374999999999925e-01 3.957685000000000031e+01 1.780464999999999804e+02 2.195190000000000055e+03
9.299999999999999933e-02 2.150794999999999790e-01 3.894405000000000427e+01 1.784219999999999970e+02 2.195465000000000146e+03
9.400000000000000022e-02 2.150989999999999847e-01 3.810020000000000095e+01 1.782655000000000030e+02 2.195599999999999909e+03
9.500000000000000111e-02 2.150980000000000114e-01 3.706360000000000099e+01 1.776285000000000025e+02 2.195609999999999673e+03
9.600000000000000200e-02 2.150779999999999914e-01 3.585965000000000202e+01 1.765805000000000007e+02 2.195500000000000000e+03
9.700000000000000289e-02 2.150424999999999975e-01 3.451919999999999789e+01 1.751995000000000005e+02 2.195289999999999964e+03
9.800000000000000377e-02 2.149929999999999897e-01 3.307674999999999699e+01 1.735720000000000027e+02 2.194994999999999891e+03
9.900000000000000466e-02 2.149340000000000139e-01 3.156895000000000095e+01 1.717839999999999918e+02 2.194635000000000218e+03
1.000000000000000056e-01 2.148680000000000034e-01 3.003260000000000218e+01 1.699199999999999875e+02 2.194239999999999782e+03
1.010000000000000064e-01 2.147990000000000177e-01 2.850305000000000177e+01 1.680579999999999927e+02 2.193815000000000055e+03
1.020000000000000073e-01 2.147290000000000032e-01 2.701285000000000025e+01 1.662684999999999889e+02 2.193385000000000218e+03
1.030000000000000082e-01 2.146609999999999907e-01 2.559025000000000105e+01 1.646080000000000041e+02 2.192965000000000146e+03
1.040000000000000091e-01 2.145980000000000110e-01 2.425835000000000008e+01 1.631210000000000093e+02 2.192569999999999709e+03
1.050000000000000100e-01 2.145404999999999951e-01 2.303415000000000035e+01 1.618380000000000223e+02 2.192210000000000036e+03
1.059999999999999970e-01 2.144905000000000006e-01 2.192784999999999940e+01 1.607719999999999914e+02 2.191894999999999982e+03
1.069999999999999979e-01 2.144475000000000131e-01 2.094315000000000282e+01 1.599209999999999923e+02 2.191625000000000000e+03
1.079999999999999988e-01 2.144130000000000202e-01 2.007665000000000077e+01 1.592680000000000007e+02 2.191404999999999745e+03
1.089999999999999997e-01 2.143849999999999922e-01 1.931875000000000142e+01 1.587835000000000036e+02 2.191220000000000255e+03
1.100000000000000006e-01 2.143629999999999980e-01 1.865464999999999662e+01 1.584234999999999900e+02 2.191079999999999927e+03
1.110000000000000014e-01 2.143450000000000077e-01 1.806465000000000032e+01 1.581370000000000005e+02 2.190960000000000036e+03
1.120000000000000023e-01 2.143299999999999927e-01 1.752635000000000076e+01 1.578670000000000186e+02 2.190855000000000018e+03
1.130000000000000032e-01 2.143150000000000055e-01 1.701545000000000130e+01 1.575534999999999854e+02 2.190760000000000218e+03
1.140000000000000041e-01 2.142975000000000019e-01 1.650754999999999839e+01 1.571409999999999911e+02 2.190644999999999982e+03
1.150000000000000050e-01 2.142760000000000220e-01 1.598000000000000043e+01 1.565765000000000100e+02 2.190510000000000218e+03
1.160000000000000059e-01 2.142490000000000228e-01 1.541254999999999953e+01 1.558190000000000168e+02 2.190345000000000255e+03
1.170000000000000068e-01 2.142140000000000155e-01 1.478940000000000055e+01 1.548354999999999961e+02 2.190130000000000109e+03
1.180000000000000077e-01 2.141710000000000003e-01 1.409970000000000034e+01 1.536105000000000018e+02 2.189860000000000127e+03
1.190000000000000085e-01 2.141180000000000028e-01 1.333830000000000027e+01 1.521410000000000196e+02 2.189539999999999964e+03
1.200000000000000094e-01 2.140565000000000107e-01 1.250614999999999988e+01 1.504404999999999859e+02 2.189164999999999964e+03
1.209999999999999964e-01 2.139865000000000239e-01 1.161018999999999934e+01 1.485369999999999777e+02 2.188735000000000127e+03
1.219999999999999973e-01 2.139079999999999870e-01 1.066281999999999996e+01 1.464699999999999989e+02 2.188255000000000109e+03
1.229999999999999982e-01 2.138240000000000141e-01 9.681079999999999686e+00 1.442909999999999968e+02 2.187739999999999782e+03
1.239999999999999991e-01 2.137364999999999959e-01 8.685650000000000759e+00 1.420585000000000093e+02 2.187199999999999818e+03
1.250000000000000000e-01 2.136465000000000169e-01 7.699405000000000499e+00 1.398335000000000150e+02 2.186654999999999745e+03
1.260000000000000009e-01 2.135575000000000112e-01 6.746175000000000033e+00 1.376779999999999973e+02 2.186105000000000018e+03
1.270000000000000018e-01 2.134714999999999807e-01 5.849269999999999747e+00 1.356510000000000105e+02 2.185569999999999709e+03
1.280000000000000027e-01 2.133899999999999963e-01 5.030120000000000147e+00 1.338040000000000020e+02 2.185069999999999709e+03
1.290000000000000036e-01 2.133160000000000056e-01 4.307140000000000413e+00 1.321790000000000020e+02 2.184610000000000127e+03
1.300000000000000044e-01 2.132499999999999951e-01 3.694809999999999484e+00 1.308079999999999927e+02 2.184194999999999709e+03
1.310000000000000053e-01 2.131945000000000090e-01 3.202989999999999782e+00 1.297100000000000080e+02 2.183850000000000364e+03
1.320000000000000062e-01 2.131490000000000051e-01 2.836580000000000101e+00 1.288905000000000030e+02 2.183559999999999945e+03
1.330000000000000071e-01 2.131145000000000123e-01 2.595425000000000093e+00 1.283435000000000059e+02 2.183340000000000146e+03
1.340000000000000080e-01 2.130900000000000016e-01 2.474509999999999987e+00 1.280515000000000043e+02 2.183179999999999836e+03
1.350000000000000089e-01 2.130755000000000010e-01 2.464439999999999742e+00 1.279869999999999948e+02 2.183085000000000036e+03
1.360000000000000098e-01 2.130699999999999816e-01 2.552039999999999864e+00 1.281150000000000091e+02 2.183039999999999964e+03
1.370000000000000107e-01 2.130710000000000104e-01 2.721189999999999998e+00 1.283934999999999889e+02 2.183045000000000073e+03
1.380000000000000115e-01 2.130785000000000040e-01 2.953644999999999854e+00 1.287779999999999916e+02 2.183079999999999927e+03
1.390000000000000124e-01 2.130905000000000160e-01 3.230019999999999669e+00 1.292239999999999895e+02 2.183144999999999982e+03
1.400000000000000133e-01 2.131049999999999889e-01 3.530619999999999870e+00 1.296864999999999952e+02 2.183230000000000018e+03
1.410000000000000142e-01 2.131199999999999761e-01 3.836349999999999927e+00 1.301234999999999786e+02 2.183314999999999600e+03
1.420000000000000151e-01 2.131339999999999901e-01 4.129469999999999530e+00 1.304979999999999905e+02 2.183404999999999745e+03
1.430000000000000160e-01 2.131460000000000021e-01 4.394244999999999735e+00 1.307785000000000082e+02 2.183480000000000018e+03
1.440000000000000169e-01 2.131549999999999834e-01 4.617504999999999526e+00 1.309404999999999859e+02 2.183534999999999854e+03
1.450000000000000178e-01 2.131589999999999874e-01 4.789030000000000342e+00 1.309664999999999964e+02 2.183559999999999945e+03
1.459999999999999909e-01 2.131580000000000141e-01 4.901804999999999524e+00 1.308469999999999800e+02 2.183559999999999945e+03
1.469999999999999918e-01 2.131520000000000081e-01 4.952125000000000554e+00 1.305805000000000007e+02 2.183524999999999636e+03
1.479999999999999927e-01 2.131405000000000105e-01 4.939494999999999969e+00 1.301709999999999923e+02 2.183454999999999927e+03
1.489999999999999936e-01 2.131234999999999935e-01 4.866469999999999629e+00 1.296304999999999836e+02 2.183355000000000018e+03
1.499999999999999944e-01 2.131020000000000136e-01 4.738250000000000739e+00 1.289759999999999991e+02 2.183225000000000364e+03
1.509999999999999953e-01 2.130755000000000010e-01 4.562224999999999753e+00 1.282274999999999920e+02 2.183069999999999709e+03
1.519999999999999962e-01 2.130460000000000131e-01 4.347414999999999807e+00 1.274090000000000060e+02 2.182889999999999873e+03
1.529999999999999971e-01 2.130139999999999811e-01 4.103849999999999554e+00 1.265455000000000041e+02 2.182694999999999709e+03
1.539999999999999980e-01 2.129800000000000026e-01 3.841924999999999812e+00 1.256604999999999990e+02 2.182484999999999673e+03
1.549999999999999989e-01 2.129444999999999810e-01 3.571835000000000093e+00 1.247770000000000010e+02 2.182280000000000200e+03
1.559999999999999998e-01 2.129099999999999882e-01 3.303015000000000256e+00 1.239140000000000015e+02 2.182065000000000055e+03
1.570000000000000007e-01 2.128754999999999953e-01 3.043705000000000105e+00 1.230879999999999939e+02 2.181855000000000018e+03
1.580000000000000016e-01 2.128420000000000034e-01 2.800640000000000018e+00 1.223100000000000023e+02 2.181650000000000091e+03
1.590000000000000024e-01 2.128105000000000135e-01 2.578869999999999774e+00 1.215879999999999939e+02 2.181454999999999927e+03
