# t [s], A [cm^2], U [cm/s], P [cPa], c [cm/s]
1.000000000000000021e-03 7.357744999999999980e-01 5.482649999999998636e-03 9.890279999999999916e+01 1.610715000000000146e+03
2.000000000000000042e-03 7.357614999999999572e-01 -3.214789999999999922e-03 9.887319999999999709e+01 1.610710000000000036e+03
3.000000000000000062e-03 7.358244999999999925e-01 9.247334999999998195e-02 9.897424999999999784e+01 1.610730000000000018e+03
4.000000000000000083e-03 7.358824999999999950e-01 1.925960500000000186e-01 9.909595000000000198e+01 1.610759999999999991e+03
5.000000000000000104e-03 7.358500000000000041e-01 1.686090500000000103e-01 9.903640000000000043e+01 1.610750000000000000e+03
6.000000000000000125e-03 7.357674999999999077e-01 6.445000000000000728e-02 9.880554999999999666e+01 1.610704999999999927e+03
7.000000000000000146e-03 7.356970000000000454e-01 -2.987349999999999728e-02 9.851945000000000618e+01 1.610644999999999982e+03
8.000000000000000167e-03 7.355895000000000072e-01 -1.931899999999999729e-01 9.810415000000000418e+01 1.610555000000000064e+03
9.000000000000001055e-03 7.354080000000000616e-01 -4.866350000000000398e-01 9.746260000000000900e+01 1.610424999999999955e+03
1.000000000000000194e-02 7.351529999999999454e-01 -9.070449999999999902e-01 9.655885000000000673e+01 1.610244999999999891e+03
1.099999999999999936e-02 7.348049999999999304e-01 -1.472265000000000157e+00 9.533240000000000691e+01 1.609985000000000127e+03
1.200000000000000025e-02 7.343465000000000131e-01 -2.191500000000000004e+00 9.372554999999999836e+01 1.609650000000000091e+03
1.300000000000000114e-02 7.338100000000000733e-01 -2.991150000000000198e+00 9.178605000000000302e+01 1.609234999999999900e+03
1.400000000000000203e-02 7.332745000000000513e-01 -3.717690000000000161e+00 8.969355000000000189e+01 1.608769999999999982e+03
1.499999999999999944e-02 7.328175000000000106e-01 -4.213948499999999875e+00 8.767740000000000578e+01 1.608305000000000064e+03
1.600000000000000033e-02 7.324749999999999872e-01 -4.390858999999999845e+00 8.591120000000000800e+01 1.607869999999999891e+03
1.700000000000000122e-02 7.322334999999999816e-01 -4.250366999999999784e+00 8.445355000000000700e+01 1.607490000000000009e+03
1.800000000000000211e-02 7.320435000000000692e-01 -3.865734999999999921e+00 8.324940000000000850e+01 1.607155000000000200e+03
1.900000000000000300e-02 7.318470000000000253e-01 -3.342235499999999693e+00 8.217090000000000316e+01 1.606840000000000146e+03
2.000000000000000042e-02 7.315979999999999706e-01 -2.776299999999999990e+00 8.107464999999999122e+01 1.606525000000000091e+03
2.100000000000000130e-02 7.312754999999999672e-01 -2.225106499999999876e+00 7.985515000000000896e+01 1.606190000000000055e+03
2.200000000000000219e-02 7.308890000000000109e-01 -1.695589999999999709e+00 7.847644999999999982e+01 1.605824999999999818e+03
2.299999999999999961e-02 7.304680000000000062e-01 -1.155765000000000153e+00 7.697245000000000914e+01 1.605430000000000064e+03
2.400000000000000050e-02 7.300465000000000426e-01 -5.615650000000000919e-01 7.541779999999999973e+01 1.605029999999999973e+03
2.500000000000000139e-02 7.296475000000000044e-01 1.143250000000000099e-01 7.388640000000000896e+01 1.604625000000000000e+03
2.600000000000000228e-02 7.292739999999999778e-01 8.634299999999999198e-01 7.241585000000000605e+01 1.604230000000000018e+03
2.700000000000000316e-02 7.289075000000000415e-01 1.636979999999999880e+00 7.098810000000000286e+01 1.603840000000000146e+03
2.800000000000000058e-02 7.285129999999999661e-01 2.354635000000000034e+00 6.953034999999999854e+01 1.603450000000000045e+03
2.900000000000000147e-02 7.280504999999999338e-01 2.922259999999999636e+00 6.793280000000000030e+01 1.603034999999999854e+03
3.000000000000000236e-02 7.274860000000000770e-01 3.253950000000000120e+00 6.607769999999999300e+01 1.602570000000000164e+03
3.099999999999999978e-02 7.268000000000000016e-01 3.292915000000000258e+00 6.387264999999999304e+01 1.602034999999999854e+03
3.200000000000000067e-02 7.259955000000000158e-01 3.025784999999999947e+00 6.127960000000000207e+01 1.601424999999999955e+03
3.300000000000000155e-02 7.250984999999999792e-01 2.486010000000000275e+00 5.833010000000000161e+01 1.600735000000000127e+03
3.400000000000000244e-02 7.241515000000000590e-01 1.745359999999999800e+00 5.512314999999999543e+01 1.599989999999999782e+03
3.500000000000000333e-02 7.232069999999999332e-01 8.974849999999996442e-01 5.180740000000000123e+01 1.599215000000000146e+03
3.600000000000000422e-02 7.223150000000000404e-01 3.935500000000047294e-02 4.855469999999999686e+01 1.598440000000000055e+03
3.700000000000000511e-02 7.215179999999999927e-01 -7.441200000000005588e-01 4.553329999999999700e+01 1.597710000000000036e+03
3.799999999999999906e-02 7.208470000000000155e-01 -1.389015000000000111e+00 4.288649999999999807e+01 1.597050000000000182e+03
3.899999999999999994e-02 7.203189999999999316e-01 -1.855240000000000222e+00 4.071984999999999388e+01 1.596485000000000127e+03
4.000000000000000083e-02 7.199404999999999832e-01 -2.124150000000000205e+00 3.909709999999999752e+01 1.596034999999999854e+03
4.100000000000000172e-02 7.197089999999999321e-01 -2.192907499999999565e+00 3.804339999999999833e+01 1.595720000000000027e+03
4.200000000000000261e-02 7.196175000000000210e-01 -2.067570499999999978e+00 3.755349999999999966e+01 1.595525000000000091e+03
4.300000000000000350e-02 7.196579999999999089e-01 -1.756775000000000198e+00 3.760304999999999609e+01 1.595470000000000027e+03
4.400000000000000439e-02 7.198210000000000441e-01 -1.267342500000000038e+00 3.815809999999999746e+01 1.595529999999999973e+03
4.499999999999999833e-02 7.201005000000000322e-01 -6.026550000000001628e-01 3.918299999999999983e+01 1.595710000000000036e+03
4.599999999999999922e-02 7.204899999999999638e-01 2.363050000000002093e-01 4.064370000000000260e+01 1.595994999999999891e+03
4.700000000000000011e-02 7.209834999999999994e-01 1.248005000000000031e+00 4.250775000000000148e+01 1.596384999999999991e+03
4.800000000000000100e-02 7.215740000000000487e-01 2.426849999999999952e+00 4.474139999999999873e+01 1.596865000000000009e+03
4.900000000000000189e-02 7.222500000000000586e-01 3.760249999999999648e+00 4.730584999999999951e+01 1.597434999999999945e+03
5.000000000000000278e-02 7.229989999999999473e-01 5.227274999999999672e+00 5.015470000000000539e+01 1.598074999999999818e+03
5.100000000000000366e-02 7.238040000000000029e-01 6.798820000000000086e+00 5.323259999999999792e+01 1.598779999999999973e+03
5.200000000000000455e-02 7.246460000000000123e-01 8.439724449999999933e+00 5.647669999999999391e+01 1.599530000000000200e+03
5.300000000000000544e-02 7.255065000000000541e-01 1.011130999999999958e+01 5.981935000000000002e+01 1.600315000000000055e+03
5.399999999999999939e-02 7.263669999999999849e-01 1.177493499999999926e+01 6.319225000000000136e+01 1.601119999999999891e+03
5.500000000000000028e-02 7.272104999999999819e-01 1.339498999999999995e+01 6.653140000000000498e+01 1.601924999999999955e+03
5.600000000000000117e-02 7.280249999999999222e-01 1.494132499999999908e+01 6.978100000000000591e+01 1.602720000000000027e+03
5.700000000000000205e-02 7.288004999999999622e-01 1.639072999999999780e+01 7.289685000000000059e+01 1.603494999999999891e+03
5.800000000000000294e-02 7.295320000000000693e-01 1.772755000000000081e+01 7.584839999999999804e+01 1.604235000000000127e+03
5.900000000000000383e-02 7.302174999999999638e-01 1.894344999999999857e+01 7.861899999999999977e+01 1.604944999999999936e+03
6.000000000000000472e-02 7.308585000000000775e-01 2.003659999999999997e+01 8.120504999999999995e+01 1.605609999999999900e+03
6.099999999999999867e-02 7.314585000000000115e-01 2.101060000000000016e+01 8.361445000000000505e+01 1.606240000000000009e+03
6.199999999999999956e-02 7.320240000000000080e-01 2.187304999999999922e+01 8.586430000000000007e+01 1.606835000000000036e+03
6.300000000000000044e-02 7.325610000000000177e-01 2.263455000000000084e+01 8.797849999999999682e+01 1.607394999999999982e+03
6.400000000000000133e-02 7.330764999999999088e-01 2.330765000000000242e+01 8.998484999999999445e+01 1.607925000000000182e+03
6.500000000000000222e-02 7.335789999999999811e-01 2.390575000000000117e+01 9.191290000000000759e+01 1.608440000000000055e+03
6.600000000000000311e-02 7.340750000000000330e-01 2.444229999999999947e+01 9.379175000000000750e+01 1.608940000000000055e+03
6.700000000000000400e-02 7.345699999999999452e-01 2.492970000000000041e+01 9.564730000000000132e+01 1.609430000000000064e+03
6.800000000000000488e-02 7.350689999999999724e-01 2.537865000000000038e+01 9.750069999999999482e+01 1.609914999999999964e+03
6.900000000000000577e-02 7.355745000000000200e-01 2.579710000000000036e+01 9.936754999999999427e+01 1.610404999999999973e+03
7.000000000000000666e-02 7.360875000000000057e-01 2.619000000000000128e+01 1.012539500000000032e+02 1.610889999999999873e+03
7.100000000000000755e-02 7.366055000000000241e-01 2.655879999999999797e+01 1.031595000000000084e+02 1.611384999999999991e+03
7.200000000000000844e-02 7.371254999999999891e-01 2.690149999999999864e+01 1.050750000000000028e+02 1.611869999999999891e+03
7.300000000000000933e-02 7.376420000000000199e-01 2.721325000000000216e+01 1.069840000000000089e+02 1.612365000000000009e+03
7.399999999999999634e-02 7.381484999999999852e-01 2.748669999999999902e+01 1.088650000000000091e+02 1.612849999999999909e+03
7.499999999999999722e-02 7.386379999999999058e-01 2.771294999999999931e+01 1.106894999999999953e+02 1.613325000000000045e+03
7.599999999999999811e-02 7.391020000000000367e-01 2.788250000000000028e+01 1.124310000000000116e+02 1.613779999999999973e+03
7.699999999999999900e-02 7.395335000000000658e-01 2.798599999999999710e+01 1.140589999999999975e+02 1.614204999999999927e+03
7.799999999999999989e-02 7.399255000000000138e-01 2.801490000000000080e+01 1.155474999999999994e+02 1.614605000000000018e+03
7.900000000000000078e-02 7.402729999999999588e-01 2.796225000000000094e+01 1.168725000000000023e+02 1.614964999999999918e+03
8.000000000000000167e-02 7.405714999999999382e-01 2.782294999999999874e+01 1.180144999999999982e+02 1.615279999999999973e+03
8.100000000000000255e-02 7.408179999999999765e-01 2.759405000000000285e+01 1.189594999999999914e+02 1.615549999999999955e+03
8.200000000000000344e-02 7.410105000000000164e-01 2.727495000000000047e+01 1.196990000000000123e+02 1.615769999999999982e+03
8.300000000000000433e-02 7.411494999999999056e-01 2.686735000000000184e+01 1.202319999999999993e+02 1.615945000000000164e+03
8.400000000000000522e-02 7.412369999999999237e-01 2.637545000000000073e+01 1.205604999999999905e+02 1.616065000000000055e+03
8.500000000000000611e-02 7.412745000000000584e-01 2.580550000000000210e+01 1.206949999999999932e+02 1.616139999999999873e+03
8.600000000000000699e-02 7.412665000000000504e-01 2.516575000000000273e+01 1.206479999999999961e+02 1.616160000000000082e+03
8.700000000000000788e-02 7.412185000000000024e-01 2.446630000000000038e+01 1.204385000000000048e+02 1.616144999999999982e+03
8.800000000000000877e-02 7.411354999999999471e-01 2.371860000000000213e+01 1.200879999999999939e+02 1.616089999999999918e+03
8.899999999999999578e-02 7.410240000000000160e-01 2.293509999999999849e+01 1.196204999999999927e+02 1.616005000000000109e+03
8.999999999999999667e-02 7.408915000000000362e-01 2.212890000000000157e+01 1.190610000000000070e+02 1.615889999999999873e+03
9.099999999999999756e-02 7.407430000000000403e-01 2.131315000000000026e+01 1.184364999999999952e+02 1.615755000000000109e+03
9.199999999999999845e-02 7.405859999999999665e-01 2.050059999999999860e+01 1.177719999999999914e+02 1.615605000000000018e+03
9.299999999999999933e-02 7.404264999999999874e-01 1.970285000000000153e+01 1.170914999999999964e+02 1.615449999999999818e+03
9.400000000000000022e-02 7.402690000000000659e-01 1.893030000000000257e+01 1.164174999999999898e+02 1.615289999999999964e+03
9.500000000000000111e-02 7.401184999999999015e-01 1.819120000000000203e+01 1.157680000000000007e+02 1.615134999999999991e+03
9.600000000000000200e-02 7.399780000000000246e-01 1.749190000000000111e+01 1.151564999999999941e+02 1.614980000000000018e+03
9.700000000000000289e-02 7.398495000000000488e-01 1.683619999999999806e+01 1.145949999999999989e+02 1.614835000000000036e+03
9.800000000000000377e-02 7.397335000000000438e-01 1.622560000000000002e+01 1.140870000000000033e+02 1.614704999999999927e+03
9.900000000000000466e-02 7.396304999999999685e-01 1.565905000000000058e+01 1.136345000000000027e+02 1.614585000000000036e+03
1.000000000000000056e-01 7.395380000000000287e-01 1.513354999999999961e+01 1.132339999999999947e+02 1.614470000000000027e+03
1.010000000000000064e-01 7.394549999999999734e-01 1.464414999999999978e+01 1.128780000000000001e+02 1.614369999999999891e+03
1.020000000000000073e-01 7.393775000000000208e-01 1.418430000000000035e+01 1.125569999999999879e+02 1.614284999999999854e+03
1.030000000000000082e-01 7.393030000000000435e-01 1.374644999999999939e+01 1.122580000000000098e+02 1.614194999999999936e+03
1.040000000000000091e-01 7.392279999999999962e-01 1.332235000000000014e+01 1.119669999999999987e+02 1.614115000000000009e+03
1.050000000000000100e-01 7.391475000000000684e-01 1.290342000000000056e+01 1.116705000000000041e+02 1.614029999999999973e+03
1.059999999999999970e-01 7.390594999999999803e-01 1.248141999999999996e+01 1.113529999999999944e+02 1.613950000000000045e+03
1.069999999999999979e-01 7.389605000000000201e-01 1.204870000000000019e+01 1.110010000000000048e+02 1.613855000000000018e+03
1.079999999999999988e-01 7.388470000000000315e-01 1.159855500000000106e+01 1.106039999999999992e+02 1.613755000000000109e+03
1.089999999999999997e-01 7.387185000000000556e-01 1.112565999999999988e+01 1.101525000000000034e+02 1.613644999999999982e+03
1.100000000000000006e-01 7.385729999999999240e-01 1.062634000000000079e+01 1.096399999999999864e+02 1.613525000000000091e+03
1.110000000000000014e-01 7.384100000000000108e-01 1.009866500000000045e+01 1.090649999999999977e+02 1.613384999999999991e+03
1.120000000000000023e-01 7.382319999999999993e-01 9.542730000000000601e+00 1.084269999999999925e+02 1.613230000000000018e+03
1.130000000000000032e-01 7.380385000000000417e-01 8.960650000000001114e+00 1.077315000000000111e+02 1.613065000000000055e+03
1.140000000000000041e-01 7.378344999999999487e-01 8.356249999999999289e+00 1.069860000000000042e+02 1.612885000000000218e+03
1.150000000000000050e-01 7.376209999999999711e-01 7.735260000000000247e+00 1.062014999999999958e+02 1.612695000000000164e+03
1.160000000000000059e-01 7.374039999999999484e-01 7.104865000000000208e+00 1.053924999999999983e+02 1.612500000000000000e+03
1.170000000000000068e-01 7.371860000000000079e-01 6.473310000000000564e+00 1.045748499999999979e+02 1.612300000000000182e+03
1.180000000000000077e-01 7.369729999999999892e-01 5.849680000000000213e+00 1.037657499999999970e+02 1.612105000000000018e+03
1.190000000000000085e-01 7.367700000000000360e-01 5.243405000000000094e+00 1.029831000000000074e+02 1.611904999999999973e+03
1.200000000000000094e-01 7.365805000000000824e-01 4.663825000000000109e+00 1.022450999999999937e+02 1.611724999999999909e+03
1.209999999999999964e-01 7.364089999999999803e-01 4.119780000000000442e+00 1.015686000000000035e+02 1.611549999999999955e+03
1.219999999999999973e-01 7.362600000000000255e-01 3.619205000000000005e+00 1.009675000000000011e+02 1.611394999999999982e+03
1.229999999999999982e-01 7.361349999999999838e-01 3.168795000000000250e+00 1.004549000000000092e+02 1.611255000000000109e+03
1.239999999999999991e-01 7.360364999999999824e-01 2.773705000000000087e+00 1.000397499999999980e+02 1.611139999999999873e+03
1.250000000000000000e-01 7.359659999999998981e-01 2.437394999999999978e+00 9.972860000000000014e+01 1.611050000000000182e+03
1.260000000000000009e-01 7.359229999999999938e-01 2.161470000000000002e+00 9.952289999999999281e+01 1.610980000000000018e+03
1.270000000000000018e-01 7.359070000000000888e-01 1.945725000000000149e+00 9.942230000000000700e+01 1.610940000000000055e+03
1.280000000000000027e-01 7.359169999999999323e-01 1.788174999999999848e+00 9.942160000000001219e+01 1.610920000000000073e+03
1.290000000000000036e-01 7.359489999999999643e-01 1.685249999999999915e+00 9.951260000000000616e+01 1.610920000000000073e+03
1.300000000000000044e-01 7.360010000000000163e-01 1.632014999999999993e+00 9.968580000000000041e+01 1.610949999999999818e+03
1.310000000000000053e-01 7.360694999999999322e-01 1.622414999999999941e+00 9.992825000000000557e+01 1.610990000000000009e+03
1.320000000000000062e-01 7.361509999999999998e-01 1.649623000000000062e+00 1.002258999999999958e+02 1.611049999999999955e+03
1.330000000000000071e-01 7.362404999999999644e-01 1.706314499999999956e+00 1.005640999999999963e+02 1.611125000000000000e+03
1.340000000000000080e-01 7.363360000000001016e-01 1.784999000000000002e+00 1.009282000000000039e+02 1.611199999999999818e+03
1.350000000000000089e-01 7.364319999999999755e-01 1.878275000000000139e+00 1.013044999999999902e+02 1.611284999999999854e+03
1.360000000000000098e-01 7.365269999999999317e-01 1.979100000000000081e+00 1.016790000000000020e+02 1.611369999999999891e+03
1.370000000000000107e-01 7.366170000000000773e-01 2.080979999999999830e+00 1.020395000000000039e+02 1.611450000000000045e+03
1.380000000000000115e-01 7.367004999999999804e-01 2.178154999999999841e+00 1.023770000000000095e+02 1.611534999999999854e+03
1.390000000000000124e-01 7.367740000000000400e-01 2.265695000000000014e+00 1.026819999999999879e+02 1.611610000000000127e+03
1.400000000000000133e-01 7.368379999999999930e-01 2.339595000000000091e+00 1.029484999999999957e+02 1.611679999999999836e+03
1.410000000000000142e-01 7.368909999999999627e-01 2.396815000000000140e+00 1.031730000000000018e+02 1.611735000000000127e+03
1.420000000000000151e-01 7.369324999999999903e-01 2.435284999999999922e+00 1.033520000000000039e+02 1.611784999999999854e+03
1.430000000000000160e-01 7.369615000000000471e-01 2.453864999999999963e+00 1.034855000000000018e+02 1.611824999999999818e+03
1.440000000000000169e-01 7.369805000000000383e-01 2.452309999999999768e+00 1.035745000000000005e+02 1.611849999999999909e+03
1.450000000000000178e-01 7.369890000000000052e-01 2.431189999999999962e+00 1.036214999999999975e+02 1.611869999999999891e+03
1.459999999999999909e-01 7.369885000000000463e-01 2.391785000000000050e+00 1.036299999999999955e+02 1.611880000000000109e+03
1.469999999999999918e-01 7.369799999999999685e-01 2.335980000000000167e+00 1.036050000000000040e+02 1.611880000000000109e+03
1.479999999999999927e-01 7.369645000000000223e-01 2.266124999999999723e+00 1.035515000000000043e+02 1.611875000000000000e+03
1.489999999999999936e-01 7.369449999999999612e-01 2.184909999999999908e+00 1.034749999999999943e+02 1.611860000000000127e+03
1.499999999999999944e-01 7.369209999999999372e-01 2.095215000000000050e+00 1.033810000000000002e+02 1.611845000000000027e+03
1.509999999999999953e-01 7.368954999999999256e-01 1.999964999999999993e+00 1.032754999999999939e+02 1.611820000000000164e+03
1.519999999999999962e-01 7.368684999999999263e-01 1.902000000000000135e+00 1.031624999999999943e+02 1.611800000000000182e+03
1.529999999999999971e-01 7.368415000000000381e-01 1.803929999999999811e+00 1.030469999999999970e+02 1.611775000000000091e+03
1.539999999999999980e-01 7.368149999999999977e-01 1.708064999999999944e+00 1.029325000000000045e+02 1.611750000000000000e+03
1.549999999999999989e-01 7.367900000000000560e-01 1.616284999999999972e+00 1.028220000000000027e+02 1.611720000000000027e+03
1.559999999999999998e-01 7.367669999999999497e-01 1.530016000000000043e+00 1.027164999999999964e+02 1.611695000000000164e+03
1.570000000000000007e-01 7.367449999999999832e-01 1.450186500000000045e+00 1.026175000000000068e+02 1.611675000000000182e+03
1.580000000000000016e-01 7.367250000000000743e-01 1.377249500000000015e+00 1.025235000000000127e+02 1.611650000000000091e+03
1.590000000000000024e-01 7.367049999999999432e-01 1.311177999999999955e+00 1.024344999999999999e+02 1.611625000000000000e+03
