# t [s], A [cm^2], U [cm/s], P [cPa], c [cm/s]
1.000000000000000021e-03 1.954380000000000006e-01 2.662339999999999707e-01 9.470584999999999809e+01 2.027769999999999982e+03
2.000000000000000042e-03 1.953890000000000071e-01 1.735162500000000163e+00 9.164130000000000109e+01 2.027424999999999955e+03
3.000000000000000062e-03 1.952490000000000059e-01 3.567823000000000189e+00 8.734600000000000364e+01 2.026485000000000127e+03
4.000000000000000083e-03 1.950534999999999908e-01 5.632686000000000526e+00 8.257710000000000150e+01 2.025200000000000045e+03
5.000000000000000104e-03 1.948415000000000008e-01 7.863500000000000156e+00 7.822315000000000396e+01 2.023815000000000055e+03
6.000000000000000125e-03 1.946364999999999901e-01 1.009635000000000105e+01 7.463944999999999652e+01 2.022485000000000127e+03
7.000000000000000146e-03 1.944454999999999933e-01 1.210974999999999824e+01 7.162664999999999793e+01 2.021275000000000091e+03
8.000000000000000167e-03 1.942699999999999982e-01 1.379687999999999981e+01 6.892569999999999197e+01 2.020175000000000182e+03
9.000000000000001055e-03 1.941149999999999820e-01 1.518900000000000006e+01 6.656350000000000477e+01 2.019230000000000018e+03
1.000000000000000194e-02 1.939839999999999898e-01 1.632870000000000132e+01 6.463370000000000459e+01 2.018434999999999945e+03
1.099999999999999936e-02 1.938779999999999948e-01 1.723539999999999850e+01 6.313020000000000209e+01 2.017795000000000073e+03
1.200000000000000025e-02 1.937944999999999807e-01 1.792820000000000036e+01 6.200245000000000317e+01 2.017305000000000064e+03
1.300000000000000114e-02 1.937304999999999999e-01 1.841789999999999949e+01 6.116949999999999932e+01 2.016934999999999945e+03
1.400000000000000203e-02 1.936804999999999777e-01 1.870909999999999940e+01 6.051115000000000066e+01 2.016650000000000091e+03
1.499999999999999944e-02 1.936404999999999932e-01 1.884250000000000114e+01 5.996654999999999802e+01 2.016429999999999836e+03
1.600000000000000033e-02 1.936134999999999939e-01 1.892844999999999800e+01 5.966530000000000200e+01 2.016289999999999964e+03
1.700000000000000122e-02 1.936070000000000013e-01 1.911764999999999759e+01 5.991765000000000185e+01 2.016269999999999982e+03
1.800000000000000211e-02 1.936324999999999852e-01 1.952640000000000242e+01 6.103369999999999607e+01 2.016424999999999955e+03
1.900000000000000300e-02 1.936934999999999907e-01 2.017145000000000010e+01 6.310450000000000159e+01 2.016800000000000182e+03
2.000000000000000042e-02 1.937860000000000138e-01 2.095560000000000045e+01 6.589385000000000048e+01 2.017365000000000009e+03
2.100000000000000130e-02 1.938960000000000128e-01 2.170765000000000100e+01 6.889660000000000650e+01 2.018045000000000073e+03
2.200000000000000219e-02 1.940054999999999974e-01 2.224860000000000326e+01 7.151664999999999850e+01 2.018720000000000027e+03
2.299999999999999961e-02 1.940955000000000041e-01 2.245519999999999783e+01 7.327275000000000205e+01 2.019289999999999964e+03
2.400000000000000050e-02 1.941534999999999789e-01 2.229540000000000077e+01 7.394689999999999941e+01 2.019674999999999955e+03
2.500000000000000139e-02 1.941765000000000019e-01 2.182764999999999844e+01 7.362559999999999150e+01 2.019845000000000027e+03
2.600000000000000228e-02 1.941700000000000093e-01 2.116789999999999949e+01 7.263030000000000541e+01 2.019825000000000045e+03
2.700000000000000316e-02 1.941444999999999976e-01 2.044209999999999994e+01 7.137594999999998890e+01 2.019684999999999945e+03
2.800000000000000058e-02 1.941125000000000211e-01 1.974264999999999759e+01 7.021909999999999741e+01 2.019490000000000009e+03
2.900000000000000147e-02 1.940824999999999911e-01 1.910490000000000066e+01 6.935224999999999795e+01 2.019299999999999955e+03
3.000000000000000236e-02 1.940580000000000083e-01 1.850784999999999769e+01 6.877320000000000277e+01 2.019150000000000091e+03
3.099999999999999978e-02 1.940370000000000150e-01 1.789444999999999908e+01 6.832649999999999579e+01 2.019019999999999982e+03
3.200000000000000067e-02 1.940145000000000064e-01 1.720185000000000031e+01 6.779170000000000584e+01 2.018880000000000109e+03
3.300000000000000155e-02 1.939845000000000041e-01 1.639134999999999920e+01 6.698385000000000389e+01 2.018704999999999927e+03
3.400000000000000244e-02 1.939440000000000053e-01 1.546869999999999834e+01 6.583414999999999395e+01 2.018460000000000036e+03
3.500000000000000333e-02 1.938929999999999820e-01 1.448945000000000149e+01 6.442840000000001055e+01 2.018154999999999973e+03
3.600000000000000422e-02 1.938369999999999815e-01 1.354795000000000016e+01 6.299224999999999852e+01 2.017815000000000055e+03
3.700000000000000511e-02 1.937860000000000138e-01 1.275329999999999941e+01 6.182999999999999829e+01 2.017500000000000000e+03
3.799999999999999906e-02 1.937500000000000056e-01 1.220035000000000025e+01 6.123714999999999975e+01 2.017269999999999982e+03
3.899999999999999994e-02 1.937375000000000069e-01 1.194495000000000040e+01 6.141544999999999987e+01 2.017174999999999955e+03
4.000000000000000083e-02 1.937534999999999952e-01 1.198944999999999972e+01 6.241564999999999941e+01 2.017255000000000109e+03
4.100000000000000172e-02 1.937975000000000114e-01 1.228279999999999994e+01 6.412145000000001005e+01 2.017509999999999991e+03
4.200000000000000261e-02 1.938650000000000095e-01 1.273160000000000025e+01 6.627549999999999386e+01 2.017909999999999854e+03
4.300000000000000350e-02 1.939445000000000197e-01 1.321945000000000014e+01 6.853454999999999586e+01 2.018390000000000100e+03
4.400000000000000439e-02 1.940250000000000030e-01 1.362800000000000011e+01 7.053710000000000946e+01 2.018880000000000109e+03
4.499999999999999833e-02 1.940935000000000021e-01 1.385524999999999984e+01 7.196659999999999968e+01 2.019305000000000064e+03
4.599999999999999922e-02 1.941394999999999926e-01 1.382805000000000106e+01 7.259780000000000655e+01 2.019599999999999909e+03
4.700000000000000011e-02 1.941554999999999809e-01 1.350769999999999982e+01 7.231945000000000334e+01 2.019704999999999927e+03
4.800000000000000100e-02 1.941384999999999916e-01 1.288889999999999958e+01 7.113290000000000646e+01 2.019615000000000009e+03
4.900000000000000189e-02 1.940879999999999828e-01 1.199313499999999877e+01 6.913200000000000500e+01 2.019319999999999936e+03
5.000000000000000278e-02 1.940069999999999850e-01 1.086060499999999962e+01 6.647159999999999513e+01 2.018835000000000036e+03
5.100000000000000366e-02 1.939015000000000044e-01 9.540865000000000151e+00 6.333405000000000484e+01 2.018195000000000164e+03
5.200000000000000455e-02 1.937765000000000182e-01 8.086085000000000633e+00 5.990064999999999884e+01 2.017434999999999945e+03
5.300000000000000544e-02 1.936394999999999922e-01 6.546619999999999884e+00 5.633310000000000173e+01 2.016590000000000146e+03
5.399999999999999939e-02 1.934945000000000137e-01 4.969299999999999606e+00 5.276595000000000368e+01 2.015704999999999927e+03
5.500000000000000028e-02 1.933489999999999931e-01 3.397819999999999840e+00 4.930780000000000030e+01 2.014809999999999945e+03
5.600000000000000117e-02 1.932059999999999889e-01 1.874295000000000044e+00 4.604845000000000255e+01 2.013924999999999955e+03
5.700000000000000205e-02 1.930689999999999906e-01 4.407499999999999751e-01 4.306810000000000116e+01 2.013085000000000036e+03
5.800000000000000294e-02 1.929440000000000044e-01 -8.599949999999998429e-01 4.044440000000000168e+01 2.012309999999999945e+03
5.900000000000000383e-02 1.928330000000000044e-01 -1.984676499999999955e+00 3.825674999999999670e+01 2.011615000000000009e+03
6.000000000000000472e-02 1.927395000000000080e-01 -2.891030999999999906e+00 3.658545000000000158e+01 2.011030000000000200e+03
6.099999999999999867e-02 1.926680000000000059e-01 -3.540210000000000079e+00 3.550730000000000075e+01 2.010574999999999818e+03
6.199999999999999956e-02 1.926209999999999867e-01 -3.899645000000000472e+00 3.508885000000000076e+01 2.010269999999999982e+03
6.300000000000000044e-02 1.926010000000000222e-01 -3.945800000000000196e+00 3.537834999999999752e+01 2.010130000000000109e+03
6.400000000000000133e-02 1.926110000000000044e-01 -3.666314999999999991e+00 3.639950000000000330e+01 2.010170000000000073e+03
6.500000000000000222e-02 1.926505000000000023e-01 -3.061269999999999936e+00 3.814665000000000106e+01 2.010394999999999982e+03
6.600000000000000311e-02 1.927205000000000168e-01 -2.143285370000000079e+00 4.058405000000000484e+01 2.010800000000000182e+03
6.700000000000000400e-02 1.928179999999999894e-01 -9.367050000000000098e-01 4.364759999999999707e+01 2.011380000000000109e+03
6.800000000000000488e-02 1.929414999999999880e-01 5.241050000000000431e-01 4.724930000000000518e+01 2.012119999999999891e+03
6.900000000000000577e-02 1.930880000000000096e-01 2.196925000000000239e+00 5.128345000000000198e+01 2.013005000000000109e+03
7.000000000000000666e-02 1.932520000000000071e-01 4.034140100000000118e+00 5.563384999999999536e+01 2.014005000000000109e+03
7.100000000000000755e-02 1.934299999999999908e-01 5.985289999999999999e+00 6.018059999999999832e+01 2.015085000000000036e+03
7.200000000000000844e-02 1.936174999999999979e-01 7.999585000000000612e+00 6.480684999999999718e+01 2.016235000000000127e+03
7.300000000000000933e-02 1.938094999999999957e-01 1.002818500000000057e+01 6.940485000000001037e+01 2.017420000000000073e+03
7.399999999999999634e-02 1.940014999999999934e-01 1.202644499999999894e+01 7.388079999999999359e+01 2.018605000000000018e+03
7.499999999999999722e-02 1.941895000000000149e-01 1.395564999999999856e+01 7.815899999999999181e+01 2.019775000000000091e+03
7.599999999999999811e-02 1.943715000000000026e-01 1.578470000000000084e+01 8.218504999999998972e+01 2.020904999999999973e+03
7.699999999999999900e-02 1.945445000000000091e-01 1.749115000000000109e+01 8.592709999999999582e+01 2.021985000000000127e+03
7.799999999999999989e-02 1.947070000000000189e-01 1.906135000000000090e+01 8.937619999999999720e+01 2.023005000000000109e+03
7.900000000000000078e-02 1.948595000000000188e-01 2.049054999999999893e+01 9.254439999999999600e+01 2.023960000000000036e+03
8.000000000000000167e-02 1.950010000000000077e-01 2.178184999999999860e+01 9.546200000000000330e+01 2.024860000000000127e+03
8.100000000000000255e-02 1.951330000000000009e-01 2.294500000000000028e+01 9.817215000000000202e+01 2.025690000000000055e+03
8.200000000000000344e-02 1.952575000000000005e-01 2.399445000000000050e+01 1.007278000000000020e+02 2.026480000000000018e+03
8.300000000000000433e-02 1.953765000000000085e-01 2.494754999999999967e+01 1.031822999999999979e+02 2.027235000000000127e+03
8.400000000000000522e-02 1.954909999999999981e-01 2.582269999999999754e+01 1.055879999999999939e+02 2.027960000000000036e+03
8.500000000000000611e-02 1.956034999999999857e-01 2.663745000000000118e+01 1.079894999999999925e+02 2.028675000000000182e+03
8.600000000000000699e-02 1.957160000000000011e-01 2.740709999999999980e+01 1.104209999999999923e+02 2.029380000000000109e+03
8.700000000000000788e-02 1.958289999999999753e-01 2.814349999999999952e+01 1.129039999999999964e+02 2.030095000000000027e+03
8.800000000000000877e-02 1.959429999999999783e-01 2.885470000000000113e+01 1.154465000000000003e+02 2.030819999999999936e+03
8.899999999999999578e-02 1.960594999999999977e-01 2.954415000000000191e+01 1.180439999999999969e+02 2.031554999999999836e+03
8.999999999999999667e-02 1.961769999999999903e-01 3.021135000000000304e+01 1.206779999999999973e+02 2.032295000000000073e+03
9.099999999999999756e-02 1.962959999999999983e-01 3.085154999999999959e+01 1.233220000000000027e+02 2.033045000000000073e+03
9.199999999999999845e-02 1.964144999999999919e-01 3.145694999999999908e+01 1.259420000000000073e+02 2.033789999999999964e+03
9.299999999999999933e-02 1.965314999999999979e-01 3.201689999999999969e+01 1.284975000000000023e+02 2.034529999999999973e+03
9.400000000000000022e-02 1.966450000000000142e-01 3.251895000000000380e+01 1.309459999999999980e+02 2.035244999999999891e+03
9.500000000000000111e-02 1.967539999999999845e-01 3.294979999999999620e+01 1.332454999999999927e+02 2.035934999999999945e+03
9.600000000000000200e-02 1.968564999999999898e-01 3.329574999999999818e+01 1.353555000000000064e+02 2.036585000000000036e+03
9.700000000000000289e-02 1.969509999999999872e-01 3.354394999999999527e+01 1.372384999999999877e+02 2.037184999999999945e+03
9.800000000000000377e-02 1.970355000000000023e-01 3.368290000000000362e+01 1.388645000000000209e+02 2.037724999999999909e+03
9.900000000000000466e-02 1.971094999999999930e-01 3.370319999999999538e+01 1.402085000000000150e+02 2.038200000000000045e+03
1.000000000000000056e-01 1.971720000000000139e-01 3.359810000000000230e+01 1.412529999999999859e+02 2.038599999999999909e+03
1.010000000000000064e-01 1.972209999999999797e-01 3.336384999999999934e+01 1.419904999999999973e+02 2.038925000000000182e+03
1.020000000000000073e-01 1.972575000000000023e-01 3.300039999999999907e+01 1.424214999999999804e+02 2.039159999999999854e+03
1.030000000000000082e-01 1.972814999999999985e-01 3.251095000000000113e+01 1.425554999999999950e+02 2.039324999999999818e+03
1.040000000000000091e-01 1.972925000000000095e-01 3.190245000000000175e+01 1.424089999999999918e+02 2.039400000000000091e+03
1.050000000000000100e-01 1.972919999999999952e-01 3.118489999999999895e+01 1.420080000000000098e+02 2.039404999999999973e+03
1.059999999999999970e-01 1.972810000000000119e-01 3.037124999999999986e+01 1.413829999999999814e+02 2.039345000000000027e+03
1.069999999999999979e-01 1.972595000000000043e-01 2.947684999999999889e+01 1.405705000000000098e+02 2.039220000000000027e+03
1.079999999999999988e-01 1.972305000000000030e-01 2.851855000000000118e+01 1.396089999999999804e+02 2.039045000000000073e+03
1.089999999999999997e-01 1.971944999999999948e-01 2.751429999999999865e+01 1.385384999999999991e+02 2.038825000000000045e+03
1.100000000000000006e-01 1.971534999999999815e-01 2.648219999999999885e+01 1.373994999999999891e+02 2.038570000000000164e+03
1.110000000000000014e-01 1.971094999999999930e-01 2.543999999999999773e+01 1.362295000000000016e+02 2.038295000000000073e+03
1.120000000000000023e-01 1.970629999999999882e-01 2.440425000000000111e+01 1.350625000000000000e+02 2.038009999999999991e+03
1.130000000000000032e-01 1.970159999999999967e-01 2.338989999999999725e+01 1.339284999999999854e+02 2.037715000000000146e+03
1.140000000000000041e-01 1.969699999999999784e-01 2.240970000000000084e+01 1.328514999999999873e+02 2.037425000000000182e+03
1.150000000000000050e-01 1.969255000000000033e-01 2.147390000000000043e+01 1.318495000000000061e+02 2.037144999999999982e+03
1.160000000000000059e-01 1.968840000000000034e-01 2.058980000000000032e+01 1.309339999999999975e+02 2.036880000000000109e+03
1.170000000000000068e-01 1.968449999999999922e-01 1.976200000000000045e+01 1.301094999999999970e+02 2.036630000000000109e+03
1.180000000000000077e-01 1.968095000000000261e-01 1.899184999999999945e+01 1.293739999999999952e+02 2.036400000000000091e+03
1.190000000000000085e-01 1.967769999999999797e-01 1.827785000000000082e+01 1.287189999999999941e+02 2.036195000000000164e+03
1.200000000000000094e-01 1.967474999999999918e-01 1.761605000000000132e+01 1.281315000000000168e+02 2.036005000000000109e+03
1.209999999999999964e-01 1.967205000000000203e-01 1.699974999999999881e+01 1.275919999999999987e+02 2.035825000000000045e+03
1.219999999999999973e-01 1.966944999999999943e-01 1.642070000000000007e+01 1.270794999999999959e+02 2.035664999999999964e+03
1.229999999999999982e-01 1.966704999999999981e-01 1.586904999999999966e+01 1.265695000000000050e+02 2.035505000000000109e+03
1.239999999999999991e-01 1.966459999999999875e-01 1.533419999999999916e+01 1.260360000000000014e+02 2.035349999999999909e+03
1.250000000000000000e-01 1.966200000000000170e-01 1.480519999999999925e+01 1.254544999999999959e+02 2.035180000000000064e+03
1.260000000000000009e-01 1.965919999999999890e-01 1.427169999999999916e+01 1.248019999999999925e+02 2.035005000000000109e+03
1.270000000000000018e-01 1.965615000000000001e-01 1.372405000000000008e+01 1.240589999999999975e+02 2.034815000000000055e+03
1.280000000000000027e-01 1.965274999999999939e-01 1.315429999999999922e+01 1.232090000000000032e+02 2.034595000000000027e+03
1.290000000000000036e-01 1.964890000000000247e-01 1.255635000000000012e+01 1.222429999999999950e+02 2.034355000000000018e+03
1.300000000000000044e-01 1.964454999999999951e-01 1.192640000000000100e+01 1.211555000000000035e+02 2.034085000000000036e+03
1.310000000000000053e-01 1.963969999999999883e-01 1.126324999999999932e+01 1.199484999999999957e+02 2.033779999999999973e+03
1.320000000000000062e-01 1.963439999999999908e-01 1.056810499999999919e+01 1.186305000000000121e+02 2.033450000000000045e+03
1.330000000000000071e-01 1.962869999999999893e-01 9.844999999999998863e+00 1.172150000000000034e+02 2.033094999999999800e+03
1.340000000000000080e-01 1.962260000000000115e-01 9.100249999999999062e+00 1.157220000000000084e+02 2.032710000000000036e+03
1.350000000000000089e-01 1.961610000000000020e-01 8.342269999999999186e+00 1.141754999999999995e+02 2.032304999999999836e+03
1.360000000000000098e-01 1.960950000000000193e-01 7.581184999999999619e+00 1.126020000000000039e+02 2.031889999999999873e+03
1.370000000000000107e-01 1.960270000000000068e-01 6.828305000000000291e+00 1.110324999999999989e+02 2.031465000000000146e+03
1.380000000000000115e-01 1.959589999999999943e-01 6.095530000000000115e+00 1.094960000000000093e+02 2.031039999999999964e+03
1.390000000000000124e-01 1.958929999999999838e-01 5.394829999999999792e+00 1.080215000000000032e+02 2.030625000000000000e+03
1.400000000000000133e-01 1.958294999999999897e-01 4.737655000000000172e+00 1.066370000000000005e+02 2.030224999999999909e+03
1.410000000000000142e-01 1.957694999999999852e-01 4.134405000000000108e+00 1.053665000000000020e+02 2.029849999999999909e+03
1.420000000000000151e-01 1.957139999999999991e-01 3.593994999999999607e+00 1.042289999999999992e+02 2.029494999999999891e+03
1.430000000000000160e-01 1.956634999999999902e-01 3.123499999999999943e+00 1.032400000000000091e+02 2.029179999999999836e+03
1.440000000000000169e-01 1.956195000000000017e-01 2.727895000000000181e+00 1.024079999999999870e+02 2.028894999999999982e+03
1.450000000000000178e-01 1.955815000000000192e-01 2.409930000000000128e+00 1.017369999999999948e+02 2.028655000000000200e+03
1.459999999999999909e-01 1.955500000000000016e-01 2.170090000000000074e+00 1.012259499999999974e+02 2.028454999999999927e+03
1.469999999999999918e-01 1.955255000000000187e-01 2.006699999999999928e+00 1.008687500000000057e+02 2.028295000000000073e+03
1.479999999999999927e-01 1.955075000000000007e-01 1.916069999999999940e+00 1.006540499999999980e+02 2.028175000000000182e+03
1.489999999999999936e-01 1.954949999999999743e-01 1.892749999999999932e+00 1.005679999999999978e+02 2.028090000000000146e+03
1.499999999999999944e-01 1.954879999999999951e-01 1.929815000000000058e+00 1.005929999999999893e+02 2.028039999999999964e+03
1.509999999999999953e-01 1.954855000000000065e-01 2.019204999999999917e+00 1.007100000000000080e+02 2.028019999999999982e+03
1.519999999999999962e-01 1.954879999999999951e-01 2.152054999999999829e+00 1.009004999999999939e+02 2.028025000000000091e+03
1.529999999999999971e-01 1.954925000000000135e-01 2.319065000000000154e+00 1.011430000000000007e+02 2.028049999999999955e+03
1.539999999999999980e-01 1.955000000000000071e-01 2.510804999999999954e+00 1.014174999999999898e+02 2.028095000000000027e+03
1.549999999999999989e-01 1.955089999999999884e-01 2.718054999999999666e+00 1.017059999999999889e+02 2.028150000000000091e+03
1.559999999999999998e-01 1.955189999999999984e-01 2.932050000000000267e+00 1.019915000000000020e+02 2.028210000000000036e+03
1.570000000000000007e-01 1.955290000000000084e-01 3.144754999999999967e+00 1.022580000000000098e+02 2.028269999999999982e+03
1.580000000000000016e-01 1.955389999999999906e-01 3.349034999999999762e+00 1.024939999999999998e+02 2.028329999999999927e+03
1.590000000000000024e-01 1.955474999999999852e-01 3.538839999999999986e+00 1.026889999999999930e+02 2.028380000000000109e+03
