# t [s], A [cm^2], U [cm/s], P [cPa], c [cm/s]
1.000000000000000021e-03 1.546454999999999913e-01 1.946614999999999873e-01 9.219344999999999857e+01 1.958599999999999909e+03
2.000000000000000042e-03 1.546230000000000104e-01 1.452629500000000018e+00 8.961799999999999500e+01 1.958394999999999982e+03
3.000000000000000062e-03 1.545400000000000107e-01 3.032557500000000239e+00 8.615649999999999409e+01 1.957670000000000073e+03
4.000000000000000083e-03 1.544149999999999967e-01 4.801955000000000418e+00 8.218559999999999377e+01 1.956595000000000027e+03
5.000000000000000104e-03 1.542695000000000038e-01 6.714935000000000542e+00 7.835040000000000759e+01 1.955360000000000127e+03
6.000000000000000125e-03 1.541210000000000080e-01 8.684469999999999246e+00 7.503520000000000323e+01 1.954115000000000009e+03
7.000000000000000146e-03 1.539780000000000038e-01 1.056822000000000017e+01 7.225209999999999866e+01 1.952924999999999955e+03
8.000000000000000167e-03 1.538424999999999931e-01 1.224542500000000089e+01 6.981449999999999534e+01 1.951820000000000164e+03
9.000000000000001055e-03 1.537175000000000069e-01 1.368562499999999993e+01 6.762484999999999502e+01 1.950809999999999945e+03
1.000000000000000194e-02 1.536064999999999792e-01 1.491304999999999836e+01 6.572265000000000157e+01 1.949925000000000182e+03
1.099999999999999936e-02 1.535104999999999942e-01 1.594845000000000113e+01 6.414884999999999593e+01 1.949164999999999964e+03
1.200000000000000025e-02 1.534294999999999964e-01 1.680114999999999981e+01 6.288915000000000077e+01 1.948539999999999964e+03
1.300000000000000114e-02 1.533634999999999859e-01 1.747554999999999836e+01 6.189450000000000074e+01 1.948029999999999973e+03
1.400000000000000203e-02 1.533090000000000008e-01 1.797240000000000038e+01 6.109175000000000466e+01 1.947615000000000009e+03
1.499999999999999944e-02 1.532645000000000257e-01 1.829724999999999824e+01 6.040219999999999345e+01 1.947284999999999854e+03
1.600000000000000033e-02 1.532264999999999877e-01 1.848215000000000074e+01 5.979789999999999850e+01 1.947009999999999991e+03
1.700000000000000122e-02 1.531974999999999865e-01 1.859665000000000035e+01 5.935645000000000238e+01 1.946799999999999955e+03
1.800000000000000211e-02 1.531790000000000096e-01 1.873280000000000101e+01 5.925180000000000291e+01 1.946680000000000064e+03
1.900000000000000300e-02 1.531775000000000220e-01 1.897070000000000078e+01 5.967470000000000141e+01 1.946679999999999836e+03
2.000000000000000042e-02 1.531959999999999988e-01 1.934640000000000271e+01 6.073010000000000019e+01 1.946829999999999927e+03
2.100000000000000130e-02 1.532344999999999957e-01 1.983875000000000099e+01 6.237205000000000155e+01 1.947134999999999991e+03
2.200000000000000219e-02 1.532890000000000086e-01 2.037964999999999804e+01 6.440380000000000393e+01 1.947570000000000164e+03
2.299999999999999961e-02 1.533530000000000171e-01 2.087894999999999968e+01 6.653540000000000987e+01 1.948085000000000036e+03
2.400000000000000050e-02 1.534194999999999864e-01 2.125345000000000084e+01 6.846850000000000591e+01 1.948619999999999891e+03
2.500000000000000139e-02 1.534790000000000043e-01 2.144874999999999687e+01 6.997409999999999286e+01 1.949110000000000127e+03
2.600000000000000228e-02 1.535279999999999978e-01 2.144950000000000045e+01 7.094104999999998995e+01 1.949514999999999873e+03
2.700000000000000316e-02 1.535624999999999907e-01 2.127615000000000123e+01 7.138374999999999204e+01 1.949809999999999945e+03
2.800000000000000058e-02 1.535845000000000127e-01 2.097214999999999918e+01 7.141315000000000168e+01 1.949994999999999891e+03
2.900000000000000147e-02 1.535954999999999959e-01 2.058655000000000257e+01 7.118574999999999875e+01 1.950095000000000027e+03
3.000000000000000236e-02 1.535989999999999855e-01 2.015845000000000198e+01 7.084900000000000375e+01 1.950130000000000109e+03
3.099999999999999978e-02 1.535980000000000123e-01 1.970765000000000100e+01 7.050020000000000664e+01 1.950130000000000109e+03
3.200000000000000067e-02 1.535940000000000083e-01 1.923329999999999984e+01 7.016925000000000523e+01 1.950105000000000018e+03
3.300000000000000155e-02 1.535885000000000167e-01 1.871990000000000265e+01 6.982650000000001000e+01 1.950059999999999945e+03
3.400000000000000244e-02 1.535790000000000211e-01 1.814744999999999919e+01 6.940840000000000032e+01 1.949990000000000009e+03
3.500000000000000333e-02 1.535655000000000214e-01 1.750229999999999819e+01 6.885184999999999889e+01 1.949890000000000100e+03
3.600000000000000422e-02 1.535465000000000024e-01 1.678584999999999994e+01 6.812604999999999222e+01 1.949740000000000009e+03
3.700000000000000511e-02 1.535214999999999774e-01 1.601899999999999835e+01 6.725234999999999275e+01 1.949559999999999945e+03
3.799999999999999906e-02 1.534935000000000049e-01 1.524000000000000199e+01 6.630845000000000766e+01 1.949339999999999918e+03
3.899999999999999994e-02 1.534645000000000037e-01 1.449875000000000114e+01 6.541559999999999775e+01 1.949110000000000127e+03
4.000000000000000083e-02 1.534375000000000044e-01 1.384625000000000128e+01 6.471235000000000070e+01 1.948900000000000091e+03
4.100000000000000172e-02 1.534179999999999988e-01 1.332504999999999917e+01 6.432375000000000398e+01 1.948735000000000127e+03
4.200000000000000261e-02 1.534079999999999888e-01 1.296004999999999896e+01 6.433275000000000432e+01 1.948644999999999982e+03
4.300000000000000350e-02 1.534099999999999908e-01 1.275474999999999959e+01 6.476170000000000471e+01 1.948654999999999973e+03
4.400000000000000439e-02 1.534240000000000048e-01 1.269079999999999941e+01 6.556759999999999877e+01 1.948759999999999991e+03
4.499999999999999833e-02 1.534490000000000021e-01 1.273195000000000121e+01 6.665019999999999811e+01 1.948950000000000045e+03
4.599999999999999922e-02 1.534820000000000073e-01 1.283094999999999963e+01 6.787049999999999272e+01 1.949195000000000164e+03
4.700000000000000011e-02 1.535190000000000166e-01 1.293694999999999951e+01 6.907460000000000377e+01 1.949480000000000018e+03
4.800000000000000100e-02 1.535549999999999971e-01 1.300239999999999974e+01 7.011670000000000869e+01 1.949764999999999873e+03
4.900000000000000189e-02 1.535860000000000003e-01 1.298825000000000074e+01 7.087749999999999773e+01 1.950014999999999873e+03
5.000000000000000278e-02 1.536095000000000099e-01 1.286725000000000030e+01 7.127625000000000455e+01 1.950200000000000045e+03
5.100000000000000366e-02 1.536219999999999808e-01 1.262410000000000032e+01 7.127385000000001014e+01 1.950309999999999945e+03
5.200000000000000455e-02 1.536224999999999952e-01 1.225464999999999982e+01 7.086934999999999718e+01 1.950320000000000164e+03
5.300000000000000544e-02 1.536109999999999975e-01 1.176314999999999955e+01 7.009205000000000041e+01 1.950235000000000127e+03
5.399999999999999939e-02 1.535874999999999879e-01 1.115974999999999895e+01 6.899084999999999468e+01 1.950049999999999955e+03
5.500000000000000028e-02 1.535529999999999951e-01 1.045805999999999969e+01 6.762395000000000778e+01 1.949780000000000200e+03
5.600000000000000117e-02 1.535090000000000066e-01 9.673255000000001047e+00 6.605124999999999602e+01 1.949440000000000055e+03
5.700000000000000205e-02 1.534584999999999977e-01 8.821144999999999570e+00 6.432910000000001105e+01 1.949034999999999854e+03
5.800000000000000294e-02 1.534004999999999952e-01 7.918205000000000382e+00 6.250894999999999868e+01 1.948579999999999927e+03
5.900000000000000383e-02 1.533395000000000175e-01 6.982009999999998939e+00 6.063824999999999932e+01 1.948094999999999800e+03
6.000000000000000472e-02 1.532749999999999946e-01 6.031750000000000611e+00 5.876270000000000238e+01 1.947590000000000146e+03
6.099999999999999867e-02 1.532094999999999985e-01 5.088940000000000019e+00 5.692945000000000277e+01 1.947070000000000164e+03
6.199999999999999956e-02 1.531454999999999900e-01 4.177599999999999980e+00 5.518909999999999627e+01 1.946559999999999945e+03
6.300000000000000044e-02 1.530834999999999835e-01 3.324139999999999873e+00 5.359675000000000011e+01 1.946065000000000055e+03
6.400000000000000133e-02 1.530265000000000097e-01 2.556579999999999853e+00 5.221174999999999500e+01 1.945605000000000018e+03
6.500000000000000222e-02 1.529760000000000009e-01 1.903527500000000039e+00 5.109555000000000291e+01 1.945199999999999818e+03
6.600000000000000311e-02 1.529345000000000010e-01 1.392709799999999998e+00 5.030849999999999511e+01 1.944869999999999891e+03
6.700000000000000400e-02 1.529044999999999987e-01 1.049460000000000059e+00 4.990599999999999881e+01 1.944615000000000009e+03
6.800000000000000488e-02 1.528875000000000095e-01 8.952700000000000102e-01 4.993500000000000227e+01 1.944470000000000027e+03
6.900000000000000577e-02 1.528845000000000065e-01 9.465029999999999832e-01 5.043025000000000091e+01 1.944434999999999945e+03
7.000000000000000666e-02 1.528979999999999784e-01 1.213532000000000055e+00 5.141185000000000116e+01 1.944525000000000091e+03
7.100000000000000755e-02 1.529274999999999940e-01 1.700180000000000025e+00 5.288410000000000366e+01 1.944750000000000000e+03
7.200000000000000844e-02 1.529739999999999989e-01 2.403688999999999965e+00 5.483504999999999541e+01 1.945105000000000018e+03
7.300000000000000933e-02 1.530369999999999786e-01 3.314994999999999692e+00 5.723780000000000001e+01 1.945595000000000027e+03
7.399999999999999634e-02 1.531164999999999887e-01 4.419399999999999551e+00 6.005219999999999914e+01 1.946204999999999927e+03
7.499999999999999722e-02 1.532104999999999995e-01 5.697509999999999408e+00 6.322785000000000366e+01 1.946940000000000055e+03
7.599999999999999811e-02 1.533169999999999811e-01 7.126299999999999635e+00 6.670714999999999861e+01 1.947779999999999973e+03
7.699999999999999900e-02 1.534360000000000168e-01 8.680464999999999876e+00 7.042875000000000796e+01 1.948715000000000146e+03
7.799999999999999989e-02 1.535635000000000194e-01 1.033351500000000023e+01 7.433115000000000805e+01 1.949724999999999909e+03
7.900000000000000078e-02 1.536990000000000023e-01 1.205905000000000094e+01 7.835545000000000471e+01 1.950795000000000073e+03
8.000000000000000167e-02 1.538400000000000045e-01 1.383178500000000000e+01 8.244829999999998904e+01 1.951914999999999964e+03
8.100000000000000255e-02 1.539845000000000241e-01 1.562849999999999895e+01 8.656409999999999627e+01 1.953070000000000164e+03
8.200000000000000344e-02 1.541310000000000180e-01 1.742855000000000132e+01 9.066579999999999018e+01 1.954244999999999891e+03
8.300000000000000433e-02 1.542789999999999995e-01 1.921455000000000268e+01 9.472594999999999743e+01 1.955430000000000064e+03
8.400000000000000522e-02 1.544264999999999943e-01 2.097200000000000131e+01 9.872554999999999836e+01 1.956615000000000009e+03
8.500000000000000611e-02 1.545725000000000016e-01 2.268945000000000078e+01 1.026536999999999864e+02 1.957799999999999955e+03
8.600000000000000699e-02 1.547175000000000078e-01 2.435829999999999984e+01 1.065073999999999899e+02 1.958965000000000146e+03
8.700000000000000788e-02 1.548609999999999987e-01 2.597210000000000107e+01 1.102865000000000038e+02 1.960130000000000109e+03
8.800000000000000877e-02 1.550020000000000009e-01 2.752619999999999933e+01 1.139944999999999879e+02 1.961275000000000091e+03
8.899999999999999578e-02 1.551414999999999877e-01 2.901704999999999757e+01 1.176359999999999957e+02 1.962409999999999854e+03
8.999999999999999667e-02 1.552790000000000004e-01 3.044194999999999851e+01 1.212139999999999986e+02 1.963525000000000091e+03
9.099999999999999756e-02 1.554145000000000110e-01 3.179860000000000042e+01 1.247319999999999993e+02 1.964625000000000000e+03
9.199999999999999845e-02 1.555479999999999918e-01 3.308464999999999634e+01 1.281879999999999882e+02 1.965719999999999800e+03
9.299999999999999933e-02 1.556794999999999984e-01 3.429780000000000229e+01 1.315790000000000077e+02 1.966789999999999964e+03
9.400000000000000022e-02 1.558085000000000164e-01 3.543560000000000088e+01 1.349010000000000105e+02 1.967849999999999909e+03
9.500000000000000111e-02 1.559349999999999903e-01 3.649540000000000362e+01 1.381440000000000055e+02 1.968889999999999873e+03
9.600000000000000200e-02 1.560595000000000176e-01 3.747440000000000282e+01 1.412984999999999900e+02 1.969909999999999854e+03
9.700000000000000289e-02 1.561804999999999999e-01 3.836979999999999791e+01 1.443539999999999850e+02 1.970904999999999973e+03
9.800000000000000377e-02 1.562979999999999925e-01 3.917880000000000251e+01 1.472980000000000018e+02 1.971869999999999891e+03
9.900000000000000466e-02 1.564114999999999811e-01 3.989844999999999686e+01 1.501184999999999832e+02 1.972809999999999945e+03
1.000000000000000056e-01 1.565205000000000068e-01 4.052625000000000455e+01 1.528034999999999854e+02 1.973704999999999927e+03
1.010000000000000064e-01 1.566255000000000008e-01 4.105960000000000321e+01 1.553405000000000200e+02 1.974570000000000164e+03
1.020000000000000073e-01 1.567244999999999888e-01 4.149609999999999843e+01 1.577195000000000107e+02 1.975394999999999982e+03
1.030000000000000082e-01 1.568184999999999996e-01 4.183375000000000199e+01 1.599284999999999854e+02 1.976170000000000073e+03
1.040000000000000091e-01 1.569059999999999899e-01 4.207079999999999842e+01 1.619590000000000032e+02 1.976900000000000091e+03
1.050000000000000100e-01 1.569875000000000020e-01 4.220610000000000639e+01 1.638020000000000209e+02 1.977570000000000164e+03
1.059999999999999970e-01 1.570615000000000205e-01 4.223899999999999721e+01 1.654515000000000100e+02 1.978195000000000164e+03
1.069999999999999979e-01 1.571295000000000053e-01 4.216965000000000430e+01 1.669014999999999986e+02 1.978755000000000109e+03
1.079999999999999988e-01 1.571894999999999820e-01 4.199909999999999854e+01 1.681494999999999891e+02 1.979264999999999873e+03
1.089999999999999997e-01 1.572429999999999939e-01 4.172955000000000325e+01 1.691965000000000146e+02 1.979710000000000036e+03
1.100000000000000006e-01 1.572884999999999978e-01 4.136414999999999509e+01 1.700434999999999945e+02 1.980095000000000027e+03
1.110000000000000014e-01 1.573269999999999946e-01 4.090744999999999720e+01 1.706979999999999791e+02 1.980420000000000073e+03
1.120000000000000023e-01 1.573585000000000123e-01 4.036520000000000152e+01 1.711675000000000182e+02 1.980684999999999945e+03
1.130000000000000032e-01 1.573829999999999951e-01 3.974415000000000475e+01 1.714644999999999868e+02 1.980894999999999982e+03
1.140000000000000041e-01 1.574010000000000131e-01 3.905225000000000080e+01 1.716030000000000086e+02 1.981054999999999836e+03
1.150000000000000050e-01 1.574129999999999974e-01 3.829814999999999969e+01 1.715994999999999777e+02 1.981159999999999854e+03
1.160000000000000059e-01 1.574194999999999900e-01 3.749119999999999919e+01 1.714710000000000036e+02 1.981224999999999909e+03
1.170000000000000068e-01 1.574214999999999920e-01 3.664099999999999824e+01 1.712375000000000114e+02 1.981240000000000009e+03
1.180000000000000077e-01 1.574185000000000167e-01 3.575730000000000075e+01 1.709159999999999968e+02 1.981230000000000018e+03
1.190000000000000085e-01 1.574125000000000107e-01 3.484954999999999359e+01 1.705260000000000105e+02 1.981184999999999945e+03
1.200000000000000094e-01 1.574035000000000017e-01 3.392685000000000173e+01 1.700835000000000150e+02 1.981109999999999900e+03
1.209999999999999964e-01 1.573919999999999764e-01 3.299759999999999849e+01 1.696045000000000016e+02 1.981019999999999982e+03
1.219999999999999973e-01 1.573785000000000045e-01 3.206929999999999836e+01 1.691014999999999873e+02 1.980914999999999964e+03
1.229999999999999982e-01 1.573634999999999895e-01 3.114850000000000207e+01 1.685850000000000080e+02 1.980789999999999964e+03
1.239999999999999991e-01 1.573479999999999879e-01 3.024045000000000272e+01 1.680645000000000095e+02 1.980659999999999854e+03
1.250000000000000000e-01 1.573309999999999986e-01 2.934944999999999737e+01 1.675444999999999993e+02 1.980525000000000091e+03
1.260000000000000009e-01 1.573140000000000094e-01 2.847834999999999894e+01 1.670289999999999964e+02 1.980384999999999991e+03
1.270000000000000018e-01 1.572969999999999924e-01 2.762900000000000134e+01 1.665175000000000125e+02 1.980240000000000009e+03
1.280000000000000027e-01 1.572790000000000021e-01 2.680199999999999960e+01 1.660085000000000264e+02 1.980095000000000027e+03
1.290000000000000036e-01 1.572609999999999841e-01 2.599685000000000201e+01 1.654989999999999952e+02 1.979945000000000164e+03
1.300000000000000044e-01 1.572430000000000216e-01 2.521224999999999739e+01 1.649830000000000041e+02 1.979795000000000073e+03
1.310000000000000053e-01 1.572244999999999893e-01 2.444590000000000174e+01 1.644544999999999959e+02 1.979639999999999873e+03
1.320000000000000062e-01 1.572049999999999836e-01 2.369510000000000005e+01 1.639055000000000177e+02 1.979474999999999909e+03
1.330000000000000071e-01 1.571850000000000191e-01 2.295644999999999669e+01 1.633274999999999864e+02 1.979315000000000055e+03
1.340000000000000080e-01 1.571639999999999981e-01 2.222654999999999959e+01 1.627125000000000057e+02 1.979134999999999991e+03
1.350000000000000089e-01 1.571410000000000029e-01 2.150159999999999982e+01 1.620525000000000091e+02 1.978944999999999936e+03
1.360000000000000098e-01 1.571170000000000067e-01 2.077815000000000012e+01 1.613414999999999964e+02 1.978744999999999891e+03
1.370000000000000107e-01 1.570904999999999940e-01 2.005294999999999916e+01 1.605710000000000264e+02 1.978529999999999973e+03
1.380000000000000115e-01 1.570624999999999938e-01 1.932325000000000159e+01 1.597379999999999995e+02 1.978295000000000073e+03
1.390000000000000124e-01 1.570325000000000193e-01 1.858689999999999998e+01 1.588385000000000105e+02 1.978049999999999955e+03
1.400000000000000133e-01 1.569989999999999997e-01 1.784250000000000114e+01 1.578725000000000023e+02 1.977779999999999973e+03
1.410000000000000142e-01 1.569639999999999924e-01 1.708960000000000079e+01 1.568394999999999868e+02 1.977490000000000009e+03
1.420000000000000151e-01 1.569269999999999832e-01 1.632849999999999824e+01 1.557439999999999998e+02 1.977180000000000064e+03
1.430000000000000160e-01 1.568869999999999987e-01 1.556075000000000053e+01 1.545910000000000082e+02 1.976855000000000018e+03
1.440000000000000169e-01 1.568450000000000122e-01 1.478855000000000075e+01 1.533885000000000218e+02 1.976509999999999991e+03
1.450000000000000178e-01 1.568014999999999826e-01 1.401520000000000010e+01 1.521465000000000032e+02 1.976154999999999973e+03
1.459999999999999909e-01 1.567565000000000208e-01 1.324469999999999992e+01 1.508760000000000048e+02 1.975789999999999964e+03
1.469999999999999918e-01 1.567099999999999882e-01 1.248165000000000013e+01 1.495894999999999868e+02 1.975409999999999854e+03
1.479999999999999927e-01 1.566635000000000111e-01 1.173129499999999936e+01 1.483009999999999877e+02 1.975025000000000091e+03
1.489999999999999936e-01 1.566164999999999918e-01 1.099897499999999972e+01 1.470244999999999891e+02 1.974634999999999991e+03
1.499999999999999944e-01 1.565690000000000137e-01 1.029017999999999944e+01 1.457740000000000009e+02 1.974255000000000109e+03
1.509999999999999953e-01 1.565229999999999955e-01 9.610295000000000698e+00 1.445614999999999952e+02 1.973875000000000000e+03
1.519999999999999962e-01 1.564780000000000060e-01 8.964209999999999567e+00 1.433990000000000009e+02 1.973505000000000109e+03
1.529999999999999971e-01 1.564345000000000041e-01 8.356374999999999886e+00 1.422980000000000018e+02 1.973150000000000091e+03
1.539999999999999980e-01 1.563930000000000042e-01 7.790580000000000283e+00 1.412665000000000077e+02 1.972804999999999836e+03
1.549999999999999989e-01 1.563534999999999786e-01 7.269730000000000025e+00 1.403100000000000023e+02 1.972480000000000018e+03
1.559999999999999998e-01 1.563169999999999837e-01 6.795885000000000176e+00 1.394345000000000141e+02 1.972179999999999836e+03
1.570000000000000007e-01 1.562824999999999909e-01 6.370165000000000077e+00 1.386394999999999982e+02 1.971894999999999982e+03
1.580000000000000016e-01 1.562514999999999876e-01 5.992765000000000342e+00 1.379264999999999759e+02 1.971634999999999991e+03
1.590000000000000024e-01 1.562230000000000008e-01 5.662990000000000634e+00 1.372925000000000182e+02 1.971400000000000091e+03
