# t [s], A [cm^2], U [cm/s], P [cPa], c [cm/s]
1.000000000000000021e-03 5.821889999999999565e-01 3.972699999999995679e-03 9.634309999999999263e+01 1.555744999999999891e+03
2.000000000000000042e-03 5.821804999999999897e-01 -1.786557000000000032e-03 9.632359999999999900e+01 1.555735000000000127e+03
3.000000000000000062e-03 5.822114999999999929e-01 5.250599999999999712e-02 9.637784999999999513e+01 1.555750000000000000e+03
4.000000000000000083e-03 5.822589999999999710e-01 1.402744999999999964e-01 9.648775000000000546e+01 1.555775000000000091e+03
5.000000000000000104e-03 5.822650000000000325e-01 1.605716500000000102e-01 9.651255000000000450e+01 1.555784999999999854e+03
6.000000000000000125e-03 5.822275000000000089e-01 1.034034999999999954e-01 9.640709999999999980e+01 1.555764999999999873e+03
7.000000000000000146e-03 5.821870000000000100e-01 3.689250000000002250e-02 9.623840000000001282e+01 1.555730000000000018e+03
8.000000000000000167e-03 5.821460000000000523e-01 -3.482099999999999085e-02 9.602465000000000828e+01 1.555684999999999945e+03
9.000000000000001055e-03 5.820764999999999967e-01 -1.678689999999999904e-01 9.570319999999999538e+01 1.555619999999999891e+03
1.000000000000000194e-02 5.819650000000000656e-01 -3.894099999999999229e-01 9.522325000000000728e+01 1.555514999999999873e+03
1.099999999999999936e-02 5.818039999999999878e-01 -7.098850000000000993e-01 9.454635000000000389e+01 1.555369999999999891e+03
1.200000000000000025e-02 5.815820000000000434e-01 -1.144290000000000251e+00 9.362600000000000477e+01 1.555175000000000182e+03
1.300000000000000114e-02 5.812964999999999938e-01 -1.685214999999999907e+00 9.243880000000000052e+01 1.554909999999999854e+03
1.400000000000000203e-02 5.809684999999999988e-01 -2.276944999999999997e+00 9.102479999999999905e+01 1.554595000000000027e+03
1.499999999999999944e-02 5.806360000000000410e-01 -2.828359999999999985e+00 8.948560000000000514e+01 1.554240000000000009e+03
1.600000000000000033e-02 5.803319999999999590e-01 -3.250776500000000180e+00 8.794290000000000873e+01 1.553865000000000009e+03
1.700000000000000122e-02 5.800754999999999661e-01 -3.489384999999999959e+00 8.649365000000000236e+01 1.553505000000000109e+03
1.800000000000000211e-02 5.798645000000000049e-01 -3.533336699999999997e+00 8.518404999999999916e+01 1.553154999999999973e+03
1.900000000000000300e-02 5.796814999999999607e-01 -3.407739000000000296e+00 8.400860000000000127e+01 1.552829999999999927e+03
2.000000000000000042e-02 5.795065000000000355e-01 -3.157035000000000036e+00 8.292484999999999218e+01 1.552514999999999873e+03
2.100000000000000130e-02 5.793184999999999585e-01 -2.827656950000000169e+00 8.187520000000000664e+01 1.552204999999999927e+03
2.200000000000000219e-02 5.791070000000000384e-01 -2.454573499999999964e+00 8.080769999999999698e+01 1.551894999999999982e+03
2.299999999999999961e-02 5.788685000000000080e-01 -2.054294999999999760e+00 7.969120000000000914e+01 1.551575000000000045e+03
2.400000000000000050e-02 5.786094999999999988e-01 -1.625354999999999883e+00 7.852129999999999654e+01 1.551235000000000127e+03
2.500000000000000139e-02 5.783409999999999940e-01 -1.155414999999999859e+00 7.731515000000000271e+01 1.550889999999999873e+03
2.600000000000000228e-02 5.780724999999999891e-01 -6.317750000000001975e-01 7.610030000000000427e+01 1.550545000000000073e+03
2.700000000000000316e-02 5.778105000000000047e-01 -5.121000000000019980e-02 7.490010000000000900e+01 1.550200000000000045e+03
2.800000000000000058e-02 5.775540000000000118e-01 5.740349999999998509e-01 7.372214999999999918e+01 1.549855000000000018e+03
2.900000000000000147e-02 5.772935000000000150e-01 1.215550000000000130e+00 7.255289999999999395e+01 1.549514999999999873e+03
3.000000000000000236e-02 5.770180000000000309e-01 1.832739999999999814e+00 7.135869999999999891e+01 1.549164999999999964e+03
3.099999999999999978e-02 5.767114999999999325e-01 2.380125000000000046e+00 7.009319999999999595e+01 1.548809999999999945e+03
3.200000000000000067e-02 5.763635000000000286e-01 2.816034999999999844e+00 6.870759999999999934e+01 1.548425000000000182e+03
3.300000000000000155e-02 5.759659999999999780e-01 3.110619999999999941e+00 6.716355000000000075e+01 1.548005000000000109e+03
3.400000000000000244e-02 5.755204999999999904e-01 3.251524999999999999e+00 6.544285000000000707e+01 1.547550000000000182e+03
3.500000000000000333e-02 5.750340000000000451e-01 3.245935000000000237e+00 6.355440000000000111e+01 1.547059999999999945e+03
3.600000000000000422e-02 5.745219999999999771e-01 3.118385000000000407e+00 6.153470000000000084e+01 1.546545000000000073e+03
3.700000000000000511e-02 5.740030000000000410e-01 2.905665000000000386e+00 5.944339999999999691e+01 1.546005000000000109e+03
3.799999999999999906e-02 5.734980000000000633e-01 2.650139999999999940e+00 5.735490000000000066e+01 1.545470000000000027e+03
3.899999999999999994e-02 5.730250000000000066e-01 2.393079999999999874e+00 5.534839999999999804e+01 1.544944999999999936e+03
4.000000000000000083e-02 5.725999999999999979e-01 2.170045000000000002e+00 5.349899999999999523e+01 1.544454999999999927e+03
4.100000000000000172e-02 5.722344999999999793e-01 2.008209999999999607e+00 5.187100000000000222e+01 1.544009999999999991e+03
4.200000000000000261e-02 5.719359999999999999e-01 1.926164999999999905e+00 5.051429999999999865e+01 1.543625000000000000e+03
4.300000000000000350e-02 5.717090000000000227e-01 1.935205000000000286e+00 4.946370000000000289e+01 1.543315000000000055e+03
4.400000000000000439e-02 5.715550000000000352e-01 2.041659999999999808e+00 4.874020000000000152e+01 1.543079999999999927e+03
4.499999999999999833e-02 5.714744999999999964e-01 2.249389000000000305e+00 4.835450000000000159e+01 1.542929999999999836e+03
4.599999999999999922e-02 5.714675000000000171e-01 2.561894999999999811e+00 4.830995000000000061e+01 1.542865000000000009e+03
4.700000000000000011e-02 5.715350000000000152e-01 2.983500000000000263e+00 4.860580000000000211e+01 1.542884999999999991e+03
4.800000000000000100e-02 5.716755000000000031e-01 3.519585000000000186e+00 4.923924999999999841e+01 1.542994999999999891e+03
4.900000000000000189e-02 5.718900000000000095e-01 4.175874999999999559e+00 5.020595000000000141e+01 1.543190000000000055e+03
5.000000000000000278e-02 5.721775000000000055e-01 4.957069999999999865e+00 5.149984999999999502e+01 1.543470000000000027e+03
5.100000000000000366e-02 5.725365000000000038e-01 5.865404999999999980e+00 5.311199999999999477e+01 1.543840000000000146e+03
5.200000000000000455e-02 5.729640000000000288e-01 6.899205000000000254e+00 5.502884999999999849e+01 1.544279999999999973e+03
5.300000000000000544e-02 5.734555000000000069e-01 8.052274999999999849e+00 5.723140000000000072e+01 1.544804999999999836e+03
5.399999999999999939e-02 5.740034999999999998e-01 9.313430000000000319e+00 5.969445000000000334e+01 1.545394999999999982e+03
5.500000000000000028e-02 5.746005000000000695e-01 1.066712499999999864e+01 6.238660000000000139e+01 1.546049999999999955e+03
5.600000000000000117e-02 5.752374999999999572e-01 1.209454500000000010e+01 6.527154999999999063e+01 1.546759999999999991e+03
5.700000000000000205e-02 5.759039999999999715e-01 1.357450000000000045e+01 6.830934999999999491e+01 1.547519999999999982e+03
5.800000000000000294e-02 5.765919999999999934e-01 1.508528500000000072e+01 7.145844999999999914e+01 1.548315000000000055e+03
5.900000000000000383e-02 5.772914999999999575e-01 1.660573499999999925e+01 7.467825000000000557e+01 1.549134999999999991e+03
6.000000000000000472e-02 5.779954999999999954e-01 1.811636500000000183e+01 7.793039999999999168e+01 1.549974999999999909e+03
6.099999999999999867e-02 5.786964999999999471e-01 1.960045000000000215e+01 8.118115000000000236e+01 1.550825000000000045e+03
6.199999999999999956e-02 5.793895000000000017e-01 2.104400000000000048e+01 8.440215000000000600e+01 1.551664999999999964e+03
6.300000000000000044e-02 5.800710000000000033e-01 2.243634999999999735e+01 8.757134999999999536e+01 1.552509999999999991e+03
6.400000000000000133e-02 5.807379999999999765e-01 2.376980000000000004e+01 9.067215000000000202e+01 1.553340000000000146e+03
6.500000000000000222e-02 5.813895000000000035e-01 2.503925000000000267e+01 9.369519999999999982e+01 1.554160000000000082e+03
6.600000000000000311e-02 5.820250000000000146e-01 2.624184999999999945e+01 9.663569999999999993e+01 1.554960000000000036e+03
6.700000000000000400e-02 5.826455000000000384e-01 2.737640000000000029e+01 9.949219999999999686e+01 1.555744999999999891e+03
6.800000000000000488e-02 5.832509999999999639e-01 2.844284999999999997e+01 1.022677000000000049e+02 1.556509999999999991e+03
6.900000000000000577e-02 5.838425000000000420e-01 2.944194999999999851e+01 1.049660999999999973e+02 1.557255000000000109e+03
7.000000000000000666e-02 5.844215000000000382e-01 3.037474999999999881e+01 1.075933500000000009e+02 1.557985000000000127e+03
7.100000000000000755e-02 5.849884999999999113e-01 3.124199999999999733e+01 1.101535000000000082e+02 1.558699999999999818e+03
7.200000000000000844e-02 5.855440000000000644e-01 3.204444999999999766e+01 1.126510000000000105e+02 1.559394999999999982e+03
7.300000000000000933e-02 5.860880000000000534e-01 3.278215000000000146e+01 1.150875000000000057e+02 1.560079999999999927e+03
7.399999999999999634e-02 5.866199999999999193e-01 3.345445000000000135e+01 1.174639999999999986e+02 1.560744999999999891e+03
7.499999999999999722e-02 5.871389999999999665e-01 3.406034999999999968e+01 1.197779999999999916e+02 1.561394999999999982e+03
7.599999999999999811e-02 5.876434999999999853e-01 3.459805000000000064e+01 1.220244999999999891e+02 1.562029999999999973e+03
7.699999999999999900e-02 5.881324999999999470e-01 3.506564999999999799e+01 1.241979999999999933e+02 1.562650000000000091e+03
7.799999999999999989e-02 5.886029999999999873e-01 3.546099999999999852e+01 1.262895000000000039e+02 1.563244999999999891e+03
7.900000000000000078e-02 5.890530000000000488e-01 3.578209999999999980e+01 1.282909999999999968e+02 1.563815000000000055e+03
8.000000000000000167e-02 5.894810000000000327e-01 3.602720000000000056e+01 1.301935000000000002e+02 1.564365000000000009e+03
8.100000000000000255e-02 5.898855000000000626e-01 3.619519999999999982e+01 1.319875000000000114e+02 1.564880000000000109e+03
8.200000000000000344e-02 5.902640000000000109e-01 3.628549999999999898e+01 1.336659999999999968e+02 1.565375000000000000e+03
8.300000000000000433e-02 5.906145000000000422e-01 3.629824999999999591e+01 1.352199999999999989e+02 1.565835000000000036e+03
8.400000000000000522e-02 5.909375000000000044e-01 3.623434999999999917e+01 1.366454999999999984e+02 1.566255000000000109e+03
8.500000000000000611e-02 5.912315000000000209e-01 3.609534999999999627e+01 1.379375000000000000e+02 1.566644999999999982e+03
8.600000000000000699e-02 5.914960000000000218e-01 3.588349999999999795e+01 1.390949999999999989e+02 1.567005000000000109e+03
8.700000000000000788e-02 5.917310000000000070e-01 3.560160000000000480e+01 1.401154999999999973e+02 1.567319999999999936e+03
8.800000000000000877e-02 5.919364999999999766e-01 3.525315000000000509e+01 1.410004999999999882e+02 1.567599999999999909e+03
8.899999999999999578e-02 5.921134999999999593e-01 3.484205000000000041e+01 1.417529999999999859e+02 1.567849999999999909e+03
8.999999999999999667e-02 5.922625000000000250e-01 3.437274999999999636e+01 1.423760000000000048e+02 1.568054999999999836e+03
9.099999999999999756e-02 5.923849999999999394e-01 3.385040000000000049e+01 1.428750000000000000e+02 1.568230000000000018e+03
9.199999999999999845e-02 5.924814999999999943e-01 3.328045000000000186e+01 1.432570000000000050e+02 1.568369999999999891e+03
9.299999999999999933e-02 5.925549999999999429e-01 3.266880000000000450e+01 1.435294999999999845e+02 1.568485000000000127e+03
9.400000000000000022e-02 5.926065000000000360e-01 3.202199999999999847e+01 1.437015000000000100e+02 1.568565000000000055e+03
9.500000000000000111e-02 5.926384999999999570e-01 3.134675000000000011e+01 1.437824999999999989e+02 1.568615000000000009e+03
9.600000000000000200e-02 5.926540000000000141e-01 3.065005000000000024e+01 1.437845000000000084e+02 1.568644999999999982e+03
9.700000000000000289e-02 5.926540000000000141e-01 2.993885000000000218e+01 1.437169999999999845e+02 1.568655000000000200e+03
9.800000000000000377e-02 5.926420000000000021e-01 2.921995000000000076e+01 1.435925000000000011e+02 1.568644999999999982e+03
9.900000000000000466e-02 5.926204999999999945e-01 2.849989999999999668e+01 1.434230000000000018e+02 1.568619999999999891e+03
1.000000000000000056e-01 5.925905000000000200e-01 2.778464999999999918e+01 1.432175000000000011e+02 1.568585000000000036e+03
1.010000000000000064e-01 5.925555000000000128e-01 2.707925000000000182e+01 1.429879999999999995e+02 1.568534999999999854e+03
1.020000000000000073e-01 5.925165000000000015e-01 2.638795000000000002e+01 1.427420000000000186e+02 1.568480000000000018e+03
1.030000000000000082e-01 5.924749999999999739e-01 2.571395000000000053e+01 1.424869999999999948e+02 1.568420000000000073e+03
1.040000000000000091e-01 5.924320000000000697e-01 2.505935000000000201e+01 1.422289999999999850e+02 1.568355000000000018e+03
1.050000000000000100e-01 5.923884999999999845e-01 2.442510000000000048e+01 1.419714999999999918e+02 1.568289999999999964e+03
1.059999999999999970e-01 5.923435000000000228e-01 2.381099999999999994e+01 1.417164999999999964e+02 1.568220000000000027e+03
1.069999999999999979e-01 5.922979999999999912e-01 2.321604999999999919e+01 1.414644999999999868e+02 1.568150000000000091e+03
1.079999999999999988e-01 5.922514999999999308e-01 2.263824999999999932e+01 1.412144999999999868e+02 1.568085000000000036e+03
1.089999999999999997e-01 5.922030000000000349e-01 2.207504999999999740e+01 1.409639999999999986e+02 1.568014999999999873e+03
1.100000000000000006e-01 5.921514999999999418e-01 2.152329999999999899e+01 1.407090000000000032e+02 1.567940000000000055e+03
1.110000000000000014e-01 5.920969999999999844e-01 2.097939999999999827e+01 1.404470000000000027e+02 1.567869999999999891e+03
1.120000000000000023e-01 5.920380000000000642e-01 2.043984999999999985e+01 1.401719999999999970e+02 1.567789999999999964e+03
1.130000000000000032e-01 5.919740000000000002e-01 1.990105000000000146e+01 1.398804999999999836e+02 1.567710000000000036e+03
1.140000000000000041e-01 5.919035000000000268e-01 1.935950000000000060e+01 1.395679999999999836e+02 1.567625000000000000e+03
1.150000000000000050e-01 5.918265000000000331e-01 1.881210000000000093e+01 1.392305000000000064e+02 1.567529999999999973e+03
1.160000000000000059e-01 5.917419999999999902e-01 1.825614999999999810e+01 1.388660000000000139e+02 1.567434999999999945e+03
1.170000000000000068e-01 5.916500000000000092e-01 1.768959999999999866e+01 1.384714999999999918e+02 1.567329999999999927e+03
1.180000000000000077e-01 5.915509999999999380e-01 1.711094999999999899e+01 1.380459999999999923e+02 1.567219999999999800e+03
1.190000000000000085e-01 5.914445000000000396e-01 1.651935000000000286e+01 1.375904999999999916e+02 1.567095000000000027e+03
1.200000000000000094e-01 5.913319999999999688e-01 1.591489999999999938e+01 1.371064999999999827e+02 1.566974999999999909e+03
1.209999999999999964e-01 5.912135000000000584e-01 1.529819999999999958e+01 1.365960000000000036e+02 1.566835000000000036e+03
1.219999999999999973e-01 5.910900000000000043e-01 1.467079999999999984e+01 1.360625000000000000e+02 1.566700000000000045e+03
1.229999999999999982e-01 5.909634999999999749e-01 1.403491000000000000e+01 1.355130000000000052e+02 1.566555000000000064e+03
1.239999999999999991e-01 5.908349999999999991e-01 1.339334000000000024e+01 1.349515000000000100e+02 1.566404999999999973e+03
1.250000000000000000e-01 5.907059999999999533e-01 1.274954999999999927e+01 1.343854999999999791e+02 1.566255000000000109e+03
1.260000000000000009e-01 5.905789999999999651e-01 1.210736499999999971e+01 1.338229999999999791e+02 1.566110000000000127e+03
1.270000000000000018e-01 5.904544999999999932e-01 1.147103500000000054e+01 1.332704999999999984e+02 1.565960000000000036e+03
1.280000000000000027e-01 5.903355000000000130e-01 1.084492999999999974e+01 1.327379999999999995e+02 1.565815000000000055e+03
1.290000000000000036e-01 5.902239999999999709e-01 1.023342000000000063e+01 1.322314999999999827e+02 1.565679999999999836e+03
1.300000000000000044e-01 5.901205000000000478e-01 9.640765000000000029e+00 1.317590000000000146e+02 1.565545000000000073e+03
1.310000000000000053e-01 5.900274999999999270e-01 9.071085000000000065e+00 1.313280000000000030e+02 1.565430000000000064e+03
1.320000000000000062e-01 5.899450000000000527e-01 8.527850000000000819e+00 1.309435000000000002e+02 1.565319999999999936e+03
1.330000000000000071e-01 5.898749999999999272e-01 8.014205000000000467e+00 1.306105000000000018e+02 1.565219999999999800e+03
1.340000000000000080e-01 5.898174999999999946e-01 7.532420000000000115e+00 1.303329999999999984e+02 1.565134999999999991e+03
1.350000000000000089e-01 5.897729999999999917e-01 7.084279999999999688e+00 1.301125000000000114e+02 1.565065000000000055e+03
1.360000000000000098e-01 5.897414999999999186e-01 6.670659999999999812e+00 1.299495000000000005e+02 1.565014999999999873e+03
1.370000000000000107e-01 5.897224999999999273e-01 6.291734999999999189e+00 1.298430000000000177e+02 1.564970000000000027e+03
1.380000000000000115e-01 5.897155000000000591e-01 5.946920000000000428e+00 1.297914999999999850e+02 1.564945000000000164e+03
1.390000000000000124e-01 5.897189999999999932e-01 5.634959999999999525e+00 1.297900000000000205e+02 1.564934999999999945e+03
1.400000000000000133e-01 5.897330000000000627e-01 5.354004999999999903e+00 1.298340000000000032e+02 1.564930000000000064e+03
1.410000000000000142e-01 5.897550000000000292e-01 5.101709999999999745e+00 1.299184999999999945e+02 1.564940000000000055e+03
1.420000000000000151e-01 5.897839999999999749e-01 4.875365000000000393e+00 1.300364999999999895e+02 1.564960000000000036e+03
1.430000000000000160e-01 5.898185000000000233e-01 4.671984999999999388e+00 1.301814999999999998e+02 1.564990000000000009e+03
1.440000000000000169e-01 5.898559999999999359e-01 4.488480000000000025e+00 1.303460000000000036e+02 1.565025000000000091e+03
1.450000000000000178e-01 5.898970000000000047e-01 4.321690000000000254e+00 1.305240000000000009e+02 1.565065000000000055e+03
1.459999999999999909e-01 5.899380000000000734e-01 4.168580000000000396e+00 1.307085000000000150e+02 1.565110000000000127e+03
1.469999999999999918e-01 5.899794999999999900e-01 4.026229999999999976e+00 1.308934999999999889e+02 1.565154999999999973e+03
1.479999999999999927e-01 5.900195000000000300e-01 3.891960000000000086e+00 1.310740000000000123e+02 1.565194999999999936e+03
1.489999999999999936e-01 5.900569999999999427e-01 3.763370000000000104e+00 1.312439999999999998e+02 1.565235000000000127e+03
1.499999999999999944e-01 5.900914999999999910e-01 3.638345000000000162e+00 1.314010000000000105e+02 1.565280000000000200e+03
1.509999999999999953e-01 5.901224999999999943e-01 3.515099999999999891e+00 1.315414999999999850e+02 1.565315000000000055e+03
1.519999999999999962e-01 5.901484999999999648e-01 3.392174999999999940e+00 1.316630000000000109e+02 1.565349999999999909e+03
1.529999999999999971e-01 5.901710000000000012e-01 3.268435000000000201e+00 1.317640000000000100e+02 1.565375000000000000e+03
1.539999999999999980e-01 5.901885000000000048e-01 3.143029999999999990e+00 1.318430000000000177e+02 1.565400000000000091e+03
1.549999999999999989e-01 5.902015000000000455e-01 3.015425000000000022e+00 1.319010000000000105e+02 1.565420000000000073e+03
1.559999999999999998e-01 5.902100000000000124e-01 2.885299999999999976e+00 1.319370000000000118e+02 1.565429999999999836e+03
1.570000000000000007e-01 5.902140000000000164e-01 2.752590000000000092e+00 1.319524999999999864e+02 1.565434999999999945e+03
1.580000000000000016e-01 5.902140000000000164e-01 2.617399999999999949e+00 1.319480000000000075e+02 1.565440000000000055e+03
1.590000000000000024e-01 5.902100000000000124e-01 2.480005000000000237e+00 1.319245000000000232e+02 1.565434999999999945e+03
