# t [s], A [cm^2], U [cm/s], P [cPa], c [cm/s]
1.000000000000000021e-03 7.885044999999999416e-01 5.444499999999997952e-03 1.065949999999999989e+02 1.603914999999999964e+03
2.000000000000000042e-03 7.884925000000000406e-01 2.275880000000000090e-03 1.065655000000000001e+02 1.603904999999999973e+03
3.000000000000000062e-03 7.885824999999999640e-01 1.326402000000000136e-01 1.067044999999999959e+02 1.603934999999999945e+03
4.000000000000000083e-03 7.886325000000000696e-01 2.225340500000000110e-01 1.068059999999999974e+02 1.603965000000000146e+03
5.000000000000000104e-03 7.885595000000000798e-01 1.496874999999999734e-01 1.066554999999999893e+02 1.603929999999999836e+03
6.000000000000000125e-03 7.884520000000000417e-01 1.833249999999997382e-02 1.063329999999999984e+02 1.603860000000000127e+03
7.000000000000000146e-03 7.883419999999999872e-01 -1.287250000000000894e-01 1.059149999999999920e+02 1.603765000000000100e+03
8.000000000000000167e-03 7.881469999999999310e-01 -4.164750000000000396e-01 1.052554999999999978e+02 1.603619999999999891e+03
9.000000000000001055e-03 7.878514999999999269e-01 -8.667249999999999677e-01 1.042775000000000034e+02 1.603400000000000091e+03
1.000000000000000194e-02 7.874559999999999338e-01 -1.464490000000000069e+00 1.029488000000000056e+02 1.603099999999999909e+03
1.099999999999999936e-02 7.869254999999999445e-01 -2.238039999999999807e+00 1.011852999999999980e+02 1.602695000000000164e+03
1.200000000000000025e-02 7.862554999999999961e-01 -3.165655000000000108e+00 9.895504999999999995e+01 1.602174999999999955e+03
1.300000000000000114e-02 7.855269999999999753e-01 -4.094454999999999956e+00 9.640944999999999254e+01 1.601565000000000055e+03
1.400000000000000203e-02 7.848675000000000512e-01 -4.796522000000000396e+00 9.385599999999999454e+01 1.600920000000000073e+03
1.499999999999999944e-02 7.843689999999999829e-01 -5.092928000000000566e+00 9.160224999999999795e+01 1.600325000000000045e+03
1.600000000000000033e-02 7.840480000000000782e-01 -4.931359999999999744e+00 8.981749999999999545e+01 1.599809999999999945e+03
1.700000000000000122e-02 7.838484999999999481e-01 -4.386775000000000091e+00 8.848510000000000275e+01 1.599389999999999873e+03
1.800000000000000211e-02 7.836775000000000269e-01 -3.613580000000000236e+00 8.743690000000000850e+01 1.599029999999999973e+03
1.900000000000000300e-02 7.834459999999999757e-01 -2.780101000000000155e+00 8.643520000000000891e+01 1.598690000000000055e+03
2.000000000000000042e-02 7.830980000000000718e-01 -2.007948999999999984e+00 8.526939999999999031e+01 1.598319999999999936e+03
2.100000000000000130e-02 7.826299999999999368e-01 -1.337044999999999817e+00 8.383119999999999550e+01 1.597894999999999982e+03
2.200000000000000219e-02 7.820825000000000138e-01 -7.309449999999999559e-01 8.213755000000000450e+01 1.597420000000000073e+03
2.299999999999999961e-02 7.815140000000000420e-01 -1.167900000000003935e-01 8.029529999999999745e+01 1.596904999999999973e+03
2.400000000000000050e-02 7.809699999999999420e-01 5.644950000000004131e-01 7.843270000000001119e+01 1.596380000000000109e+03
2.500000000000000139e-02 7.804664999999999520e-01 1.321995000000000253e+00 7.663445000000000107e+01 1.595860000000000127e+03
2.600000000000000228e-02 7.799829999999999819e-01 2.103060000000000151e+00 7.490344999999999231e+01 1.595355000000000018e+03
2.700000000000000316e-02 7.794719999999999427e-01 2.804084999999999717e+00 7.315510000000000446e+01 1.594845000000000027e+03
2.800000000000000058e-02 7.788734999999999964e-01 3.296520000000000117e+00 7.124125000000000796e+01 1.594304999999999836e+03
2.900000000000000147e-02 7.781335000000000335e-01 3.460189999999999877e+00 6.899289999999999168e+01 1.593695000000000164e+03
3.000000000000000236e-02 7.772205000000000918e-01 3.215920000000000112e+00 6.627264999999999873e+01 1.592985000000000127e+03
3.099999999999999978e-02 7.761360000000000481e-01 2.548094999999999999e+00 6.302100000000000080e+01 1.592155000000000200e+03
3.200000000000000067e-02 7.749174999999999258e-01 1.511009999999999742e+00 5.928234999999999388e+01 1.591215000000000146e+03
3.300000000000000155e-02 7.736319999999999864e-01 2.159500000000003084e-01 5.520335000000000036e+01 1.590190000000000055e+03
3.400000000000000244e-02 7.723590000000000177e-01 -1.193550000000000111e+00 5.100589999999999691e+01 1.589115000000000009e+03
3.500000000000000333e-02 7.711775000000000713e-01 -2.570329999999999337e+00 4.694689999999999941e+01 1.588069999999999936e+03
3.600000000000000422e-02 7.701544999999999641e-01 -3.785819999999999741e+00 4.327674999999999983e+01 1.587090000000000146e+03
3.700000000000000511e-02 7.693379999999999663e-01 -4.744044999999999845e+00 4.020669999999999789e+01 1.586235000000000127e+03
3.799999999999999906e-02 7.687559999999999949e-01 -5.385724000000000622e+00 3.788854999999999507e+01 1.585555000000000064e+03
3.899999999999999994e-02 7.684165000000000578e-01 -5.684895000000000032e+00 3.640805000000000291e+01 1.585074999999999818e+03
4.000000000000000083e-02 7.683145000000000113e-01 -5.641065000000000218e+00 3.578914999999999935e+01 1.584805000000000064e+03
4.100000000000000172e-02 7.684360000000000079e-01 -5.269230000000000302e+00 3.600719999999999743e+01 1.584744999999999891e+03
4.200000000000000261e-02 7.687610000000000277e-01 -4.590852499999999559e+00 3.700499999999999545e+01 1.584889999999999873e+03
4.300000000000000350e-02 7.692710000000000381e-01 -3.627810000000000201e+00 3.870895000000000152e+01 1.585224999999999909e+03
4.400000000000000439e-02 7.699454999999999494e-01 -2.400305000000000355e+00 4.104010000000000247e+01 1.585735000000000127e+03
4.499999999999999833e-02 7.707675000000000498e-01 -9.284550000000000303e-01 4.391955000000000098e+01 1.586400000000000091e+03
4.599999999999999922e-02 7.717160000000000686e-01 7.640000000000002345e-01 4.726864999999999384e+01 1.587194999999999936e+03
4.700000000000000011e-02 7.727705000000000268e-01 2.645804999999999740e+00 5.100564999999999571e+01 1.588109999999999900e+03
4.800000000000000100e-02 7.739034999999999664e-01 4.676074999999999093e+00 5.504270000000000351e+01 1.589115000000000009e+03
4.900000000000000189e-02 7.750874999999999293e-01 6.804310000000000080e+00 5.928430000000000177e+01 1.590190000000000055e+03
5.000000000000000278e-02 7.762915000000000232e-01 8.973214999999999719e+00 6.362884999999999991e+01 1.591299999999999955e+03
5.100000000000000366e-02 7.774849999999999817e-01 1.112276450000000061e+01 6.797284999999999400e+01 1.592430000000000064e+03
5.200000000000000455e-02 7.786405000000000687e-01 1.319533000000000023e+01 7.221715000000000373e+01 1.593554999999999836e+03
5.300000000000000544e-02 7.797339999999999272e-01 1.514048999999999978e+01 7.627400000000000091e+01 1.594650000000000091e+03
5.399999999999999939e-02 7.807494999999999852e-01 1.691826999999999970e+01 8.007294999999999163e+01 1.595694999999999936e+03
5.500000000000000028e-02 7.816760000000000375e-01 1.850165000000000148e+01 8.356525000000000603e+01 1.596664999999999964e+03
5.600000000000000117e-02 7.825115000000000265e-01 1.987640000000000029e+01 8.672560000000000002e+01 1.597565000000000055e+03
5.700000000000000205e-02 7.832585000000000797e-01 2.104054999999999964e+01 8.955155000000000598e+01 1.598384999999999991e+03
5.800000000000000294e-02 7.839249999999999829e-01 2.200234999999999985e+01 9.206090000000000373e+01 1.599125000000000000e+03
5.900000000000000383e-02 7.845225000000000115e-01 2.277779999999999916e+01 9.428780000000000427e+01 1.599800000000000182e+03
6.000000000000000472e-02 7.850654999999999717e-01 2.338870000000000005e+01 9.627805000000000746e+01 1.600400000000000091e+03
6.099999999999999867e-02 7.855674999999999741e-01 2.386074999999999946e+01 9.808530000000000371e+01 1.600954999999999927e+03
6.199999999999999956e-02 7.860445000000000348e-01 2.422189999999999799e+01 9.976605000000000700e+01 1.601474999999999909e+03
6.300000000000000044e-02 7.865119999999999889e-01 2.450140000000000029e+01 1.013780000000000001e+02 1.601965000000000146e+03
6.400000000000000133e-02 7.869840000000000169e-01 2.472810000000000130e+01 1.029749999999999943e+02 1.602445000000000164e+03
6.500000000000000222e-02 7.874729999999999785e-01 2.492965000000000231e+01 1.046064999999999969e+02 1.602925000000000182e+03
6.600000000000000311e-02 7.879890000000000505e-01 2.513049999999999784e+01 1.063139999999999930e+02 1.603420000000000073e+03
6.700000000000000400e-02 7.885394999999999488e-01 2.535079999999999956e+01 1.081285000000000025e+02 1.603934999999999945e+03
6.800000000000000488e-02 7.891280000000000516e-01 2.560430000000000206e+01 1.100655000000000001e+02 1.604474999999999909e+03
6.900000000000000577e-02 7.897530000000000383e-01 2.589779999999999660e+01 1.121299999999999955e+02 1.605045000000000073e+03
7.000000000000000666e-02 7.904085000000000694e-01 2.623035000000000139e+01 1.143079999999999927e+02 1.605644999999999982e+03
7.100000000000000755e-02 7.910844999999999683e-01 2.659339999999999904e+01 1.165724999999999909e+02 1.606264999999999873e+03
7.200000000000000844e-02 7.917695000000000149e-01 2.697175000000000011e+01 1.188834999999999980e+02 1.606894999999999982e+03
7.300000000000000933e-02 7.924465000000000536e-01 2.734525000000000006e+01 1.211899999999999977e+02 1.607535000000000082e+03
7.399999999999999634e-02 7.930999999999999162e-01 2.769030000000000058e+01 1.234350000000000023e+02 1.608154999999999973e+03
7.499999999999999722e-02 7.937110000000000554e-01 2.798219999999999885e+01 1.255580000000000069e+02 1.608750000000000000e+03
7.599999999999999811e-02 7.942660000000000275e-01 2.819684999999999775e+01 1.275014999999999930e+02 1.609304999999999836e+03
7.699999999999999900e-02 7.947490000000000387e-01 2.831269999999999953e+01 1.292135000000000105e+02 1.609804999999999836e+03
7.799999999999999989e-02 7.951500000000000234e-01 2.831194999999999951e+01 1.306499999999999773e+02 1.610235000000000127e+03
7.900000000000000078e-02 7.954620000000000024e-01 2.818159999999999954e+01 1.317789999999999964e+02 1.610590000000000146e+03
8.000000000000000167e-02 7.956799999999999429e-01 2.791434999999999889e+01 1.325805000000000007e+02 1.610860000000000127e+03
8.100000000000000255e-02 7.958045000000000258e-01 2.750840000000000174e+01 1.330480000000000018e+02 1.611039999999999964e+03
8.200000000000000344e-02 7.958374999999999755e-01 2.696754999999999924e+01 1.331885000000000048e+02 1.611135000000000218e+03
8.300000000000000433e-02 7.957864999999999522e-01 2.630095000000000027e+01 1.330210000000000150e+02 1.611144999999999982e+03
8.400000000000000522e-02 7.956600000000000339e-01 2.552230000000000132e+01 1.325740000000000123e+02 1.611085000000000036e+03
8.500000000000000611e-02 7.954699999999998994e-01 2.464925000000000210e+01 1.318865000000000123e+02 1.610944999999999936e+03
8.600000000000000699e-02 7.952285000000000048e-01 2.370230000000000103e+01 1.310024999999999977e+02 1.610755000000000109e+03
8.700000000000000788e-02 7.949494999999999756e-01 2.270394999999999897e+01 1.299724999999999966e+02 1.610514999999999873e+03
8.800000000000000877e-02 7.946465000000000334e-01 2.167774999999999963e+01 1.288460000000000036e+02 1.610240000000000009e+03
8.899999999999999578e-02 7.943344999999999434e-01 2.064699999999999847e+01 1.276740000000000066e+02 1.609950000000000045e+03
8.999999999999999667e-02 7.940255000000000507e-01 1.963380000000000081e+01 1.265045000000000073e+02 1.609650000000000091e+03
9.099999999999999756e-02 7.937315000000000342e-01 1.865820000000000078e+01 1.253810000000000002e+02 1.609349999999999909e+03
9.199999999999999845e-02 7.934624999999999595e-01 1.773724999999999952e+01 1.243400000000000034e+02 1.609069999999999936e+03
9.299999999999999933e-02 7.932239999999999291e-01 1.688429999999999964e+01 1.234119999999999919e+02 1.608809999999999945e+03
9.400000000000000022e-02 7.930230000000000334e-01 1.610855000000000103e+01 1.226175000000000068e+02 1.608579999999999927e+03
9.500000000000000111e-02 7.928614999999999968e-01 1.541509999999999891e+01 1.219685000000000059e+02 1.608384999999999991e+03
9.600000000000000200e-02 7.927395000000000413e-01 1.480445000000000100e+01 1.214685000000000059e+02 1.608220000000000027e+03
9.700000000000000289e-02 7.926549999999999985e-01 1.427309999999999945e+01 1.211135000000000019e+02 1.608099999999999909e+03
9.800000000000000377e-02 7.926039999999999752e-01 1.381384999999999863e+01 1.208894999999999982e+02 1.608014999999999873e+03
9.900000000000000466e-02 7.925800000000000622e-01 1.341615000000000002e+01 1.207789999999999964e+02 1.607954999999999927e+03
1.000000000000000056e-01 7.925770000000000870e-01 1.306709999999999994e+01 1.207565000000000026e+02 1.607925000000000182e+03
1.010000000000000064e-01 7.925875000000000004e-01 1.275189999999999912e+01 1.207959999999999923e+02 1.607914999999999964e+03
1.020000000000000073e-01 7.926020000000000287e-01 1.245475000000000065e+01 1.208665000000000020e+02 1.607914999999999964e+03
1.030000000000000082e-01 7.926124999999999421e-01 1.215964999999999918e+01 1.209385000000000048e+02 1.607920000000000073e+03
1.040000000000000091e-01 7.926119999999999832e-01 1.185125000000000028e+01 1.209834999999999923e+02 1.607920000000000073e+03
1.050000000000000100e-01 7.925940000000000207e-01 1.151569500000000090e+01 1.209739999999999895e+02 1.607914999999999964e+03
1.059999999999999970e-01 7.925519999999999232e-01 1.114113000000000042e+01 1.208894999999999982e+02 1.607889999999999873e+03
1.069999999999999979e-01 7.924820000000000197e-01 1.071858500000000092e+01 1.207120000000000033e+02 1.607845000000000027e+03
1.079999999999999988e-01 7.923830000000000595e-01 1.024215500000000034e+01 1.204314999999999998e+02 1.607775000000000091e+03
1.089999999999999997e-01 7.922540000000000138e-01 9.709474999999999412e+00 1.200430000000000064e+02 1.607684999999999945e+03
1.100000000000000006e-01 7.920970000000000510e-01 9.121779999999999333e+00 1.195494999999999948e+02 1.607565000000000055e+03
1.110000000000000014e-01 7.919144999999999657e-01 8.483855000000000146e+00 1.189604999999999961e+02 1.607420000000000073e+03
1.120000000000000023e-01 7.917125000000000412e-01 7.803715000000000401e+00 1.182909999999999968e+02 1.607250000000000000e+03
1.130000000000000032e-01 7.914974999999999650e-01 7.092304999999999637e+00 1.175620000000000118e+02 1.607065000000000055e+03
1.140000000000000041e-01 7.912760000000000904e-01 6.362874999999999837e+00 1.167980000000000018e+02 1.606875000000000000e+03
1.150000000000000050e-01 7.910570000000000102e-01 5.630300000000000082e+00 1.160275000000000034e+02 1.606670000000000073e+03
1.160000000000000059e-01 7.908479999999999954e-01 4.910379999999999967e+00 1.152789999999999964e+02 1.606474999999999909e+03
1.170000000000000068e-01 7.906575000000000131e-01 4.219005000000000116e+00 1.145829999999999984e+02 1.606284999999999854e+03
1.180000000000000077e-01 7.904934999999999601e-01 3.571360000000000312e+00 1.139664999999999964e+02 1.606115000000000009e+03
1.190000000000000085e-01 7.903620000000000090e-01 2.981140000000000345e+00 1.134544999999999959e+02 1.605970000000000027e+03
1.200000000000000094e-01 7.902679999999999705e-01 2.459934999999999761e+00 1.130670000000000073e+02 1.605849999999999909e+03
1.209999999999999964e-01 7.902150000000000007e-01 2.016605000000000203e+00 1.128190000000000026e+02 1.605764999999999873e+03
1.219999999999999973e-01 7.902050000000000463e-01 1.656979999999999897e+00 1.127199999999999989e+02 1.605720000000000027e+03
1.229999999999999982e-01 7.902374999999999261e-01 1.383604999999999974e+00 1.127715000000000032e+02 1.605710000000000036e+03
1.239999999999999991e-01 7.903109999999999857e-01 1.195716500000000071e+00 1.129710000000000036e+02 1.605744999999999891e+03
1.250000000000000000e-01 7.904210000000000402e-01 1.089415500000000092e+00 1.133064999999999998e+02 1.605804999999999836e+03
1.260000000000000009e-01 7.905634999999999746e-01 1.057959499999999942e+00 1.137634999999999934e+02 1.605910000000000082e+03
1.270000000000000018e-01 7.907325000000000603e-01 1.092183499999999974e+00 1.143225000000000051e+02 1.606034999999999854e+03
1.280000000000000027e-01 7.909209999999999852e-01 1.181004999999999860e+00 1.149594999999999914e+02 1.606184999999999945e+03
1.290000000000000036e-01 7.911205000000000043e-01 1.312005499999999936e+00 1.156490000000000009e+02 1.606355000000000018e+03
1.300000000000000044e-01 7.913255000000000150e-01 1.472005000000000008e+00 1.163640000000000043e+02 1.606534999999999854e+03
1.310000000000000053e-01 7.915269999999999806e-01 1.647634150000000020e+00 1.170794999999999959e+02 1.606720000000000027e+03
1.320000000000000062e-01 7.917190000000000616e-01 1.825871999999999939e+00 1.177700000000000102e+02 1.606900000000000091e+03
1.330000000000000071e-01 7.918950000000000156e-01 1.994550499999999893e+00 1.184115000000000038e+02 1.607074999999999818e+03
1.340000000000000080e-01 7.920504999999999907e-01 2.142755000000000187e+00 1.189855000000000018e+02 1.607230000000000018e+03
1.350000000000000089e-01 7.921814999999999829e-01 2.261169999999999902e+00 1.194754999999999967e+02 1.607369999999999891e+03
1.360000000000000098e-01 7.922839999999999883e-01 2.342309999999999892e+00 1.198689999999999998e+02 1.607485000000000127e+03
1.370000000000000107e-01 7.923569999999999780e-01 2.380695000000000228e+00 1.201580000000000013e+02 1.607574999999999818e+03
1.380000000000000115e-01 7.923994999999999234e-01 2.372930000000000206e+00 1.203379999999999939e+02 1.607634999999999991e+03
1.390000000000000124e-01 7.924124999999999641e-01 2.317664999999999864e+00 1.204089999999999918e+02 1.607675000000000182e+03
1.400000000000000133e-01 7.923970000000000180e-01 2.215535000000000032e+00 1.203754999999999882e+02 1.607684999999999945e+03
1.410000000000000142e-01 7.923545000000000726e-01 2.068979999999999819e+00 1.202429999999999950e+02 1.607664999999999964e+03
1.420000000000000151e-01 7.922895000000000909e-01 1.882034500000000055e+00 1.200225000000000080e+02 1.607625000000000000e+03
1.430000000000000160e-01 7.922040000000000193e-01 1.660091500000000053e+00 1.197239999999999895e+02 1.607554999999999836e+03
1.440000000000000169e-01 7.921015000000000139e-01 1.409576000000000162e+00 1.193610000000000042e+02 1.607480000000000018e+03
1.450000000000000178e-01 7.919869999999999965e-01 1.137639000000000067e+00 1.189484999999999957e+02 1.607380000000000109e+03
1.459999999999999909e-01 7.918650000000000411e-01 8.518090000000000384e-01 1.184989999999999952e+02 1.607265000000000100e+03
1.469999999999999918e-01 7.917369999999999131e-01 5.596790000000000376e-01 1.180279999999999916e+02 1.607154999999999973e+03
1.479999999999999927e-01 7.916080000000000894e-01 2.685450000000000337e-01 1.175474999999999994e+02 1.607025000000000091e+03
1.489999999999999936e-01 7.914814999999999490e-01 -1.484999999999991882e-02 1.170680000000000121e+02 1.606904999999999973e+03
1.499999999999999944e-01 7.913580000000000059e-01 -2.846279999999999366e-01 1.166004999999999967e+02 1.606779999999999973e+03
1.509999999999999953e-01 7.912405000000000133e-01 -5.359220000000000095e-01 1.161514999999999986e+02 1.606654999999999973e+03
1.519999999999999962e-01 7.911304999999999588e-01 -7.650759999999999783e-01 1.157264999999999873e+02 1.606539999999999964e+03
1.529999999999999971e-01 7.910269999999999246e-01 -9.696731499999999837e-01 1.153284999999999911e+02 1.606429999999999836e+03
1.539999999999999980e-01 7.909310000000000507e-01 -1.148573999999999984e+00 1.149559999999999889e+02 1.606325000000000045e+03
1.549999999999999989e-01 7.908410000000000162e-01 -1.301827999999999985e+00 1.146094999999999970e+02 1.606224999999999909e+03
1.559999999999999998e-01 7.907554999999999445e-01 -1.430569499999999827e+00 1.142830000000000013e+02 1.606134999999999991e+03
1.570000000000000007e-01 7.906744999999999468e-01 -1.536820000000000075e+00 1.139735000000000014e+02 1.606039999999999964e+03
1.580000000000000016e-01 7.905944999999999778e-01 -1.623299999999999965e+00 1.136735000000000042e+02 1.605954999999999927e+03
1.590000000000000024e-01 7.905139999999999390e-01 -1.693204999999999849e+00 1.133770000000000095e+02 1.605869999999999891e+03
