# t [s], A [cm^2], U [cm/s], P [cPa], c [cm/s]
1.000000000000000021e-03 6.956830000000000513e-01 6.091499999999999693e-03 9.576715000000000089e+01 1.735974999999999909e+03
2.000000000000000042e-03 6.956720000000000681e-01 -8.790650000000000547e-04 9.573435000000000628e+01 1.735970000000000027e+03
3.000000000000000062e-03 6.957370000000000498e-01 1.152992999999999935e-01 9.586849999999999739e+01 1.736000000000000000e+03
4.000000000000000083e-03 6.957809999999999828e-01 2.096145999999999843e-01 9.598769999999998959e+01 1.736025000000000091e+03
5.000000000000000104e-03 6.957314999999999472e-01 1.538249999999999895e-01 9.586455000000000837e+01 1.736000000000000000e+03
6.000000000000000125e-03 6.956560000000000521e-01 4.417899999999996830e-02 9.558039999999999736e+01 1.735940000000000055e+03
7.000000000000000146e-03 6.955869999999999553e-01 -6.481199999999998074e-02 9.523019999999999641e+01 1.735869999999999891e+03
8.000000000000000167e-03 6.954635000000000122e-01 -2.859700000000000575e-01 9.467830000000000723e+01 1.735755000000000109e+03
9.000000000000001055e-03 6.952665000000000095e-01 -6.543099999999999472e-01 9.383930000000000859e+01 1.735579999999999927e+03
1.000000000000000194e-02 6.949899999999999967e-01 -1.178455000000000030e+00 9.265590000000000259e+01 1.735329999999999927e+03
1.099999999999999936e-02 6.946060000000000567e-01 -1.889635000000000176e+00 9.103555000000000064e+01 1.734985000000000127e+03
1.200000000000000025e-02 6.941260000000000208e-01 -2.745960000000000178e+00 8.897655000000000314e+01 1.734545000000000073e+03
1.300000000000000114e-02 6.936249999999999361e-01 -3.587545000000000428e+00 8.666415000000000646e+01 1.734034999999999854e+03
1.400000000000000203e-02 6.931894999999999030e-01 -4.217675000000000729e+00 8.439195000000000846e+01 1.733505000000000109e+03
1.499999999999999944e-02 6.928689999999999571e-01 -4.510340499999999864e+00 8.240364999999999895e+01 1.733019999999999982e+03
1.600000000000000033e-02 6.926525000000000043e-01 -4.454555000000000042e+00 8.079210000000000491e+01 1.732594999999999800e+03
1.700000000000000122e-02 6.924915000000000376e-01 -4.132509999999999906e+00 7.949320000000000164e+01 1.732230000000000018e+03
1.800000000000000211e-02 6.923245000000000093e-01 -3.666484999999999772e+00 7.834434999999999150e+01 1.731889999999999873e+03
1.900000000000000300e-02 6.921055000000000401e-01 -3.164312999999999931e+00 7.716729999999999734e+01 1.731549999999999955e+03
2.000000000000000042e-02 6.918165000000000564e-01 -2.681989699999999921e+00 7.584059999999999491e+01 1.731184999999999945e+03
2.100000000000000130e-02 6.914735000000000742e-01 -2.214394999999999669e+00 7.433724999999999739e+01 1.730789999999999964e+03
2.200000000000000219e-02 6.911085000000000145e-01 -1.715089999999999781e+00 7.271529999999999916e+01 1.730360000000000127e+03
2.299999999999999961e-02 6.907544999999999380e-01 -1.133000000000000229e+00 7.107144999999999868e+01 1.729934999999999945e+03
2.400000000000000050e-02 6.904280000000000417e-01 -4.470100000000001295e-01 6.948404999999999632e+01 1.729505000000000109e+03
2.500000000000000139e-02 6.901215000000000543e-01 3.155850000000000044e-01 6.797069999999999368e+01 1.729090000000000146e+03
2.600000000000000228e-02 6.898070000000000590e-01 1.080370000000000275e+00 6.647335000000001060e+01 1.728679999999999836e+03
2.700000000000000316e-02 6.894445000000000157e-01 1.743115000000000192e+00 6.487084999999999013e+01 1.728250000000000000e+03
2.800000000000000058e-02 6.889929999999999666e-01 2.196625000000000050e+00 6.301335000000000264e+01 1.727775000000000091e+03
2.900000000000000147e-02 6.884270000000000111e-01 2.359499999999999709e+00 6.076789999999999736e+01 1.727219999999999800e+03
3.000000000000000236e-02 6.877409999999999357e-01 2.198790000000000244e+00 5.806239999999999668e+01 1.726570000000000164e+03
3.099999999999999978e-02 6.869560000000000111e-01 1.739019999999999566e+00 5.491304999999999836e+01 1.725824999999999818e+03
3.200000000000000067e-02 6.861135000000000428e-01 1.054520000000000124e+00 5.142719999999999914e+01 1.725009999999999991e+03
3.300000000000000155e-02 6.852639999999999842e-01 2.491399999999996950e-01 4.778105000000000047e+01 1.724144999999999982e+03
3.400000000000000244e-02 6.844600000000000684e-01 -5.678700000000000969e-01 4.418330000000000268e+01 1.723279999999999973e+03
3.500000000000000333e-02 6.837429999999999897e-01 -1.302020000000000177e+00 4.083789999999999765e+01 1.722460000000000036e+03
3.600000000000000422e-02 6.831424999999999859e-01 -1.885249999999999648e+00 3.791479999999999961e+01 1.721724999999999909e+03
3.700000000000000511e-02 6.826725000000000154e-01 -2.278290000000000148e+00 3.553410000000000224e+01 1.721095000000000027e+03
3.799999999999999906e-02 6.823369999999999713e-01 -2.466610000000000191e+00 3.376225000000000165e+01 1.720599999999999909e+03
3.899999999999999994e-02 6.821319999999999606e-01 -2.452204999999999746e+00 3.261909999999999599e+01 1.720250000000000000e+03
4.000000000000000083e-02 6.820494999999999752e-01 -2.244320000000000093e+00 3.209114999999999895e+01 1.720045000000000073e+03
4.100000000000000172e-02 6.820819999999999661e-01 -1.851814999999999989e+00 3.214634999999999820e+01 1.719980000000000018e+03
4.200000000000000261e-02 6.822234999999999827e-01 -1.278792500000000221e+00 3.274745000000000061e+01 1.720050000000000182e+03
4.300000000000000350e-02 6.824695000000000622e-01 -5.242799999999998573e-01 3.385889999999999844e+01 1.720250000000000000e+03
4.400000000000000439e-02 6.828155000000000197e-01 4.147299999999995990e-01 3.544934999999999548e+01 1.720565000000000055e+03
4.499999999999999833e-02 6.832570000000000032e-01 1.538480000000000292e+00 3.748749999999999716e+01 1.721000000000000000e+03
4.599999999999999922e-02 6.837874999999999925e-01 2.839859999999999829e+00 3.993765000000000498e+01 1.721539999999999964e+03
4.700000000000000011e-02 6.843949999999999756e-01 4.301525000000000709e+00 4.275374999999999659e+01 1.722174999999999955e+03
4.800000000000000100e-02 6.850654999999999939e-01 5.895445000000000491e+00 4.587744999999999607e+01 1.722884999999999991e+03
4.900000000000000189e-02 6.857809999999999739e-01 7.584811000000000192e+00 4.923819999999999908e+01 1.723664999999999964e+03
5.000000000000000278e-02 6.865224999999999245e-01 9.327424999999999855e+00 5.275710000000000832e+01 1.724494999999999891e+03
5.100000000000000366e-02 6.872724999999999529e-01 1.108002500000000090e+01 5.635269999999999868e+01 1.725349999999999909e+03
5.200000000000000455e-02 6.880144999999999733e-01 1.280228999999999928e+01 5.994729999999999848e+01 1.726220000000000027e+03
5.300000000000000544e-02 6.887345000000000272e-01 1.446038499999999871e+01 6.347329999999999472e+01 1.727090000000000146e+03
5.399999999999999939e-02 6.894249999999999545e-01 1.602859499999999926e+01 6.687780000000000769e+01 1.727940000000000055e+03
5.500000000000000028e-02 6.900809999999999444e-01 1.749034999999999940e+01 7.012529999999999575e+01 1.728759999999999991e+03
5.600000000000000117e-02 6.907010000000000094e-01 1.883770000000000167e+01 7.319829999999998904e+01 1.729549999999999955e+03
5.700000000000000205e-02 6.912869999999999848e-01 2.007014999999999816e+01 7.609584999999999866e+01 1.730300000000000182e+03
5.800000000000000294e-02 6.918440000000000145e-01 2.119315000000000282e+01 7.883129999999999882e+01 1.731014999999999873e+03
5.900000000000000383e-02 6.923779999999999379e-01 2.221640000000000015e+01 8.142849999999999966e+01 1.731695000000000164e+03
6.000000000000000472e-02 6.928965000000000263e-01 2.315224999999999866e+01 8.391839999999999122e+01 1.732349999999999909e+03
6.099999999999999867e-02 6.934055000000000080e-01 2.401439999999999841e+01 8.633529999999998950e+01 1.732990000000000009e+03
6.199999999999999956e-02 6.939130000000000020e-01 2.481629999999999825e+01 8.871314999999999884e+01 1.733619999999999891e+03
6.300000000000000044e-02 6.944239999999999302e-01 2.557029999999999959e+01 9.108259999999999934e+01 1.734239999999999782e+03
6.400000000000000133e-02 6.949419999999999487e-01 2.628634999999999877e+01 9.346790000000000020e+01 1.734860000000000127e+03
6.500000000000000222e-02 6.954700000000000326e-01 2.697109999999999985e+01 9.588460000000000605e+01 1.735485000000000127e+03
6.600000000000000311e-02 6.960075000000000012e-01 2.762760000000000105e+01 9.833879999999999200e+01 1.736119999999999891e+03
6.700000000000000400e-02 6.965520000000000600e-01 2.825489999999999924e+01 1.008256999999999977e+02 1.736760000000000218e+03
6.800000000000000488e-02 6.970990000000000242e-01 2.884850000000000136e+01 1.033307999999999964e+02 1.737409999999999854e+03
6.900000000000000577e-02 6.976430000000000131e-01 2.940099999999999980e+01 1.058315000000000055e+02 1.738049999999999955e+03
7.000000000000000666e-02 6.981775000000000064e-01 2.990289999999999893e+01 1.082969999999999970e+02 1.738690000000000055e+03
7.100000000000000755e-02 6.986944999999999961e-01 3.034375000000000000e+01 1.106965000000000003e+02 1.739315000000000055e+03
7.200000000000000844e-02 6.991875000000000728e-01 3.071309999999999718e+01 1.129945000000000022e+02 1.739920000000000073e+03
7.300000000000000933e-02 6.996495000000000353e-01 3.100130000000000052e+01 1.151585000000000036e+02 1.740490000000000009e+03
7.399999999999999634e-02 7.000744999999999330e-01 3.120015000000000072e+01 1.171594999999999942e+02 1.741029999999999973e+03
7.499999999999999722e-02 7.004589999999999428e-01 3.130349999999999966e+01 1.189724999999999966e+02 1.741519999999999982e+03
7.599999999999999811e-02 7.007989999999999498e-01 3.130730000000000146e+01 1.205794999999999959e+02 1.741960000000000036e+03
7.699999999999999900e-02 7.010920000000000485e-01 3.121000000000000085e+01 1.219675000000000011e+02 1.742345000000000027e+03
7.799999999999999989e-02 7.013384999999999758e-01 3.101250000000000284e+01 1.231315000000000026e+02 1.742684999999999945e+03
7.900000000000000078e-02 7.015379999999999949e-01 3.071804999999999808e+01 1.240725000000000051e+02 1.742964999999999918e+03
8.000000000000000167e-02 7.016934999999999700e-01 3.033250000000000313e+01 1.247969999999999970e+02 1.743190000000000055e+03
8.100000000000000255e-02 7.018075000000000285e-01 2.986394999999999911e+01 1.253190000000000026e+02 1.743365000000000009e+03
8.200000000000000344e-02 7.018839999999999524e-01 2.932249999999999801e+01 1.256560000000000059e+02 1.743490000000000009e+03
8.300000000000000433e-02 7.019284999999999553e-01 2.872014999999999674e+01 1.258305000000000007e+02 1.743570000000000164e+03
8.400000000000000522e-02 7.019455000000000000e-01 2.807004999999999839e+01 1.258675000000000068e+02 1.743614999999999782e+03
8.500000000000000611e-02 7.019419999999999549e-01 2.738629999999999853e+01 1.257949999999999875e+02 1.743630000000000109e+03
8.600000000000000699e-02 7.019230000000000746e-01 2.668294999999999817e+01 1.256405000000000030e+02 1.743619999999999891e+03
8.700000000000000788e-02 7.018945000000000878e-01 2.597390000000000043e+01 1.254325000000000045e+02 1.743585000000000036e+03
8.800000000000000877e-02 7.018609999999999571e-01 2.527159999999999940e+01 1.251955000000000098e+02 1.743545000000000073e+03
8.899999999999999578e-02 7.018269999999999786e-01 2.458675000000000210e+01 1.249525000000000006e+02 1.743500000000000000e+03
8.999999999999999667e-02 7.017970000000000041e-01 2.392790000000000106e+01 1.247210000000000036e+02 1.743450000000000045e+03
9.099999999999999756e-02 7.017714999999999925e-01 2.330095000000000027e+01 1.245150000000000148e+02 1.743400000000000091e+03
9.199999999999999845e-02 7.017525000000000013e-01 2.270889999999999986e+01 1.243419999999999987e+02 1.743355000000000018e+03
9.299999999999999933e-02 7.017394999999999605e-01 2.215230000000000032e+01 1.242034999999999911e+02 1.743319999999999936e+03
9.400000000000000022e-02 7.017309999999999937e-01 2.162895000000000323e+01 1.240970000000000084e+02 1.743289999999999964e+03
9.500000000000000111e-02 7.017250000000000432e-01 2.113445000000000107e+01 1.240134999999999934e+02 1.743259999999999991e+03
9.600000000000000200e-02 7.017195000000000515e-01 2.066270000000000095e+01 1.239424999999999955e+02 1.743240000000000009e+03
9.700000000000000289e-02 7.017105000000000148e-01 2.020620000000000260e+01 1.238694999999999879e+02 1.743214999999999918e+03
9.800000000000000377e-02 7.016949999999999577e-01 1.975685000000000002e+01 1.237785000000000082e+02 1.743190000000000055e+03
9.900000000000000466e-02 7.016700000000000159e-01 1.930604999999999905e+01 1.236525000000000034e+02 1.743154999999999973e+03
1.000000000000000056e-01 7.016305000000000458e-01 1.884574999999999889e+01 1.234754999999999967e+02 1.743110000000000127e+03
1.010000000000000064e-01 7.015759999999999774e-01 1.836834999999999951e+01 1.232330000000000041e+02 1.743055000000000064e+03
1.020000000000000073e-01 7.015025000000000288e-01 1.786769999999999925e+01 1.229124999999999943e+02 1.742974999999999909e+03
1.030000000000000082e-01 7.014100000000000890e-01 1.733919999999999817e+01 1.225060000000000002e+02 1.742880000000000109e+03
1.040000000000000091e-01 7.012964999999999893e-01 1.677994999999999948e+01 1.220084999999999980e+02 1.742764999999999873e+03
1.050000000000000100e-01 7.011640000000000095e-01 1.618949999999999889e+01 1.214200000000000017e+02 1.742625000000000000e+03
1.059999999999999970e-01 7.010134999999999561e-01 1.556939999999999991e+01 1.207434999999999974e+02 1.742465000000000146e+03
1.069999999999999979e-01 7.008464999999999279e-01 1.492340000000000089e+01 1.199890000000000043e+02 1.742289999999999964e+03
1.079999999999999988e-01 7.006669999999999288e-01 1.425741499999999817e+01 1.191684999999999945e+02 1.742090000000000146e+03
1.089999999999999997e-01 7.004785000000000039e-01 1.357907999999999937e+01 1.182990000000000066e+02 1.741880000000000109e+03
1.100000000000000006e-01 7.002855000000000052e-01 1.289743500000000154e+01 1.173990000000000009e+02 1.741659999999999854e+03
1.110000000000000014e-01 7.000935000000000352e-01 1.222236999999999973e+01 1.164900000000000091e+02 1.741434999999999945e+03
1.120000000000000023e-01 6.999055000000000692e-01 1.156446500000000022e+01 1.155949999999999989e+02 1.741214999999999918e+03
1.130000000000000032e-01 6.997269999999999879e-01 1.093399999999999928e+01 1.147349999999999994e+02 1.741000000000000000e+03
1.140000000000000041e-01 6.995629999999999349e-01 1.034073500000000045e+01 1.139320000000000022e+02 1.740795000000000073e+03
1.150000000000000050e-01 6.994164999999999965e-01 9.793495000000000061e+00 1.132030000000000030e+02 1.740599999999999909e+03
1.160000000000000059e-01 6.992899999999999672e-01 9.299424999999999386e+00 1.125644999999999953e+02 1.740429999999999836e+03
1.170000000000000068e-01 6.991860000000000852e-01 8.863974999999999937e+00 1.120269999999999868e+02 1.740284999999999854e+03
1.180000000000000077e-01 6.991054999999999353e-01 8.490579999999999572e+00 1.115990000000000038e+02 1.740159999999999854e+03
1.190000000000000085e-01 6.990484999999999616e-01 8.180669999999999220e+00 1.112820000000000107e+02 1.740059999999999945e+03
1.200000000000000094e-01 6.990134999999999543e-01 7.933385000000000353e+00 1.110755000000000052e+02 1.739994999999999891e+03
1.209999999999999964e-01 6.990009999999999835e-01 7.746150000000000091e+00 1.109735000000000014e+02 1.739944999999999936e+03
1.219999999999999973e-01 6.990065000000000861e-01 7.614605000000000068e+00 1.109669999999999987e+02 1.739924999999999955e+03
1.229999999999999982e-01 6.990279999999999827e-01 7.533034999999999926e+00 1.110440000000000111e+02 1.739924999999999955e+03
1.239999999999999991e-01 6.990635000000000598e-01 7.494720000000000049e+00 1.111905000000000001e+02 1.739945000000000164e+03
1.250000000000000000e-01 6.991084999999999106e-01 7.492285000000000750e+00 1.113915000000000077e+02 1.739985000000000127e+03
1.260000000000000009e-01 6.991600000000000037e-01 7.518095000000000638e+00 1.116314999999999884e+02 1.740025000000000091e+03
1.270000000000000018e-01 6.992145000000000721e-01 7.564574999999999605e+00 1.118950000000000102e+02 1.740085000000000036e+03
1.280000000000000027e-01 6.992700000000000582e-01 7.624499999999999389e+00 1.121690000000000111e+02 1.740139999999999873e+03
1.290000000000000036e-01 6.993245000000000156e-01 7.691245000000000331e+00 1.124405000000000001e+02 1.740200000000000045e+03
1.300000000000000044e-01 6.993750000000000799e-01 7.758949999999999569e+00 1.126984999999999957e+02 1.740264999999999873e+03
1.310000000000000053e-01 6.994205000000000005e-01 7.822639999999999816e+00 1.129364999999999952e+02 1.740319999999999936e+03
1.320000000000000062e-01 6.994599999999999707e-01 7.878315000000000623e+00 1.131465000000000032e+02 1.740369999999999891e+03
1.330000000000000071e-01 6.994925000000000725e-01 7.922975000000000101e+00 1.133255000000000052e+02 1.740414999999999964e+03
1.340000000000000080e-01 6.995190000000000019e-01 7.954604999999999926e+00 1.134724999999999966e+02 1.740454999999999927e+03
1.350000000000000089e-01 6.995384999999999520e-01 7.972129999999999939e+00 1.135875000000000057e+02 1.740484999999999900e+03
1.360000000000000098e-01 6.995525000000000215e-01 7.975365000000000038e+00 1.136709999999999923e+02 1.740509999999999991e+03
1.370000000000000107e-01 6.995609999999999884e-01 7.964935000000000542e+00 1.137284999999999968e+02 1.740529999999999973e+03
1.380000000000000115e-01 6.995655000000000623e-01 7.942120000000000068e+00 1.137624999999999886e+02 1.740539999999999964e+03
1.390000000000000124e-01 6.995670000000000499e-01 7.908759999999999124e+00 1.137789999999999964e+02 1.740549999999999955e+03
1.400000000000000133e-01 6.995664999999999800e-01 7.867104999999999571e+00 1.137845000000000084e+02 1.740559999999999945e+03
1.410000000000000142e-01 6.995664999999999800e-01 7.819630000000000081e+00 1.137830000000000013e+02 1.740559999999999945e+03
1.420000000000000151e-01 6.995660000000000212e-01 7.768905000000000172e+00 1.137810000000000059e+02 1.740559999999999945e+03
1.430000000000000160e-01 6.995674999999998978e-01 7.717399999999999594e+00 1.137835000000000036e+02 1.740565000000000055e+03
1.440000000000000169e-01 6.995715000000000128e-01 7.667360000000000397e+00 1.137944999999999993e+02 1.740570000000000164e+03
1.450000000000000178e-01 6.995780000000000332e-01 7.620689999999999742e+00 1.138174999999999955e+02 1.740575000000000045e+03
1.459999999999999909e-01 6.995884999999999465e-01 7.578820000000000334e+00 1.138550000000000040e+02 1.740590000000000146e+03
1.469999999999999918e-01 6.996020000000000572e-01 7.542685000000000528e+00 1.139069999999999965e+02 1.740595000000000027e+03
1.479999999999999927e-01 6.996189999999999909e-01 7.512685000000000279e+00 1.139739999999999895e+02 1.740615000000000009e+03
1.489999999999999936e-01 6.996385000000000520e-01 7.488735000000000142e+00 1.140550000000000068e+02 1.740630000000000109e+03
1.499999999999999944e-01 6.996599999999999486e-01 7.470264999999999489e+00 1.141465000000000032e+02 1.740655000000000200e+03
1.509999999999999953e-01 6.996830000000000549e-01 7.456390000000000740e+00 1.142454999999999927e+02 1.740680000000000064e+03
1.519999999999999962e-01 6.997069999999999679e-01 7.445960000000000356e+00 1.143495000000000061e+02 1.740704999999999927e+03
1.529999999999999971e-01 6.997299999999999631e-01 7.437705000000000233e+00 1.144540000000000077e+02 1.740730000000000018e+03
1.539999999999999980e-01 6.997524999999999995e-01 7.430349999999999788e+00 1.145545000000000044e+02 1.740755000000000109e+03
1.549999999999999989e-01 6.997725000000000195e-01 7.422724999999999795e+00 1.146490000000000009e+02 1.740779999999999973e+03
1.559999999999999998e-01 6.997904999999999820e-01 7.413884999999999614e+00 1.147340000000000089e+02 1.740799999999999955e+03
1.570000000000000007e-01 6.998064999999999980e-01 7.403129999999999988e+00 1.148079999999999927e+02 1.740819999999999936e+03
1.580000000000000016e-01 6.998189999999999689e-01 7.390089999999999826e+00 1.148695000000000022e+02 1.740835000000000036e+03
1.590000000000000024e-01 6.998294999999999932e-01 7.374715000000000131e+00 1.149180000000000064e+02 1.740855000000000018e+03
