# t [s], A [cm^2], U [cm/s], P [cPa], c [cm/s]
1.000000000000000021e-03 1.663399999999999879e-01 5.294068499999999844e-01 9.137690000000000623e+01 2.283385000000000218e+03
2.000000000000000042e-03 1.662739999999999774e-01 2.234898499999999899e+00 8.694159999999999400e+01 2.282639999999999873e+03
3.000000000000000062e-03 1.661334999999999895e-01 4.273385000000000211e+00 8.119469999999999743e+01 2.281110000000000127e+03
4.000000000000000083e-03 1.659660000000000024e-01 6.570664999999999978e+00 7.587064999999999770e+01 2.279304999999999836e+03
5.000000000000000104e-03 1.658064999999999956e-01 8.922819999999999752e+00 7.183420000000000982e+01 2.277590000000000146e+03
6.000000000000000125e-03 1.656595000000000151e-01 1.096584000000000003e+01 6.858605000000000018e+01 2.276055000000000291e+03
7.000000000000000146e-03 1.655269999999999797e-01 1.257984499999999883e+01 6.562635000000000218e+01 2.274694999999999709e+03
8.000000000000000167e-03 1.654144999999999921e-01 1.386465000000000103e+01 6.315075000000000216e+01 2.273560000000000400e+03
9.000000000000001055e-03 1.653235000000000121e-01 1.486195000000000022e+01 6.124729999999999563e+01 2.272654999999999745e+03
1.000000000000000194e-02 1.652534999999999976e-01 1.559534999999999982e+01 5.982269999999999754e+01 2.271960000000000036e+03
1.099999999999999936e-02 1.652000000000000135e-01 1.608739999999999881e+01 5.877304999999999779e+01 2.271444999999999709e+03
1.200000000000000025e-02 1.651579999999999993e-01 1.633549999999999969e+01 5.788620000000000232e+01 2.271055000000000291e+03
1.300000000000000114e-02 1.651230000000000198e-01 1.642324999999999946e+01 5.710880000000000223e+01 2.270734999999999673e+03
1.400000000000000203e-02 1.651040000000000008e-01 1.660235000000000127e+01 5.694819999999999993e+01 2.270565000000000055e+03
1.499999999999999944e-02 1.651170000000000138e-01 1.715780000000000172e+01 5.825065000000000026e+01 2.270699999999999818e+03
1.600000000000000033e-02 1.651745000000000019e-01 1.817634999999999934e+01 6.144294999999999618e+01 2.271279999999999745e+03
1.700000000000000122e-02 1.652724999999999889e-01 1.944440000000000168e+01 6.599004999999999654e+01 2.272260000000000218e+03
1.800000000000000211e-02 1.653880000000000072e-01 2.054999999999999716e+01 7.053369999999999607e+01 2.273430000000000291e+03
1.900000000000000300e-02 1.654864999999999808e-01 2.109515000000000029e+01 7.355780000000000030e+01 2.274449999999999818e+03
2.000000000000000042e-02 1.655405000000000071e-01 2.088499999999999801e+01 7.412245000000000061e+01 2.275039999999999964e+03
2.100000000000000130e-02 1.655395000000000061e-01 1.999745000000000061e+01 7.225929999999999609e+01 2.275074999999999818e+03
2.200000000000000219e-02 1.654915000000000136e-01 1.871480000000000032e+01 6.885935000000000628e+01 2.274625000000000000e+03
2.299999999999999961e-02 1.654180000000000095e-01 1.737095000000000056e+01 6.516925000000000523e+01 2.273900000000000091e+03
2.400000000000000050e-02 1.653435000000000044e-01 1.620299999999999940e+01 6.220374999999999943e+01 2.273144999999999982e+03
2.500000000000000139e-02 1.652834999999999999e-01 1.527799999999999869e+01 6.037260000000000559e+01 2.272529999999999745e+03
2.600000000000000228e-02 1.652424999999999866e-01 1.451060000000000016e+01 5.945154999999999745e+01 2.272099999999999909e+03
2.700000000000000316e-02 1.652129999999999987e-01 1.374330000000000140e+01 5.883285000000000053e+01 2.271795000000000073e+03
2.800000000000000058e-02 1.651834999999999831e-01 1.284390000000000143e+01 5.789260000000000161e+01 2.271489999999999782e+03
2.900000000000000147e-02 1.651429999999999843e-01 1.177865500000000054e+01 5.630785000000000196e+01 2.271090000000000146e+03
3.000000000000000236e-02 1.650909999999999878e-01 1.063743000000000016e+01 5.420959999999999468e+01 2.270574999999999818e+03
3.099999999999999978e-02 1.650345000000000006e-01 9.603114999999998957e+00 5.212839999999999918e+01 2.270005000000000109e+03
3.200000000000000067e-02 1.649875000000000091e-01 8.881544999999999135e+00 5.076810000000000400e+01 2.269515000000000327e+03
3.300000000000000155e-02 1.649650000000000005e-01 8.621090000000000586e+00 5.071174999999999500e+01 2.269265000000000327e+03
3.400000000000000244e-02 1.649754999999999971e-01 8.855434999999999945e+00 5.218234999999999957e+01 2.269349999999999909e+03
3.500000000000000333e-02 1.650220000000000020e-01 9.487645000000000550e+00 5.494509999999999650e+01 2.269784999999999854e+03
3.600000000000000422e-02 1.650939999999999908e-01 1.031594499999999925e+01 5.837000000000000455e+01 2.270494999999999891e+03
3.700000000000000511e-02 1.651749999999999885e-01 1.108681500000000142e+01 6.161070000000000135e+01 2.271300000000000182e+03
3.799999999999999906e-02 1.652454999999999896e-01 1.155430000000000135e+01 6.382589999999999719e+01 2.272020000000000437e+03
3.899999999999999994e-02 1.652865000000000029e-01 1.152925000000000111e+01 6.437094999999999345e+01 2.272449999999999818e+03
4.000000000000000083e-02 1.652845000000000009e-01 1.090769000000000055e+01 6.291344999999999743e+01 2.272445000000000164e+03
4.100000000000000172e-02 1.652325000000000044e-01 9.675644999999999385e+00 5.945629999999999882e+01 2.271944999999999709e+03
4.200000000000000261e-02 1.651314999999999866e-01 7.895694999999999908e+00 5.428244999999999720e+01 2.270954999999999927e+03
4.300000000000000350e-02 1.649895000000000111e-01 5.682434999999999903e+00 4.785215000000000174e+01 2.269529999999999745e+03
4.400000000000000439e-02 1.648149999999999893e-01 3.176515000000000200e+00 4.069194999999999851e+01 2.267784999999999854e+03
4.499999999999999833e-02 1.646225000000000049e-01 5.237399999999996503e-01 3.330575000000000330e+01 2.265845000000000255e+03
4.599999999999999922e-02 1.644224999999999992e-01 -2.137375000000000469e+00 2.612425000000000352e+01 2.263824999999999818e+03
4.700000000000000011e-02 1.642259999999999831e-01 -4.680288500000000518e+00 1.949231500000000139e+01 2.261840000000000146e+03
4.800000000000000100e-02 1.640435000000000088e-01 -6.990244999999999820e+00 1.368133500000000069e+01 2.259980000000000018e+03
4.900000000000000189e-02 1.638815000000000133e-01 -8.962600000000000122e+00 8.911642000000000507e+00 2.258329999999999927e+03
5.000000000000000278e-02 1.637470000000000037e-01 -1.050267000000000017e+01 5.370445000000000135e+00 2.256960000000000036e+03
5.100000000000000366e-02 1.636460000000000137e-01 -1.152841000000000093e+01 3.217430000000000234e+00 2.255914999999999964e+03
5.200000000000000455e-02 1.635834999999999928e-01 -1.197574999999999967e+01 2.576898000000000355e+00 2.255260000000000218e+03
5.300000000000000544e-02 1.635639999999999872e-01 -1.180550000000000033e+01 3.519845000000000113e+00 2.255015000000000327e+03
5.399999999999999939e-02 1.635869999999999824e-01 -1.100908000000000087e+01 6.044539999999999580e+00 2.255210000000000036e+03
5.500000000000000028e-02 1.636539999999999939e-01 -9.612099999999999866e+00 1.006308500000000095e+01 2.255849999999999909e+03
5.600000000000000117e-02 1.637625000000000053e-01 -7.673455000000000581e+00 1.539989999999999881e+01 2.256894999999999982e+03
5.700000000000000205e-02 1.639070000000000249e-01 -5.280456000000000039e+00 2.180400000000000205e+01 2.258315000000000055e+03
5.800000000000000294e-02 1.640800000000000036e-01 -2.540910000000000224e+00 2.897259999999999991e+01 2.260034999999999854e+03
5.900000000000000383e-02 1.642750000000000044e-01 4.263600000000002943e-01 3.658050000000000068e+01 2.261984999999999673e+03
6.000000000000000472e-02 1.644829999999999903e-01 3.500815000000000232e+00 4.430949999999999989e+01 2.264079999999999927e+03
6.099999999999999867e-02 1.646960000000000091e-01 6.568124999999999325e+00 5.187229999999999563e+01 2.266225000000000364e+03
6.199999999999999956e-02 1.649059999999999970e-01 9.526370000000000005e+00 5.902915000000000134e+01 2.268360000000000127e+03
6.300000000000000044e-02 1.651064999999999894e-01 1.229013000000000133e+01 6.559694999999999254e+01 2.270409999999999854e+03
6.400000000000000133e-02 1.652925000000000089e-01 1.479390000000000072e+01 7.145345000000000368e+01 2.272324999999999818e+03
6.500000000000000222e-02 1.654615000000000113e-01 1.699415000000000120e+01 7.653804999999999836e+01 2.274069999999999709e+03
6.600000000000000311e-02 1.656104999999999938e-01 1.887044999999999817e+01 8.085079999999999245e+01 2.275614999999999782e+03
6.700000000000000400e-02 1.657405000000000128e-01 2.042569999999999908e+01 8.444909999999998718e+01 2.276965000000000146e+03
6.800000000000000488e-02 1.658514999999999850e-01 2.168500000000000227e+01 8.744185000000000230e+01 2.278135000000000218e+03
6.900000000000000577e-02 1.659475000000000255e-01 2.269255000000000067e+01 8.998029999999999973e+01 2.279144999999999982e+03
7.000000000000000666e-02 1.660314999999999985e-01 2.350730000000000075e+01 9.224475000000001046e+01 2.280039999999999964e+03
7.100000000000000755e-02 1.661090000000000066e-01 2.419695000000000107e+01 9.442825000000000557e+01 2.280855000000000018e+03
7.200000000000000844e-02 1.661845000000000128e-01 2.483155000000000001e+01 9.671875000000000000e+01 2.281650000000000091e+03
7.300000000000000933e-02 1.662629999999999941e-01 2.547659999999999769e+01 9.928145000000000664e+01 2.282475000000000364e+03
7.399999999999999634e-02 1.663485000000000102e-01 2.618704999999999927e+01 1.022421500000000094e+02 2.283364999999999782e+03
7.499999999999999722e-02 1.664434999999999942e-01 2.700265000000000271e+01 1.056784999999999997e+02 2.284355000000000018e+03
7.599999999999999811e-02 1.665510000000000046e-01 2.794440000000000168e+01 1.096099999999999994e+02 2.285460000000000036e+03
7.699999999999999900e-02 1.666710000000000136e-01 2.901384999999999792e+01 1.140000000000000000e+02 2.286699999999999818e+03
7.799999999999999989e-02 1.668014999999999914e-01 3.019340000000000401e+01 1.187609999999999957e+02 2.288050000000000182e+03
7.900000000000000078e-02 1.669414999999999927e-01 3.144904999999999973e+01 1.237620000000000005e+02 2.289494999999999891e+03
8.000000000000000167e-02 1.670864999999999989e-01 3.273389999999999844e+01 1.288429999999999893e+02 2.291000000000000000e+03
8.100000000000000255e-02 1.672334999999999794e-01 3.399295000000000044e+01 1.338309999999999889e+02 2.292519999999999982e+03
8.200000000000000344e-02 1.673764999999999836e-01 3.516779999999999973e+01 1.385509999999999877e+02 2.294010000000000218e+03
8.300000000000000433e-02 1.675125000000000086e-01 3.620145000000000124e+01 1.428419999999999845e+02 2.295425000000000182e+03
8.400000000000000522e-02 1.676360000000000072e-01 3.704240000000000066e+01 1.465680000000000121e+02 2.296725000000000364e+03
8.500000000000000611e-02 1.677440000000000042e-01 3.764844999999999686e+01 1.496239999999999952e+02 2.297855000000000018e+03
8.600000000000000699e-02 1.678335000000000243e-01 3.798904999999999887e+01 1.519424999999999955e+02 2.298809999999999945e+03
8.700000000000000788e-02 1.679034999999999833e-01 3.804690000000000083e+01 1.534950000000000045e+02 2.299555000000000291e+03
8.800000000000000877e-02 1.679519999999999902e-01 3.781875000000000142e+01 1.542924999999999898e+02 2.300085000000000036e+03
8.899999999999999578e-02 1.679800000000000182e-01 3.731490000000000151e+01 1.543799999999999955e+02 2.300400000000000091e+03
8.999999999999999667e-02 1.679895000000000138e-01 3.655814999999999770e+01 1.538335000000000150e+02 2.300515000000000327e+03
9.099999999999999756e-02 1.679804999999999771e-01 3.558164999999999623e+01 1.527514999999999930e+02 2.300440000000000055e+03
9.199999999999999845e-02 1.679569999999999952e-01 3.442690000000000339e+01 1.512500000000000000e+02 2.300210000000000036e+03
9.299999999999999933e-02 1.679209999999999869e-01 3.314074999999999704e+01 1.494535000000000196e+02 2.299859999999999673e+03
9.400000000000000022e-02 1.678765000000000118e-01 3.177280000000000015e+01 1.474879999999999995e+02 2.299409999999999854e+03
9.500000000000000111e-02 1.678275000000000183e-01 3.037260000000000204e+01 1.454749999999999943e+02 2.298900000000000091e+03
9.600000000000000200e-02 1.677754999999999941e-01 2.898704999999999998e+01 1.435244999999999891e+02 2.298369999999999891e+03
9.700000000000000289e-02 1.677250000000000130e-01 2.765830000000000055e+01 1.417319999999999993e+02 2.297844999999999800e+03
9.800000000000000377e-02 1.676779999999999937e-01 2.642139999999999844e+01 1.401730000000000018e+02 2.297354999999999563e+03
9.900000000000000466e-02 1.676364999999999938e-01 2.530310000000000059e+01 1.389000000000000057e+02 2.296914999999999964e+03
1.000000000000000056e-01 1.676015000000000144e-01 2.432075000000000031e+01 1.379404999999999859e+02 2.296545000000000073e+03
1.010000000000000064e-01 1.675750000000000017e-01 2.348165000000000191e+01 1.372989999999999782e+02 2.296260000000000218e+03
1.020000000000000073e-01 1.675560000000000105e-01 2.278340000000000032e+01 1.369530000000000030e+02 2.296050000000000182e+03
1.030000000000000082e-01 1.675444999999999851e-01 2.221439999999999770e+01 1.368614999999999782e+02 2.295925000000000182e+03
1.040000000000000091e-01 1.675399999999999945e-01 2.175489999999999924e+01 1.369619999999999891e+02 2.295860000000000127e+03
1.050000000000000100e-01 1.675400000000000222e-01 2.137894999999999968e+01 1.371804999999999950e+02 2.295849999999999909e+03
1.059999999999999970e-01 1.675424999999999831e-01 2.105599999999999739e+01 1.374335000000000093e+02 2.295869999999999891e+03
1.069999999999999979e-01 1.675455000000000139e-01 2.075329999999999941e+01 1.376340000000000146e+02 2.295900000000000091e+03
1.079999999999999988e-01 1.675475000000000159e-01 2.043825000000000003e+01 1.377009999999999934e+02 2.295914999999999964e+03
1.089999999999999997e-01 1.675460000000000005e-01 2.008024999999999949e+01 1.375589999999999975e+02 2.295890000000000327e+03
1.100000000000000006e-01 1.675385000000000069e-01 1.965340000000000131e+01 1.371485000000000127e+02 2.295815000000000055e+03
1.110000000000000014e-01 1.675240000000000062e-01 1.913749999999999929e+01 1.364289999999999736e+02 2.295659999999999854e+03
1.120000000000000023e-01 1.675014999999999976e-01 1.852024999999999721e+01 1.353790000000000191e+02 2.295430000000000291e+03
1.130000000000000032e-01 1.674694999999999934e-01 1.779720000000000013e+01 1.340010000000000048e+02 2.295105000000000018e+03
1.140000000000000041e-01 1.674295000000000089e-01 1.697259999999999991e+01 1.323195000000000050e+02 2.294689999999999600e+03
1.150000000000000050e-01 1.673815000000000164e-01 1.605890000000000128e+01 1.303799999999999955e+02 2.294199999999999818e+03
1.160000000000000059e-01 1.673264999999999891e-01 1.507535000000000025e+01 1.282454999999999927e+02 2.293630000000000109e+03
1.170000000000000068e-01 1.672659999999999980e-01 1.404725000000000001e+01 1.259915000000000020e+02 2.293010000000000218e+03
1.180000000000000077e-01 1.672029999999999905e-01 1.300360000000000049e+01 1.237000000000000028e+02 2.292355000000000018e+03
1.190000000000000085e-01 1.671384999999999954e-01 1.197556499999999957e+01 1.214574999999999960e+02 2.291694999999999709e+03
1.200000000000000094e-01 1.670754999999999879e-01 1.099413000000000018e+01 1.193455000000000013e+02 2.291039999999999964e+03
1.209999999999999964e-01 1.670159999999999978e-01 1.008826000000000001e+01 1.174380000000000024e+02 2.290420000000000073e+03
1.219999999999999973e-01 1.669619999999999993e-01 9.283290000000000930e+00 1.157974999999999994e+02 2.289855000000000018e+03
1.229999999999999982e-01 1.669149999999999801e-01 8.599574999999999747e+00 1.144685000000000059e+02 2.289360000000000127e+03
1.239999999999999991e-01 1.668765000000000109e-01 8.051220000000000709e+00 1.134809999999999945e+02 2.288954999999999927e+03
1.250000000000000000e-01 1.668474999999999819e-01 7.645770000000000621e+00 1.128449999999999989e+02 2.288639999999999873e+03
1.260000000000000009e-01 1.668275000000000174e-01 7.383979999999999322e+00 1.125550000000000068e+02 2.288430000000000291e+03
1.270000000000000018e-01 1.668165000000000064e-01 7.260064999999999991e+00 1.125865000000000009e+02 2.288305000000000291e+03
1.280000000000000027e-01 1.668149999999999911e-01 7.262364999999999959e+00 1.129029999999999916e+02 2.288274999999999636e+03
1.290000000000000036e-01 1.668209999999999971e-01 7.374225000000000030e+00 1.134565000000000055e+02 2.288329999999999927e+03
1.300000000000000044e-01 1.668335000000000234e-01 7.575150000000000716e+00 1.141899999999999977e+02 2.288449999999999818e+03
1.310000000000000053e-01 1.668514999999999859e-01 7.842045000000000599e+00 1.150440000000000111e+02 2.288625000000000000e+03
1.320000000000000062e-01 1.668724999999999792e-01 8.150504999999999001e+00 1.159560000000000031e+02 2.288835000000000036e+03
1.330000000000000071e-01 1.668955000000000022e-01 8.476140000000000896e+00 1.168665000000000020e+02 2.289069999999999709e+03
1.340000000000000080e-01 1.669184999999999974e-01 8.795725000000000904e+00 1.177220000000000084e+02 2.289309999999999945e+03
1.350000000000000089e-01 1.669410000000000061e-01 9.088285000000000835e+00 1.184745000000000061e+02 2.289534999999999854e+03
1.360000000000000098e-01 1.669605000000000117e-01 9.335990000000000677e+00 1.190854999999999961e+02 2.289735000000000127e+03
1.370000000000000107e-01 1.669764999999999999e-01 9.524824999999999875e+00 1.195289999999999964e+02 2.289904999999999745e+03
1.380000000000000115e-01 1.669885000000000119e-01 9.645054999999999268e+00 1.197874999999999943e+02 2.290029999999999745e+03
1.390000000000000124e-01 1.669954999999999912e-01 9.691449999999999676e+00 1.198559999999999945e+02 2.290110000000000127e+03
1.400000000000000133e-01 1.669975000000000209e-01 9.663190000000000168e+00 1.197404999999999973e+02 2.290135000000000218e+03
1.410000000000000142e-01 1.669944999999999902e-01 9.563655000000000683e+00 1.194560000000000031e+02 2.290110000000000127e+03
1.420000000000000151e-01 1.669875000000000109e-01 9.399879999999999569e+00 1.190270000000000010e+02 2.290045000000000073e+03
1.430000000000000160e-01 1.669764999999999999e-01 9.181839999999999336e+00 1.184819999999999993e+02 2.289930000000000291e+03
1.440000000000000169e-01 1.669619999999999993e-01 8.921734999999999971e+00 1.178549999999999898e+02 2.289789999999999964e+03
1.450000000000000178e-01 1.669460000000000111e-01 8.632975000000000065e+00 1.171814999999999998e+02 2.289625000000000000e+03
1.459999999999999909e-01 1.669275000000000064e-01 8.329354999999999620e+00 1.164945000000000022e+02 2.289440000000000055e+03
1.469999999999999918e-01 1.669094999999999884e-01 8.024194999999998856e+00 1.158269999999999982e+02 2.289250000000000000e+03
1.479999999999999927e-01 1.668914999999999982e-01 7.729540000000000077e+00 1.152050000000000125e+02 2.289065000000000055e+03
1.489999999999999936e-01 1.668745000000000089e-01 7.455590000000000828e+00 1.146500000000000057e+02 2.288890000000000327e+03
1.499999999999999944e-01 1.668589999999999796e-01 7.210185000000000954e+00 1.141769999999999925e+02 2.288730000000000018e+03
1.509999999999999953e-01 1.668459999999999943e-01 6.998559999999999448e+00 1.137925000000000040e+02 2.288595000000000255e+03
1.519999999999999962e-01 1.668350000000000111e-01 6.823224999999999874e+00 1.134979999999999905e+02 2.288480000000000018e+03
1.529999999999999971e-01 1.668259999999999743e-01 6.684029999999999916e+00 1.132870000000000061e+02 2.288385000000000218e+03
1.539999999999999980e-01 1.668200000000000238e-01 6.578400000000000247e+00 1.131479999999999961e+02 2.288315000000000055e+03
1.549999999999999989e-01 1.668149999999999911e-01 6.501670000000000726e+00 1.130649999999999977e+02 2.288260000000000218e+03
1.559999999999999998e-01 1.668115000000000014e-01 6.447564999999999991e+00 1.130190000000000055e+02 2.288220000000000255e+03
1.570000000000000007e-01 1.668089999999999851e-01 6.408699999999999619e+00 1.129890000000000043e+02 2.288199999999999818e+03
1.580000000000000016e-01 1.668074999999999974e-01 6.377195000000000391e+00 1.129530000000000030e+02 2.288175000000000182e+03
1.590000000000000024e-01 1.668050000000000088e-01 6.345159999999999911e+00 1.128915000000000077e+02 2.288149999999999636e+03
