# t [s], A [cm^2], U [cm/s], P [cPa], c [cm/s]
1.000000000000000021e-03 2.044124999999999970e-01 3.000069499999999945e-01 9.154015000000001123e+01 2.302694999999999709e+03
2.000000000000000042e-03 2.043435000000000112e-01 1.784638499999999794e+00 8.788410000000000366e+01 2.302190000000000055e+03
3.000000000000000062e-03 2.041840000000000044e-01 3.659828499999999707e+00 8.263079999999999359e+01 2.301069999999999709e+03
4.000000000000000083e-03 2.039845000000000130e-01 5.818885499999999489e+00 7.713445000000000107e+01 2.299684999999999945e+03
5.000000000000000104e-03 2.037864999999999815e-01 8.138624999999999332e+00 7.251865000000000805e+01 2.298320000000000164e+03
6.000000000000000125e-03 2.036060000000000092e-01 1.030490999999999957e+01 6.882044999999999391e+01 2.297099999999999909e+03
7.000000000000000146e-03 2.034394999999999953e-01 1.206539999999999857e+01 6.550629999999999598e+01 2.296010000000000218e+03
8.000000000000000167e-03 2.032955000000000179e-01 1.345516999999999896e+01 6.257605000000000217e+01 2.295074999999999818e+03
9.000000000000001055e-03 2.031775000000000109e-01 1.454579999999999984e+01 6.022820000000000107e+01 2.294319999999999709e+03
1.000000000000000194e-02 2.030850000000000155e-01 1.536530000000000129e+01 5.844644999999999868e+01 2.293744999999999891e+03
1.099999999999999936e-02 2.030164999999999886e-01 1.595420000000000016e+01 5.717629999999999768e+01 2.293315000000000055e+03
1.200000000000000025e-02 2.029664999999999941e-01 1.632025000000000148e+01 5.627469999999999573e+01 2.293010000000000218e+03
1.300000000000000114e-02 2.029269999999999963e-01 1.646499999999999986e+01 5.550724999999999909e+01 2.292779999999999745e+03
1.400000000000000203e-02 2.028969999999999940e-01 1.651115000000000066e+01 5.492430000000000234e+01 2.292605000000000018e+03
1.499999999999999944e-02 2.028900000000000148e-01 1.671839999999999904e+01 5.508455000000000013e+01 2.292574999999999818e+03
1.600000000000000033e-02 2.029259999999999953e-01 1.731950000000000145e+01 5.669105000000000416e+01 2.292800000000000182e+03
1.700000000000000122e-02 2.030119999999999980e-01 1.833579999999999899e+01 5.995504999999999995e+01 2.293349999999999909e+03
1.800000000000000211e-02 2.031374999999999986e-01 1.953320000000000078e+01 6.426649999999999352e+01 2.294150000000000091e+03
1.900000000000000300e-02 2.032710000000000072e-01 2.053670000000000329e+01 6.840709999999999980e+01 2.295024999999999636e+03
2.000000000000000042e-02 2.033770000000000022e-01 2.101630000000000109e+01 7.112160000000000082e+01 2.295739999999999782e+03
2.100000000000000130e-02 2.034289999999999987e-01 2.083570000000000277e+01 7.169360000000000355e+01 2.296119999999999891e+03
2.200000000000000219e-02 2.034210000000000185e-01 2.009619999999999962e+01 7.022820000000000107e+01 2.296105000000000018e+03
2.299999999999999961e-02 2.033674999999999788e-01 1.906364999999999910e+01 6.752459999999999241e+01 2.295784999999999854e+03
2.400000000000000050e-02 2.032935000000000159e-01 1.802990000000000137e+01 6.464379999999999882e+01 2.295309999999999945e+03
2.500000000000000139e-02 2.032249999999999890e-01 1.718370000000000175e+01 6.241754999999999853e+01 2.294859999999999673e+03
2.600000000000000228e-02 2.031744999999999801e-01 1.655079999999999885e+01 6.113799999999999812e+01 2.294514999999999873e+03
2.700000000000000316e-02 2.031419999999999892e-01 1.601514999999999844e+01 6.053430000000000177e+01 2.294295000000000073e+03
2.800000000000000058e-02 2.031155000000000044e-01 1.539780000000000015e+01 5.999224999999999852e+01 2.294114999999999782e+03
2.900000000000000147e-02 2.030784999999999951e-01 1.455454999999999899e+01 5.889244999999999663e+01 2.293880000000000109e+03
3.000000000000000236e-02 2.030195000000000194e-01 1.345320000000000071e+01 5.692295000000000016e+01 2.293510000000000218e+03
3.099999999999999978e-02 2.029389999999999805e-01 1.220312000000000019e+01 5.425045000000000073e+01 2.292994999999999891e+03
3.200000000000000067e-02 2.028499999999999748e-01 1.102446000000000126e+01 5.148295000000000243e+01 2.292425000000000182e+03
3.300000000000000155e-02 2.027744999999999964e-01 1.016893500000000117e+01 4.944219999999999970e+01 2.291914999999999964e+03
3.400000000000000244e-02 2.027329999999999965e-01 9.827650000000000219e+00 4.884555000000000291e+01 2.291625000000000000e+03
3.500000000000000333e-02 2.027424999999999922e-01 1.006390000000000029e+01 5.003529999999999944e+01 2.291654999999999745e+03
3.600000000000000422e-02 2.028030000000000110e-01 1.079347500000000082e+01 5.285504999999999853e+01 2.292019999999999982e+03
3.700000000000000511e-02 2.029040000000000010e-01 1.181240000000000023e+01 5.670060000000000144e+01 2.292649999999999636e+03
3.799999999999999906e-02 2.030230000000000090e-01 1.285500000000000043e+01 6.070159999999999911e+01 2.293420000000000073e+03
3.899999999999999994e-02 2.031350000000000100e-01 1.365925000000000011e+01 6.395539999999999736e+01 2.294144999999999982e+03
4.000000000000000083e-02 2.032140000000000057e-01 1.402094999999999914e+01 6.573704999999999643e+01 2.294680000000000291e+03
4.100000000000000172e-02 2.032430000000000070e-01 1.382455000000000034e+01 6.563339999999999463e+01 2.294894999999999982e+03
4.200000000000000261e-02 2.032130000000000047e-01 1.304940000000000033e+01 6.358114999999999384e+01 2.294725000000000364e+03
4.300000000000000350e-02 2.031255000000000144e-01 1.175309000000000026e+01 5.981640000000000157e+01 2.294180000000000291e+03
4.400000000000000439e-02 2.029894999999999894e-01 1.004323999999999906e+01 5.476664999999999850e+01 2.293315000000000055e+03
4.499999999999999833e-02 2.028165000000000107e-01 8.046509999999999607e+00 4.892690000000000339e+01 2.292204999999999927e+03
4.599999999999999922e-02 2.026219999999999966e-01 5.885383000000000031e+00 4.275695000000000334e+01 2.290945000000000164e+03
4.700000000000000011e-02 2.024170000000000136e-01 3.665410000000000501e+00 3.662259999999999849e+01 2.289609999999999673e+03
4.800000000000000100e-02 2.022134999999999905e-01 1.473775000000000279e+00 3.078365000000000151e+01 2.288279999999999745e+03
4.900000000000000189e-02 2.020184999999999897e-01 -6.150800000000000711e-01 2.541689999999999827e+01 2.287000000000000000e+03
5.000000000000000278e-02 2.018380000000000174e-01 -2.531725000000000225e+00 2.065480000000000160e+01 2.285814999999999600e+03
5.100000000000000366e-02 2.016780000000000239e-01 -4.205869999999999997e+00 1.662134499999999804e+01 2.284760000000000218e+03
5.200000000000000455e-02 2.015445000000000153e-01 -5.564999999999999503e+00 1.345250500000000038e+01 2.283869999999999891e+03
5.300000000000000544e-02 2.014414999999999956e-01 -6.537810000000000343e+00 1.129695000000000071e+01 2.283180000000000291e+03
5.399999999999999939e-02 2.013749999999999984e-01 -7.061370000000000147e+00 1.029919999999999902e+01 2.282720000000000255e+03
5.500000000000000028e-02 2.013490000000000002e-01 -7.089539999999999509e+00 1.057383500000000076e+01 2.282520000000000437e+03
5.600000000000000117e-02 2.013675000000000048e-01 -6.600099999999999412e+00 1.217940000000000111e+01 2.282610000000000127e+03
5.700000000000000205e-02 2.014305000000000123e-01 -5.598740000000000272e+00 1.510064999999999813e+01 2.282989999999999782e+03
5.800000000000000294e-02 2.015379999999999949e-01 -4.119119999999999671e+00 1.924430000000000263e+01 2.283659999999999854e+03
5.900000000000000383e-02 2.016850000000000032e-01 -2.219310000000000116e+00 2.444684999999999775e+01 2.284590000000000146e+03
6.000000000000000472e-02 2.018659999999999899e-01 2.385999999999999233e-02 3.049210000000000065e+01 2.285750000000000000e+03
6.099999999999999867e-02 2.020744999999999902e-01 2.521379999999999733e+00 3.713219999999999743e+01 2.287090000000000146e+03
6.199999999999999956e-02 2.023014999999999952e-01 5.178283249999999782e+00 4.410849999999999937e+01 2.288559999999999945e+03
6.300000000000000044e-02 2.025394999999999834e-01 7.899090000000000167e+00 5.116849999999999454e+01 2.290109999999999673e+03
6.400000000000000133e-02 2.027795000000000014e-01 1.059277499999999961e+01 5.808019999999999783e+01 2.291684999999999945e+03
6.500000000000000222e-02 2.030140000000000000e-01 1.317747499999999938e+01 6.464355000000000473e+01 2.293224999999999909e+03
6.600000000000000311e-02 2.032370000000000010e-01 1.558489999999999931e+01 7.070120000000000005e+01 2.294704999999999927e+03
6.700000000000000400e-02 2.034440000000000137e-01 1.776460000000000150e+01 7.614760000000001128e+01 2.296074999999999818e+03
6.800000000000000488e-02 2.036315000000000208e-01 1.968694999999999951e+01 8.093604999999999450e+01 2.297324999999999818e+03
6.900000000000000577e-02 2.037980000000000069e-01 2.134445000000000192e+01 8.508095000000000141e+01 2.298444999999999709e+03
7.000000000000000666e-02 2.039449999999999874e-01 2.275094999999999956e+01 8.865379999999998972e+01 2.299435000000000400e+03
7.100000000000000755e-02 2.040750000000000064e-01 2.393844999999999956e+01 9.177289999999999281e+01 2.300305000000000291e+03
7.200000000000000844e-02 2.041919999999999846e-01 2.495224999999999937e+01 9.458744999999998981e+01 2.301099999999999909e+03
7.300000000000000933e-02 2.043000000000000094e-01 2.584459999999999980e+01 9.725820000000000221e+01 2.301829999999999927e+03
7.399999999999999634e-02 2.044050000000000034e-01 2.666859999999999786e+01 9.993914999999999793e+01 2.302534999999999854e+03
7.499999999999999722e-02 2.045109999999999983e-01 2.747259999999999991e+01 1.027594500000000011e+02 2.303244999999999891e+03
7.599999999999999811e-02 2.046215000000000117e-01 2.829534999999999911e+01 1.058135000000000048e+02 2.303989999999999782e+03
7.699999999999999900e-02 2.047395000000000187e-01 2.916365000000000052e+01 1.091520000000000010e+02 2.304769999999999982e+03
7.799999999999999989e-02 2.048670000000000213e-01 3.009065000000000012e+01 1.127824999999999989e+02 2.305614999999999782e+03
7.900000000000000078e-02 2.050024999999999764e-01 3.107600000000000051e+01 1.166714999999999947e+02 2.306510000000000218e+03
8.000000000000000167e-02 2.051450000000000218e-01 3.210714999999999719e+01 1.207535000000000025e+02 2.307460000000000036e+03
8.100000000000000255e-02 2.052930000000000033e-01 3.316124999999999545e+01 1.249354999999999905e+02 2.308440000000000055e+03
8.200000000000000344e-02 2.054414999999999991e-01 3.420780000000000598e+01 1.291090000000000089e+02 2.309430000000000291e+03
8.300000000000000433e-02 2.055894999999999806e-01 3.521155000000000257e+01 1.331585000000000036e+02 2.310409999999999854e+03
8.400000000000000522e-02 2.057315000000000116e-01 3.613519999999999754e+01 1.369695000000000107e+02 2.311360000000000127e+03
8.500000000000000611e-02 2.058634999999999771e-01 3.694209999999999638e+01 1.404375000000000000e+02 2.312244999999999891e+03
8.600000000000000699e-02 2.059840000000000004e-01 3.759944999999999737e+01 1.434705000000000155e+02 2.313050000000000182e+03
8.700000000000000788e-02 2.060885000000000078e-01 3.807965000000000089e+01 1.459990000000000236e+02 2.313760000000000218e+03
8.800000000000000877e-02 2.061755000000000115e-01 3.836289999999999623e+01 1.479744999999999777e+02 2.314349999999999909e+03
8.899999999999999578e-02 2.062434999999999963e-01 3.843795000000000073e+01 1.493774999999999977e+02 2.314815000000000055e+03
8.999999999999999667e-02 2.062924999999999898e-01 3.830294999999999561e+01 1.502115000000000009e+02 2.315154999999999745e+03
9.099999999999999756e-02 2.063220000000000054e-01 3.796524999999999750e+01 1.505060000000000002e+02 2.315364999999999782e+03
9.199999999999999845e-02 2.063329999999999886e-01 3.744084999999999752e+01 1.503129999999999882e+02 2.315454999999999927e+03
9.299999999999999933e-02 2.063280000000000114e-01 3.675280000000000058e+01 1.496999999999999886e+02 2.315435000000000400e+03
9.400000000000000022e-02 2.063099999999999934e-01 3.592995000000000516e+01 1.487479999999999905e+02 2.315324999999999818e+03
9.500000000000000111e-02 2.062800000000000189e-01 3.500475000000000136e+01 1.475450000000000159e+02 2.315135000000000218e+03
9.600000000000000200e-02 2.062414999999999943e-01 3.401144999999999641e+01 1.461795000000000186e+02 2.314889999999999873e+03
9.700000000000000289e-02 2.061979999999999924e-01 3.298445000000000249e+01 1.447390000000000043e+02 2.314605000000000018e+03
9.800000000000000377e-02 2.061525000000000163e-01 3.195639999999999858e+01 1.433019999999999925e+02 2.314304999999999836e+03
9.900000000000000466e-02 2.061060000000000114e-01 3.095690000000000097e+01 1.419385000000000048e+02 2.314000000000000000e+03
1.000000000000000056e-01 2.060620000000000229e-01 3.001120000000000232e+01 1.407050000000000125e+02 2.313704999999999927e+03
1.010000000000000064e-01 2.060230000000000117e-01 2.913929999999999865e+01 1.396460000000000150e+02 2.313440000000000055e+03
1.020000000000000073e-01 2.059884999999999911e-01 2.835484999999999900e+01 1.387870000000000061e+02 2.313204999999999927e+03
1.030000000000000082e-01 2.059604999999999908e-01 2.766474999999999795e+01 1.381374999999999886e+02 2.313014999999999873e+03
1.040000000000000091e-01 2.059389999999999832e-01 2.706879999999999953e+01 1.376904999999999859e+02 2.312864999999999782e+03
1.050000000000000100e-01 2.059239999999999959e-01 2.655995000000000061e+01 1.374189999999999827e+02 2.312755000000000109e+03
1.059999999999999970e-01 2.059139999999999859e-01 2.612470000000000070e+01 1.372830000000000155e+02 2.312684999999999945e+03
1.069999999999999979e-01 2.059074999999999933e-01 2.574434999999999718e+01 1.372280000000000086e+02 2.312640000000000327e+03
1.079999999999999988e-01 2.059030000000000027e-01 2.539634999999999820e+01 1.371929999999999836e+02 2.312599999999999909e+03
1.089999999999999997e-01 2.058989999999999987e-01 2.505594999999999928e+01 1.371094999999999970e+02 2.312570000000000164e+03
1.100000000000000006e-01 2.058919999999999917e-01 2.469804999999999851e+01 1.369130000000000109e+02 2.312525000000000091e+03
1.110000000000000014e-01 2.058810000000000084e-01 2.429919999999999902e+01 1.365420000000000016e+02 2.312449999999999818e+03
1.120000000000000023e-01 2.058639999999999914e-01 2.383915000000000006e+01 1.359474999999999909e+02 2.312335000000000036e+03
1.130000000000000032e-01 2.058385000000000076e-01 2.330229999999999890e+01 1.350939999999999941e+02 2.312170000000000073e+03
1.140000000000000041e-01 2.058045000000000013e-01 2.267925000000000324e+01 1.339629999999999939e+02 2.311944999999999709e+03
1.150000000000000050e-01 2.057620000000000005e-01 2.196685000000000088e+01 1.325545000000000186e+02 2.311664999999999964e+03
1.160000000000000059e-01 2.057094999999999896e-01 2.116910000000000025e+01 1.308880000000000052e+02 2.311324999999999818e+03
1.170000000000000068e-01 2.056489999999999985e-01 2.029619999999999891e+01 1.289979999999999905e+02 2.310929999999999836e+03
1.180000000000000077e-01 2.055815000000000003e-01 1.936424999999999841e+01 1.269364999999999952e+02 2.310485000000000127e+03
1.190000000000000085e-01 2.055095000000000116e-01 1.839405000000000001e+01 1.247639999999999958e+02 2.310005000000000109e+03
1.200000000000000094e-01 2.054334999999999911e-01 1.740950000000000131e+01 1.225494999999999948e+02 2.309505000000000109e+03
1.209999999999999964e-01 2.053564999999999974e-01 1.643614999999999782e+01 1.203649999999999949e+02 2.308994999999999891e+03
1.219999999999999973e-01 2.052819999999999923e-01 1.549965000000000082e+01 1.182785000000000082e+02 2.308500000000000000e+03
1.229999999999999982e-01 2.052105000000000179e-01 1.462390000000000079e+01 1.163534999999999968e+02 2.308024999999999636e+03
1.239999999999999991e-01 2.051449999999999940e-01 1.382995000000000019e+01 1.146430000000000007e+02 2.307585000000000036e+03
1.250000000000000000e-01 2.050865000000000049e-01 1.313480000000000025e+01 1.131870000000000118e+02 2.307190000000000055e+03
1.260000000000000009e-01 2.050369999999999970e-01 1.255069999999999908e+01 1.120140000000000100e+02 2.306859999999999673e+03
1.270000000000000018e-01 2.049969999999999848e-01 1.208464999999999989e+01 1.111359999999999957e+02 2.306585000000000036e+03
1.280000000000000027e-01 2.049664999999999959e-01 1.173859999999999992e+01 1.105520000000000067e+02 2.306375000000000000e+03
1.290000000000000036e-01 2.049465000000000037e-01 1.150934999999999953e+01 1.102489999999999952e+02 2.306230000000000018e+03
1.300000000000000044e-01 2.049354999999999927e-01 1.138949999999999996e+01 1.102025000000000006e+02 2.306149999999999636e+03
1.310000000000000053e-01 2.049330000000000040e-01 1.136754999999999960e+01 1.103799999999999955e+02 2.306125000000000000e+03
1.320000000000000062e-01 2.049374999999999947e-01 1.142924999999999969e+01 1.107415000000000020e+02 2.306150000000000091e+03
1.330000000000000071e-01 2.049485000000000057e-01 1.155819999999999936e+01 1.112445000000000022e+02 2.306220000000000255e+03
1.340000000000000080e-01 2.049640000000000073e-01 1.173669999999999902e+01 1.118430000000000035e+02 2.306315000000000055e+03
1.350000000000000089e-01 2.049830000000000263e-01 1.194664999999999999e+01 1.124939999999999998e+02 2.306434999999999945e+03
1.360000000000000098e-01 2.050035000000000052e-01 1.217045000000000066e+01 1.131535000000000082e+02 2.306565000000000055e+03
1.370000000000000107e-01 2.050240000000000118e-01 1.239154999999999873e+01 1.137845000000000084e+02 2.306704999999999927e+03
1.380000000000000115e-01 2.050440000000000040e-01 1.259520000000000017e+01 1.143530000000000086e+02 2.306835000000000036e+03
1.390000000000000124e-01 2.050615000000000077e-01 1.276890000000000036e+01 1.148315000000000055e+02 2.306949999999999818e+03
1.400000000000000133e-01 2.050770000000000093e-01 1.290299999999999869e+01 1.152009999999999934e+02 2.307050000000000182e+03
1.410000000000000142e-01 2.050879999999999925e-01 1.299085000000000001e+01 1.154484999999999957e+02 2.307130000000000109e+03
1.420000000000000151e-01 2.050954999999999862e-01 1.302914999999999957e+01 1.155705000000000098e+02 2.307184999999999945e+03
1.430000000000000160e-01 2.050989999999999758e-01 1.301769999999999960e+01 1.155709999999999980e+02 2.307210000000000036e+03
1.440000000000000169e-01 2.050985000000000169e-01 1.295925000000000082e+01 1.154604999999999961e+02 2.307210000000000036e+03
1.450000000000000178e-01 2.050949999999999995e-01 1.285945000000000071e+01 1.152565000000000026e+02 2.307185000000000400e+03
1.459999999999999909e-01 2.050879999999999925e-01 1.272584999999999944e+01 1.149805000000000064e+02 2.307145000000000437e+03
1.469999999999999918e-01 2.050790000000000113e-01 1.256759999999999877e+01 1.146585000000000036e+02 2.307090000000000146e+03
1.479999999999999927e-01 2.050684999999999869e-01 1.239460000000000051e+01 1.143164999999999907e+02 2.307024999999999636e+03
1.489999999999999936e-01 2.050580000000000180e-01 1.221685000000000088e+01 1.139795000000000016e+02 2.306954999999999927e+03
1.499999999999999944e-01 2.050474999999999937e-01 1.204354999999999976e+01 1.136699999999999875e+02 2.306885000000000218e+03
1.509999999999999953e-01 2.050374999999999837e-01 1.188279999999999959e+01 1.134064999999999941e+02 2.306815000000000055e+03
1.519999999999999962e-01 2.050295000000000034e-01 1.174085000000000001e+01 1.132019999999999982e+02 2.306760000000000218e+03
1.529999999999999971e-01 2.050230000000000108e-01 1.162195000000000000e+01 1.130644999999999953e+02 2.306720000000000255e+03
1.539999999999999980e-01 2.050190000000000068e-01 1.152839999999999954e+01 1.129954999999999927e+02 2.306694999999999709e+03
1.549999999999999989e-01 2.050170000000000048e-01 1.146035000000000004e+01 1.129920000000000044e+02 2.306680000000000291e+03
1.559999999999999998e-01 2.050174999999999914e-01 1.141624999999999979e+01 1.130455000000000041e+02 2.306680000000000291e+03
1.570000000000000007e-01 2.050194999999999934e-01 1.139300000000000068e+01 1.131440000000000055e+02 2.306690000000000055e+03
1.580000000000000016e-01 2.050224999999999964e-01 1.138640000000000008e+01 1.132754999999999939e+02 2.306710000000000036e+03
1.590000000000000024e-01 2.050270000000000148e-01 1.139170000000000016e+01 1.134244999999999948e+02 2.306734999999999673e+03
