# t [s], A [cm^2], U [cm/s], P [cPa], c [cm/s]
1.000000000000000021e-03 6.076174999999999216e-01 3.918000000000004812e-03 1.007899999999999920e+02 1.523565000000000055e+03
2.000000000000000042e-03 6.076090000000000657e-01 -7.231299999999998883e-04 1.007690000000000055e+02 1.523559999999999945e+03
3.000000000000000062e-03 6.076550000000000562e-01 7.720140000000000335e-02 1.008465000000000060e+02 1.523585000000000036e+03
4.000000000000000083e-03 6.077059999999999684e-01 1.685355000000000047e-01 1.009578999999999951e+02 1.523610000000000127e+03
5.000000000000000104e-03 6.076965000000000838e-01 1.645555000000000212e-01 1.009445000000000050e+02 1.523610000000000127e+03
6.000000000000000125e-03 6.076439999999999619e-01 8.418150000000002020e-02 1.007880000000000109e+02 1.523579999999999927e+03
7.000000000000000146e-03 6.075930000000000497e-01 7.999999999999674039e-04 1.005660000000000025e+02 1.523535000000000082e+03
8.000000000000000167e-03 6.075260000000000105e-01 -1.173664999999999847e-01 1.002565000000000026e+02 1.523465000000000146e+03
9.000000000000001055e-03 6.074094999999999356e-01 -3.323500000000000343e-01 9.977915000000000134e+01 1.523365000000000009e+03
1.000000000000000194e-02 6.072364999999999569e-01 -6.564400000000000235e-01 9.908754999999999313e+01 1.523210000000000036e+03
1.099999999999999936e-02 6.069970000000000088e-01 -1.096744999999999859e+00 9.814099999999999113e+01 1.523005000000000109e+03
1.200000000000000025e-02 6.066774999999999807e-01 -1.665110000000000312e+00 9.689079999999999870e+01 1.522724999999999909e+03
1.300000000000000114e-02 6.062825000000000575e-01 -2.334410000000000096e+00 9.533089999999999975e+01 1.522365000000000009e+03
1.400000000000000203e-02 6.058494999999999298e-01 -3.016154999999999919e+00 9.354304999999999382e+01 1.521945000000000164e+03
1.499999999999999944e-02 6.054299999999999127e-01 -3.589694999999999858e+00 9.167500000000001137e+01 1.521490000000000009e+03
1.600000000000000033e-02 6.050670000000000215e-01 -3.953175499999999953e+00 8.988240000000000407e+01 1.521034999999999854e+03
1.700000000000000122e-02 6.047744999999999926e-01 -4.057738500000000137e+00 8.827270000000000039e+01 1.520599999999999909e+03
1.800000000000000211e-02 6.045430000000000526e-01 -3.913139499999999771e+00 8.687985000000000468e+01 1.520204999999999927e+03
1.900000000000000300e-02 6.043425000000000047e-01 -3.572242500000000209e+00 8.566920000000000357e+01 1.519840000000000146e+03
2.000000000000000042e-02 6.041414999999999980e-01 -3.106540700000000044e+00 8.456204999999999927e+01 1.519494999999999891e+03
2.100000000000000130e-02 6.039124999999999632e-01 -2.581907499999999800e+00 8.346829999999999927e+01 1.519154999999999973e+03
2.200000000000000219e-02 6.036429999999999296e-01 -2.040874999999999773e+00 8.231624999999999659e+01 1.518800000000000182e+03
2.299999999999999961e-02 6.033340000000000369e-01 -1.495955000000000146e+00 8.107200000000000273e+01 1.518430000000000064e+03
2.400000000000000050e-02 6.029984999999999928e-01 -9.351750000000000895e-01 7.974160000000000537e+01 1.518039999999999964e+03
2.500000000000000139e-02 6.026540000000000230e-01 -3.364899999999999558e-01 7.835835000000000150e+01 1.517634999999999991e+03
2.600000000000000228e-02 6.023130000000000983e-01 3.156099999999999461e-01 7.696174999999999500e+01 1.517224999999999909e+03
2.700000000000000316e-02 6.019790000000000418e-01 1.017689999999999984e+00 7.557704999999999984e+01 1.516819999999999936e+03
2.800000000000000058e-02 6.016459999999999031e-01 1.742604999999999960e+00 7.420159999999999911e+01 1.516409999999999854e+03
2.900000000000000147e-02 6.012975000000000403e-01 2.442450000000000010e+00 7.280225000000000080e+01 1.516000000000000000e+03
3.000000000000000236e-02 6.009124999999999606e-01 3.057444999999999968e+00 7.132115000000000293e+01 1.515565000000000055e+03
3.099999999999999978e-02 6.004720000000000057e-01 3.528019999999999712e+00 6.968979999999999109e+01 1.515105000000000018e+03
3.200000000000000067e-02 5.999609999999999665e-01 3.807360000000000078e+00 6.784645000000000437e+01 1.514594999999999800e+03
3.300000000000000155e-02 5.993760000000000199e-01 3.871209999999999596e+00 6.575254999999999939e+01 1.514034999999999854e+03
3.400000000000000244e-02 5.987234999999999641e-01 3.723420000000000396e+00 6.340600000000000591e+01 1.513420000000000073e+03
3.500000000000000333e-02 5.980229999999999713e-01 3.394804999999999851e+00 6.084519999999999840e+01 1.512755000000000109e+03
3.600000000000000422e-02 5.973019999999999996e-01 2.937069999999999848e+00 5.814580000000000126e+01 1.512050000000000182e+03
3.700000000000000511e-02 5.965894999999999948e-01 2.413484999999999658e+00 5.541004999999999825e+01 1.511335000000000036e+03
3.799999999999999906e-02 5.959164999999999601e-01 1.888580000000000148e+00 5.275265000000000271e+01 1.510630000000000109e+03
3.899999999999999994e-02 5.953089999999999771e-01 1.420165000000000344e+00 5.028640000000000043e+01 1.509964999999999918e+03
4.000000000000000083e-02 5.947864999999999958e-01 1.054004999999999637e+00 4.811050000000000182e+01 1.509355000000000018e+03
4.100000000000000172e-02 5.943635000000000446e-01 8.221499999999997144e-01 4.630325000000000557e+01 1.508839999999999918e+03
4.200000000000000261e-02 5.940469999999999917e-01 7.435999999999998167e-01 4.491854999999999620e+01 1.508414999999999964e+03
4.300000000000000350e-02 5.938404999999999934e-01 8.271749999999999936e-01 4.398669999999999902e+01 1.508105000000000018e+03
4.400000000000000439e-02 5.937419999999999920e-01 1.074980500000000117e+00 4.351800000000000068e+01 1.507905000000000200e+03
4.499999999999999833e-02 5.937494999999999301e-01 1.485860000000000181e+00 4.350795000000000101e+01 1.507825000000000045e+03
4.599999999999999922e-02 5.938590000000000257e-01 2.057844999999999924e+00 4.394235000000000468e+01 1.507860000000000127e+03
4.700000000000000011e-02 5.940670000000000117e-01 2.789382500000000320e+00 4.480160000000000053e+01 1.508009999999999991e+03
4.800000000000000100e-02 5.943684999999999663e-01 3.679161732999999934e+00 4.606365000000000265e+01 1.508269999999999982e+03
4.900000000000000189e-02 5.947605000000000253e-01 4.724969999999999892e+00 4.770430000000000348e+01 1.508630000000000109e+03
5.000000000000000278e-02 5.952359999999999873e-01 5.922012000000000498e+00 4.969735000000000014e+01 1.509095000000000027e+03
5.100000000000000366e-02 5.957885000000000542e-01 7.261372499999999341e+00 5.201290000000000191e+01 1.509644999999999982e+03
5.200000000000000455e-02 5.964099999999999957e-01 8.728994999999999393e+00 5.461635000000000417e+01 1.510275000000000091e+03
5.300000000000000544e-02 5.970900000000000096e-01 1.030555000000000021e+01 5.746779999999999688e+01 1.510980000000000018e+03
5.399999999999999939e-02 5.978149999999999853e-01 1.196708500000000086e+01 6.052219999999999800e+01 1.511750000000000000e+03
5.500000000000000028e-02 5.985745000000000093e-01 1.368641000000000041e+01 6.373054999999999382e+01 1.512565000000000055e+03
5.600000000000000117e-02 5.993549999999999711e-01 1.543478499999999976e+01 6.704214999999999236e+01 1.513420000000000073e+03
5.700000000000000205e-02 6.001435000000000519e-01 1.718383000000000038e+01 7.040690000000000737e+01 1.514300000000000182e+03
5.800000000000000294e-02 6.009305000000000341e-01 1.890739999999999910e+01 7.377795000000000414e+01 1.515190000000000055e+03
5.900000000000000383e-02 6.017060000000000741e-01 2.058275000000000077e+01 7.711424999999999841e+01 1.516085000000000036e+03
6.000000000000000472e-02 6.024639999999999995e-01 2.219154999999999944e+01 8.038210000000000832e+01 1.516970000000000027e+03
6.099999999999999867e-02 6.031994999999999996e-01 2.372050000000000125e+01 8.355644999999999811e+01 1.517839999999999918e+03
6.199999999999999956e-02 6.039105000000000167e-01 2.516080000000000183e+01 8.662149999999999750e+01 1.518690000000000055e+03
6.300000000000000044e-02 6.045964999999999812e-01 2.650835000000000008e+01 8.957009999999999650e+01 1.519519999999999982e+03
6.400000000000000133e-02 6.052580000000000737e-01 2.776290000000000191e+01 9.240285000000000082e+01 1.520320000000000164e+03
6.500000000000000222e-02 6.058985000000000065e-01 2.892710000000000292e+01 9.512709999999999866e+01 1.521095000000000027e+03
6.600000000000000311e-02 6.065199999999999481e-01 3.000605000000000189e+01 9.775479999999998881e+01 1.521845000000000027e+03
6.700000000000000400e-02 6.071275000000000421e-01 3.100655000000000427e+01 1.003025499999999965e+02 1.522579999999999927e+03
6.800000000000000488e-02 6.077245000000000008e-01 3.193599999999999994e+01 1.027867500000000121e+02 1.523295000000000073e+03
6.900000000000000577e-02 6.083155000000000090e-01 3.280209999999999582e+01 1.052249999999999943e+02 1.523994999999999891e+03
7.000000000000000666e-02 6.089029999999999720e-01 3.361214999999999975e+01 1.076340000000000003e+02 1.524695000000000164e+03
7.100000000000000755e-02 6.094895000000000174e-01 3.437219999999999942e+01 1.100264999999999986e+02 1.525380000000000109e+03
7.200000000000000844e-02 6.100769999999999804e-01 3.508709999999999951e+01 1.124110000000000014e+02 1.526065000000000055e+03
7.300000000000000933e-02 6.106650000000000134e-01 3.575974999999999682e+01 1.147934999999999945e+02 1.526750000000000000e+03
7.399999999999999634e-02 6.112535000000000052e-01 3.639085000000000036e+01 1.171734999999999900e+02 1.527430000000000064e+03
7.499999999999999722e-02 6.118405000000000094e-01 3.697939999999999827e+01 1.195450000000000017e+02 1.528110000000000127e+03
7.599999999999999811e-02 6.124229999999999396e-01 3.752219999999999800e+01 1.218979999999999961e+02 1.528780000000000200e+03
7.699999999999999900e-02 6.129960000000000964e-01 3.801470000000000482e+01 1.242179999999999893e+02 1.529450000000000045e+03
7.799999999999999989e-02 6.135554999999999204e-01 3.845100000000000051e+01 1.264864999999999924e+02 1.530099999999999909e+03
7.900000000000000078e-02 6.140970000000000040e-01 3.882450000000000045e+01 1.286845000000000141e+02 1.530740000000000009e+03
8.000000000000000167e-02 6.146150000000000224e-01 3.912845000000000084e+01 1.307905000000000086e+02 1.531349999999999909e+03
8.100000000000000255e-02 6.151040000000000951e-01 3.935629999999999740e+01 1.327839999999999918e+02 1.531934999999999945e+03
8.200000000000000344e-02 6.155610000000000248e-01 3.950239999999999441e+01 1.346444999999999936e+02 1.532485000000000127e+03
8.300000000000000433e-02 6.159805000000000419e-01 3.956190000000000140e+01 1.363569999999999993e+02 1.533000000000000000e+03
8.400000000000000522e-02 6.163604999999999778e-01 3.953150000000000119e+01 1.379050000000000011e+02 1.533474999999999909e+03
8.500000000000000611e-02 6.166985000000000383e-01 3.940930000000000177e+01 1.392779999999999916e+02 1.533900000000000091e+03
8.600000000000000699e-02 6.169934999999999725e-01 3.919519999999999982e+01 1.404710000000000036e+02 1.534275000000000091e+03
8.700000000000000788e-02 6.172444999999999737e-01 3.889074999999999704e+01 1.414789999999999850e+02 1.534605000000000018e+03
8.800000000000000877e-02 6.174524999999999597e-01 3.849920000000000186e+01 1.423040000000000020e+02 1.534884999999999991e+03
8.899999999999999578e-02 6.176185000000000702e-01 3.802555000000000263e+01 1.429515000000000100e+02 1.535109999999999900e+03
8.999999999999999667e-02 6.177449999999999886e-01 3.747610000000000241e+01 1.434300000000000068e+02 1.535299999999999955e+03
9.099999999999999756e-02 6.178350000000000231e-01 3.685875000000000057e+01 1.437504999999999882e+02 1.535429999999999836e+03
9.199999999999999845e-02 6.178919999999999968e-01 3.618254999999999910e+01 1.439284999999999854e+02 1.535529999999999973e+03
9.299999999999999933e-02 6.179194999999999549e-01 3.545725000000000193e+01 1.439800000000000182e+02 1.535585000000000036e+03
9.400000000000000022e-02 6.179224999999999302e-01 3.469344999999999857e+01 1.439234999999999900e+02 1.535615000000000009e+03
9.500000000000000111e-02 6.179050000000000376e-01 3.390200000000000102e+01 1.437775000000000034e+02 1.535605000000000018e+03
9.600000000000000200e-02 6.178715000000000179e-01 3.309355000000000047e+01 1.435620000000000118e+02 1.535579999999999927e+03
9.700000000000000289e-02 6.178265000000000562e-01 3.227850000000000108e+01 1.432950000000000159e+02 1.535534999999999854e+03
9.800000000000000377e-02 6.177734999999999754e-01 3.146640000000000015e+01 1.429950000000000045e+02 1.535474999999999909e+03
9.900000000000000466e-02 6.177165000000000017e-01 3.066580000000000084e+01 1.426769999999999925e+02 1.535404999999999973e+03
1.000000000000000056e-01 6.176589999999999581e-01 2.988374999999999915e+01 1.423559999999999945e+02 1.535329999999999927e+03
1.010000000000000064e-01 6.176025000000000542e-01 2.912584999999999980e+01 1.420414999999999850e+02 1.535255000000000109e+03
1.020000000000000073e-01 6.175479999999999858e-01 2.839594999999999914e+01 1.417419999999999902e+02 1.535175000000000182e+03
1.030000000000000082e-01 6.174979999999999913e-01 2.769604999999999961e+01 1.414624999999999773e+02 1.535095000000000027e+03
1.040000000000000091e-01 6.174509999999999721e-01 2.702640000000000242e+01 1.412040000000000077e+02 1.535029999999999973e+03
1.050000000000000100e-01 6.174070000000000391e-01 2.638585000000000136e+01 1.409654999999999916e+02 1.534960000000000036e+03
1.059999999999999970e-01 6.173649999999999416e-01 2.577145000000000152e+01 1.407434999999999832e+02 1.534894999999999982e+03
1.069999999999999979e-01 6.173229999999999551e-01 2.517930000000000135e+01 1.405310000000000059e+02 1.534835000000000036e+03
1.079999999999999988e-01 6.172794999999999810e-01 2.460444999999999993e+01 1.403204999999999814e+02 1.534764999999999873e+03
1.089999999999999997e-01 6.172320000000000029e-01 2.404139999999999944e+01 1.401020000000000039e+02 1.534704999999999927e+03
1.100000000000000006e-01 6.171780000000000044e-01 2.348434999999999917e+01 1.398665000000000020e+02 1.534634999999999991e+03
1.110000000000000014e-01 6.171154999999999280e-01 2.292755000000000010e+01 1.396034999999999968e+02 1.534559999999999945e+03
1.120000000000000023e-01 6.170430000000000081e-01 2.236540000000000106e+01 1.393045000000000186e+02 1.534480000000000018e+03
1.130000000000000032e-01 6.169580000000000064e-01 2.179314999999999714e+01 1.389615000000000009e+02 1.534380000000000109e+03
1.140000000000000041e-01 6.168595000000000050e-01 2.120655000000000001e+01 1.385665000000000191e+02 1.534275000000000091e+03
1.150000000000000050e-01 6.167464999999999753e-01 2.060244999999999749e+01 1.381159999999999854e+02 1.534154999999999973e+03
1.160000000000000059e-01 6.166190000000000282e-01 1.997895000000000110e+01 1.376075000000000159e+02 1.534025000000000091e+03
1.170000000000000068e-01 6.164769999999999417e-01 1.933514999999999873e+01 1.370389999999999873e+02 1.533869999999999891e+03
1.180000000000000077e-01 6.163214999999999666e-01 1.867159999999999798e+01 1.364139999999999873e+02 1.533704999999999927e+03
1.190000000000000085e-01 6.161529999999999507e-01 1.798989999999999867e+01 1.357355000000000018e+02 1.533530000000000200e+03
1.200000000000000094e-01 6.159745000000000914e-01 1.729310000000000258e+01 1.350104999999999791e+02 1.533340000000000146e+03
1.209999999999999964e-01 6.157874999999999321e-01 1.658520000000000039e+01 1.342470000000000141e+02 1.533134999999999991e+03
1.219999999999999973e-01 6.155939999999999745e-01 1.587124999999999986e+01 1.334549999999999841e+02 1.532920000000000073e+03
1.229999999999999982e-01 6.153980000000000006e-01 1.515700000000000003e+01 1.326465000000000032e+02 1.532710000000000036e+03
1.239999999999999991e-01 6.152014999999999567e-01 1.444877499999999948e+01 1.318319999999999936e+02 1.532485000000000127e+03
1.250000000000000000e-01 6.150085000000000690e-01 1.375334000000000145e+01 1.310254999999999939e+02 1.532264999999999873e+03
1.260000000000000009e-01 6.148219999999999796e-01 1.307748499999999936e+01 1.302394999999999925e+02 1.532045000000000073e+03
1.270000000000000018e-01 6.146435000000000093e-01 1.242780499999999932e+01 1.294859999999999900e+02 1.531835000000000036e+03
1.280000000000000027e-01 6.144769999999999399e-01 1.181058999999999948e+01 1.287764999999999986e+02 1.531634999999999991e+03
1.290000000000000036e-01 6.143244999999999401e-01 1.123141500000000015e+01 1.281214999999999975e+02 1.531450000000000045e+03
1.300000000000000044e-01 6.141874999999999973e-01 1.069500500000000009e+01 1.275294999999999987e+02 1.531275000000000091e+03
1.310000000000000053e-01 6.140680000000000582e-01 1.020522500000000043e+01 1.270070000000000050e+02 1.531119999999999891e+03
1.320000000000000062e-01 6.139665000000000816e-01 9.764744999999999564e+00 1.265584999999999951e+02 1.530980000000000018e+03
1.330000000000000071e-01 6.138829999999999565e-01 9.375009999999999621e+00 1.261864999999999952e+02 1.530865000000000009e+03
1.340000000000000080e-01 6.138179999999999747e-01 9.036429999999999296e+00 1.258915000000000077e+02 1.530764999999999873e+03
1.350000000000000089e-01 6.137704999999999966e-01 8.748034999999999783e+00 1.256709999999999923e+02 1.530684999999999945e+03
1.360000000000000098e-01 6.137384999999999646e-01 8.507920000000000371e+00 1.255210000000000008e+02 1.530619999999999891e+03
1.370000000000000107e-01 6.137220000000001008e-01 8.313119999999999621e+00 1.254364999999999952e+02 1.530579999999999927e+03
1.380000000000000115e-01 6.137179999999999858e-01 8.159884999999999167e+00 1.254095000000000084e+02 1.530554999999999836e+03
1.390000000000000124e-01 6.137254999999999239e-01 8.043820000000000192e+00 1.254320000000000022e+02 1.530539999999999964e+03
1.400000000000000133e-01 6.137414999999999399e-01 7.960065000000000168e+00 1.254950000000000045e+02 1.530545000000000073e+03
1.410000000000000142e-01 6.137634999999999064e-01 7.903504999999999114e+00 1.255895000000000010e+02 1.530554999999999836e+03
1.420000000000000151e-01 6.137905000000000166e-01 7.868954999999999700e+00 1.257049999999999983e+02 1.530575000000000045e+03
1.430000000000000160e-01 6.138194999999999624e-01 7.851350000000000051e+00 1.258344999999999914e+02 1.530599999999999909e+03
1.440000000000000169e-01 6.138489999999999780e-01 7.845855000000000246e+00 1.259685000000000059e+02 1.530619999999999891e+03
1.450000000000000178e-01 6.138775000000000759e-01 7.848054999999999559e+00 1.261005000000000109e+02 1.530650000000000091e+03
1.459999999999999909e-01 6.139030000000000875e-01 7.853989999999999583e+00 1.262230000000000132e+02 1.530680000000000064e+03
1.469999999999999918e-01 6.139250000000000540e-01 7.860274999999999679e+00 1.263324999999999960e+02 1.530704999999999927e+03
1.479999999999999927e-01 6.139434999999999754e-01 7.864135000000000986e+00 1.264244999999999948e+02 1.530724999999999909e+03
1.489999999999999936e-01 6.139569999999999750e-01 7.863390000000000768e+00 1.264980000000000047e+02 1.530750000000000000e+03
1.499999999999999944e-01 6.139660000000000117e-01 7.856505000000000294e+00 1.265490000000000066e+02 1.530759999999999991e+03
1.509999999999999953e-01 6.139695000000000569e-01 7.842499999999999361e+00 1.265805000000000007e+02 1.530769999999999982e+03
1.519999999999999962e-01 6.139689999999999870e-01 7.820959999999999468e+00 1.265909999999999940e+02 1.530775000000000091e+03
1.529999999999999971e-01 6.139645000000000241e-01 7.791939999999999422e+00 1.265834999999999866e+02 1.530769999999999982e+03
1.539999999999999980e-01 6.139569999999999750e-01 7.755919999999999703e+00 1.265594999999999999e+02 1.530769999999999982e+03
1.549999999999999989e-01 6.139459999999999917e-01 7.713720000000000354e+00 1.265220000000000056e+02 1.530764999999999873e+03
1.559999999999999998e-01 6.139334999999999098e-01 7.666394999999999627e+00 1.264749999999999943e+02 1.530755000000000109e+03
1.570000000000000007e-01 6.139200000000000212e-01 7.615194999999999936e+00 1.264205000000000041e+02 1.530740000000000009e+03
1.580000000000000016e-01 6.139054999999999929e-01 7.561455000000000481e+00 1.263615000000000066e+02 1.530724999999999909e+03
1.590000000000000024e-01 6.138915000000000344e-01 7.506494999999999251e+00 1.263015000000000043e+02 1.530710000000000036e+03
