# t [s], A [cm^2], U [cm/s], P [cPa], c [cm/s]
1.000000000000000021e-03 4.809425000000000505e-01 4.402249999999996444e-03 1.095829999999999984e+02 1.434210000000000036e+03
2.000000000000000042e-03 4.809350000000000014e-01 -4.589545499999999950e-04 1.095664999999999907e+02 1.434204999999999927e+03
3.000000000000000062e-03 4.809594999999999843e-01 4.518624999999999725e-02 1.096084999999999923e+02 1.434219999999999800e+03
4.000000000000000083e-03 4.810044999999999460e-01 1.317510500000000084e-01 1.097104999999999961e+02 1.434255000000000109e+03
5.000000000000000104e-03 4.810155000000000403e-01 1.602296000000000276e-01 1.097460000000000093e+02 1.434269999999999982e+03
6.000000000000000125e-03 4.809849999999999959e-01 1.080215000000000064e-01 1.096585000000000036e+02 1.434250000000000000e+03
7.000000000000000146e-03 4.809450000000000114e-01 3.383449999999998958e-02 1.094954999999999927e+02 1.434204999999999927e+03
8.000000000000000167e-03 4.809075000000000433e-01 -3.990899999999997227e-02 1.092899999999999920e+02 1.434144999999999982e+03
9.000000000000001055e-03 4.808485000000000120e-01 -1.641650000000000054e-01 1.089935000000000116e+02 1.434065000000000055e+03
1.000000000000000194e-02 4.807535000000000003e-01 -3.701950000000000518e-01 1.085560000000000116e+02 1.433945000000000164e+03
1.099999999999999936e-02 4.806205000000000060e-01 -6.594499999999999806e-01 1.079519999999999982e+02 1.433769999999999982e+03
1.200000000000000025e-02 4.804404999999999926e-01 -1.040840000000000209e+00 1.071449999999999960e+02 1.433539999999999964e+03
1.300000000000000114e-02 4.802039999999999642e-01 -1.523880000000000123e+00 1.060960000000000036e+02 1.433230000000000018e+03
1.400000000000000203e-02 4.799130000000000340e-01 -2.084130000000000038e+00 1.048004999999999995e+02 1.432839999999999918e+03
1.499999999999999944e-02 4.795939999999999648e-01 -2.649619999999999642e+00 1.033181000000000012e+02 1.432384999999999991e+03
1.600000000000000033e-02 4.792815000000000270e-01 -3.123395000000000366e+00 1.017536499999999933e+02 1.431880000000000109e+03
1.700000000000000122e-02 4.790034999999999710e-01 -3.420815000000000161e+00 1.002228000000000065e+02 1.431375000000000000e+03
1.800000000000000211e-02 4.787730000000000041e-01 -3.496193000000000328e+00 9.880819999999999936e+01 1.430880000000000109e+03
1.900000000000000300e-02 4.785835000000000505e-01 -3.349409000000000081e+00 9.754200000000000159e+01 1.430409999999999854e+03
2.000000000000000042e-02 4.784180000000000099e-01 -3.016867500000000035e+00 9.640710000000001401e+01 1.429970000000000027e+03
2.100000000000000130e-02 4.782524999999999693e-01 -2.554501499999999758e+00 9.534959999999999525e+01 1.429545000000000073e+03
2.200000000000000219e-02 4.780670000000000197e-01 -2.019530000000000047e+00 9.430134999999999934e+01 1.429119999999999891e+03
2.299999999999999961e-02 4.778479999999999950e-01 -1.455469999999999819e+00 9.320125000000000171e+01 1.428679999999999836e+03
2.400000000000000050e-02 4.775925000000000309e-01 -8.836149999999998172e-01 9.201200000000000045e+01 1.428215000000000146e+03
2.500000000000000139e-02 4.773070000000000368e-01 -3.026699999999999946e-01 9.072690000000000055e+01 1.427720000000000027e+03
2.600000000000000228e-02 4.770039999999999836e-01 3.041949999999999932e-01 8.936715000000000941e+01 1.427199999999999818e+03
2.700000000000000316e-02 4.766964999999999675e-01 9.579500000000003013e-01 8.797005000000000052e+01 1.426664999999999964e+03
2.800000000000000058e-02 4.763939999999999841e-01 1.672295000000000087e+00 8.657415000000000305e+01 1.426130000000000109e+03
2.900000000000000147e-02 4.761019999999999697e-01 2.445624999999999716e+00 8.520615000000000805e+01 1.425595000000000027e+03
3.000000000000000236e-02 4.758160000000000167e-01 3.258020000000000138e+00 8.387229999999999563e+01 1.425070000000000164e+03
3.099999999999999978e-02 4.755270000000000330e-01 4.073199999999999932e+00 8.255580000000000496e+01 1.424550000000000182e+03
3.200000000000000067e-02 4.752229999999999510e-01 4.844380000000000130e+00 8.122079999999999700e+01 1.424025000000000091e+03
3.300000000000000155e-02 4.748900000000000343e-01 5.522269999999999790e+00 7.982009999999999650e+01 1.423485000000000127e+03
3.400000000000000244e-02 4.745169999999999666e-01 6.063950000000000173e+00 7.830629999999999313e+01 1.422914999999999964e+03
3.500000000000000333e-02 4.740984999999999783e-01 6.440825000000000244e+00 7.664330000000001064e+01 1.422309999999999945e+03
3.600000000000000422e-02 4.736365000000000158e-01 6.643925000000000303e+00 7.481620000000000914e+01 1.421655000000000200e+03
3.700000000000000511e-02 4.731389999999999763e-01 6.685115000000000585e+00 7.283695000000000164e+01 1.420960000000000036e+03
3.799999999999999906e-02 4.726215000000000277e-01 6.595059999999999256e+00 7.074474999999999625e+01 1.420235000000000127e+03
3.899999999999999994e-02 4.721029999999999949e-01 6.417270000000000252e+00 6.860179999999999723e+01 1.419485000000000127e+03
4.000000000000000083e-02 4.716029999999999944e-01 6.201305000000000511e+00 6.648520000000000607e+01 1.418740000000000009e+03
4.100000000000000172e-02 4.711414999999999909e-01 5.995994999999999742e+00 6.447755000000000791e+01 1.418029999999999973e+03
4.200000000000000261e-02 4.707339999999999858e-01 5.844160000000000466e+00 6.265800000000000125e+01 1.417369999999999891e+03
4.300000000000000350e-02 4.703930000000000611e-01 5.779494999999999827e+00 6.109575000000000244e+01 1.416785000000000082e+03
4.400000000000000439e-02 4.701269999999999616e-01 5.825624499999999983e+00 5.984510000000000218e+01 1.416295000000000073e+03
4.499999999999999833e-02 4.699409999999999976e-01 5.996764999999999901e+00 5.894415000000000049e+01 1.415914999999999964e+03
4.599999999999999922e-02 4.698360000000000314e-01 6.299710000000000143e+00 5.841510000000000247e+01 1.415654999999999973e+03
4.700000000000000011e-02 4.698120000000000074e-01 6.736309999999999576e+00 5.826664999999999850e+01 1.415519999999999982e+03
4.800000000000000100e-02 4.698669999999999791e-01 7.305939999999999657e+00 5.849725000000000108e+01 1.415519999999999982e+03
4.900000000000000189e-02 4.699990000000000556e-01 8.007450000000000401e+00 5.909820000000000562e+01 1.415644999999999982e+03
5.000000000000000278e-02 4.702054999999999985e-01 8.840250000000001052e+00 6.005725000000000335e+01 1.415889999999999873e+03
5.100000000000000366e-02 4.704850000000000421e-01 9.804570000000000007e+00 6.136039999999999850e+01 1.416264999999999873e+03
5.200000000000000455e-02 4.708339999999999748e-01 1.090063500000000118e+01 6.299240000000000350e+01 1.416759999999999991e+03
5.300000000000000544e-02 4.712505000000000166e-01 1.212756499999999882e+01 6.493710000000000093e+01 1.417365000000000009e+03
5.399999999999999939e-02 4.717304999999999970e-01 1.348193999999999981e+01 6.717645000000000266e+01 1.418079999999999927e+03
5.500000000000000028e-02 4.722705000000000375e-01 1.495680499999999924e+01 6.968895000000000550e+01 1.418894999999999982e+03
5.600000000000000117e-02 4.728629999999999778e-01 1.654102500000000120e+01 7.244955000000000211e+01 1.419799999999999955e+03
5.700000000000000205e-02 4.735015000000000196e-01 1.821913999999999945e+01 7.542834999999999468e+01 1.420795000000000073e+03
5.800000000000000294e-02 4.741779999999999884e-01 1.997209999999999752e+01 7.859154999999999802e+01 1.421860000000000127e+03
5.900000000000000383e-02 4.748835000000000139e-01 2.177805000000000035e+01 8.190184999999999604e+01 1.422985000000000127e+03
6.000000000000000472e-02 4.756095000000000184e-01 2.361374999999999957e+01 8.532025000000000148e+01 1.424164999999999964e+03
6.099999999999999867e-02 4.763469999999999649e-01 2.545624999999999716e+01 8.880769999999999698e+01 1.425380000000000109e+03
6.199999999999999956e-02 4.770885000000000264e-01 2.728345000000000198e+01 9.232609999999999673e+01 1.426610000000000127e+03
6.300000000000000044e-02 4.778270000000000017e-01 2.907585000000000264e+01 9.584205000000000041e+01 1.427859999999999900e+03
6.400000000000000133e-02 4.785565000000000513e-01 3.081690000000000396e+01 9.932555000000000689e+01 1.429110000000000127e+03
6.500000000000000222e-02 4.792739999999999778e-01 3.249329999999999785e+01 1.027528999999999968e+02 1.430349999999999909e+03
6.600000000000000311e-02 4.799754999999999994e-01 3.409560000000000457e+01 1.061069499999999977e+02 1.431574999999999818e+03
6.700000000000000400e-02 4.806605000000000461e-01 3.561724999999999852e+01 1.093752000000000066e+02 1.432779999999999973e+03
6.800000000000000488e-02 4.813279999999999781e-01 3.705485000000000184e+01 1.125529999999999973e+02 1.433965000000000146e+03
6.900000000000000577e-02 4.819784999999999764e-01 3.840735000000000099e+01 1.156390000000000100e+02 1.435115000000000009e+03
7.000000000000000666e-02 4.826124999999999998e-01 3.967549999999999955e+01 1.186350000000000051e+02 1.436244999999999891e+03
7.100000000000000755e-02 4.832319999999999949e-01 4.086155000000000115e+01 1.215484999999999900e+02 1.437349999999999909e+03
7.200000000000000844e-02 4.838390000000000191e-01 4.196849999999999881e+01 1.243864999999999981e+02 1.438424999999999955e+03
7.300000000000000933e-02 4.844344999999999901e-01 4.299989999999999668e+01 1.271580000000000013e+02 1.439484999999999900e+03
7.399999999999999634e-02 4.850200000000000067e-01 4.395924999999999727e+01 1.298704999999999927e+02 1.440519999999999982e+03
7.499999999999999722e-02 4.855975000000000152e-01 4.484975000000000023e+01 1.325324999999999989e+02 1.441535000000000082e+03
7.599999999999999811e-02 4.861675000000000302e-01 4.567399999999999949e+01 1.351494999999999891e+02 1.442539999999999964e+03
7.699999999999999900e-02 4.867299999999999960e-01 4.643370000000000175e+01 1.377239999999999895e+02 1.443530000000000200e+03
7.799999999999999989e-02 4.872845000000000093e-01 4.712955000000000183e+01 1.402574999999999932e+02 1.444500000000000000e+03
7.900000000000000078e-02 4.878299999999999859e-01 4.776104999999999734e+01 1.427459999999999809e+02 1.445460000000000036e+03
8.000000000000000167e-02 4.883644999999999792e-01 4.832675000000000409e+01 1.451860000000000070e+02 1.446400000000000091e+03
8.100000000000000255e-02 4.888874999999999749e-01 4.882404999999999973e+01 1.475679999999999836e+02 1.447315000000000055e+03
8.200000000000000344e-02 4.893945000000000101e-01 4.924970000000000425e+01 1.498810000000000002e+02 1.448214999999999918e+03
8.300000000000000433e-02 4.898835000000000273e-01 4.959989999999999810e+01 1.521134999999999877e+02 1.449085000000000036e+03
8.400000000000000522e-02 4.903520000000000101e-01 4.987054999999999438e+01 1.542510000000000048e+02 1.449924999999999955e+03
8.500000000000000611e-02 4.907960000000000100e-01 5.005790000000000362e+01 1.562810000000000059e+02 1.450719999999999800e+03
8.600000000000000699e-02 4.912135000000000251e-01 5.015845000000000198e+01 1.581885000000000048e+02 1.451480000000000018e+03
8.700000000000000788e-02 4.916015000000000246e-01 5.016955000000000098e+01 1.599615000000000009e+02 1.452194999999999936e+03
8.800000000000000877e-02 4.919580000000000064e-01 5.008944999999999936e+01 1.615894999999999868e+02 1.452855000000000018e+03
8.899999999999999578e-02 4.922809999999999686e-01 4.991734999999999900e+01 1.630639999999999930e+02 1.453460000000000036e+03
8.999999999999999667e-02 4.925709999999999811e-01 4.965380000000000393e+01 1.643790000000000191e+02 1.454014999999999873e+03
9.099999999999999756e-02 4.928255000000000274e-01 4.930060000000000286e+01 1.655300000000000011e+02 1.454505000000000109e+03
9.199999999999999845e-02 4.930455000000000254e-01 4.886064999999999969e+01 1.665174999999999841e+02 1.454940000000000055e+03
9.299999999999999933e-02 4.932320000000000038e-01 4.833820000000000050e+01 1.673425000000000011e+02 1.455315000000000055e+03
9.400000000000000022e-02 4.933855000000000324e-01 4.773829999999999529e+01 1.680104999999999791e+02 1.455625000000000000e+03
9.500000000000000111e-02 4.935074999999999878e-01 4.706745000000000090e+01 1.685275000000000034e+02 1.455884999999999991e+03
9.600000000000000200e-02 4.935999999999999832e-01 4.633254999999999768e+01 1.689029999999999916e+02 1.456079999999999927e+03
9.700000000000000289e-02 4.936654999999999793e-01 4.554155000000000086e+01 1.691469999999999914e+02 1.456234999999999900e+03
9.800000000000000377e-02 4.937065000000000481e-01 4.470279999999999632e+01 1.692730000000000246e+02 1.456345000000000027e+03
9.900000000000000466e-02 4.937255000000000393e-01 4.382519999999999527e+01 1.692934999999999945e+02 1.456400000000000091e+03
1.000000000000000056e-01 4.937259999999999982e-01 4.291760000000000019e+01 1.692220000000000084e+02 1.456424999999999955e+03
1.010000000000000064e-01 4.937099999999999822e-01 4.198904999999999887e+01 1.690734999999999957e+02 1.456414999999999964e+03
1.020000000000000073e-01 4.936814999999999953e-01 4.104834999999999923e+01 1.688609999999999900e+02 1.456375000000000000e+03
1.030000000000000082e-01 4.936429999999999985e-01 4.010394999999999754e+01 1.685995000000000061e+02 1.456309999999999945e+03
1.040000000000000091e-01 4.935960000000000347e-01 3.916360000000000241e+01 1.683009999999999877e+02 1.456230000000000018e+03
1.050000000000000100e-01 4.935439999999999827e-01 3.823420000000000130e+01 1.679780000000000086e+02 1.456134999999999991e+03
1.059999999999999970e-01 4.934890000000000110e-01 3.732175000000000153e+01 1.676399999999999864e+02 1.456029999999999973e+03
1.069999999999999979e-01 4.934319999999999817e-01 3.643090000000000117e+01 1.672969999999999970e+02 1.455920000000000073e+03
1.079999999999999988e-01 4.933750000000000080e-01 3.556530000000000058e+01 1.669549999999999841e+02 1.455800000000000182e+03
1.089999999999999997e-01 4.933174999999999644e-01 3.472695000000000221e+01 1.666175000000000068e+02 1.455680000000000064e+03
1.100000000000000006e-01 4.932610000000000050e-01 3.391675000000000040e+01 1.662880000000000109e+02 1.455559999999999945e+03
1.110000000000000014e-01 4.932050000000000045e-01 3.313414999999999822e+01 1.659669999999999845e+02 1.455440000000000055e+03
1.120000000000000023e-01 4.931484999999999896e-01 3.237744999999999607e+01 1.656525000000000034e+02 1.455324999999999818e+03
1.130000000000000032e-01 4.930915000000000159e-01 3.164385000000000048e+01 1.653410000000000082e+02 1.455204999999999927e+03
1.140000000000000041e-01 4.930324999999999847e-01 3.092974999999999852e+01 1.650280000000000200e+02 1.455085000000000036e+03
1.150000000000000050e-01 4.929695000000000049e-01 3.023079999999999856e+01 1.647069999999999936e+02 1.454960000000000036e+03
1.160000000000000059e-01 4.929020000000000068e-01 2.954240000000000066e+01 1.643704999999999927e+02 1.454835000000000036e+03
1.170000000000000068e-01 4.928279999999999883e-01 2.885954999999999870e+01 1.640134999999999934e+02 1.454700000000000045e+03
1.180000000000000077e-01 4.927464999999999762e-01 2.817734999999999701e+01 1.636264999999999930e+02 1.454549999999999955e+03
1.190000000000000085e-01 4.926555000000000240e-01 2.749125000000000085e+01 1.632034999999999911e+02 1.454400000000000091e+03
1.200000000000000094e-01 4.925549999999999651e-01 2.679695000000000249e+01 1.627390000000000043e+02 1.454230000000000018e+03
1.209999999999999964e-01 4.924429999999999641e-01 2.609080000000000155e+01 1.622270000000000039e+02 1.454045000000000073e+03
1.219999999999999973e-01 4.923190000000000066e-01 2.537004999999999910e+01 1.616639999999999873e+02 1.453840000000000146e+03
1.229999999999999982e-01 4.921830000000000371e-01 2.463264999999999816e+01 1.610469999999999970e+02 1.453619999999999891e+03
1.239999999999999991e-01 4.920345000000000413e-01 2.387745000000000317e+01 1.603754999999999882e+02 1.453380000000000109e+03
1.250000000000000000e-01 4.918755000000000210e-01 2.310439999999999827e+01 1.596505000000000223e+02 1.453125000000000000e+03
1.260000000000000009e-01 4.917044999999999888e-01 2.231450000000000244e+01 1.588745000000000118e+02 1.452849999999999909e+03
1.270000000000000018e-01 4.915244999999999753e-01 2.150935000000000130e+01 1.580504999999999995e+02 1.452555000000000064e+03
1.280000000000000027e-01 4.913354999999999806e-01 2.069194999999999851e+01 1.571850000000000023e+02 1.452250000000000000e+03
1.290000000000000036e-01 4.911400000000000210e-01 1.986585000000000178e+01 1.562839999999999918e+02 1.451930000000000064e+03
1.300000000000000044e-01 4.909390000000000143e-01 1.903525000000000134e+01 1.553559999999999945e+02 1.451594999999999800e+03
1.310000000000000053e-01 4.907350000000000323e-01 1.820524999999999949e+01 1.544094999999999800e+02 1.451255000000000109e+03
1.320000000000000062e-01 4.905294999999999517e-01 1.738109999999999999e+01 1.534540000000000077e+02 1.450904999999999973e+03
1.330000000000000071e-01 4.903254999999999697e-01 1.656844999999999857e+01 1.524989999999999952e+02 1.450559999999999945e+03
1.340000000000000080e-01 4.901244999999999630e-01 1.577305000000000135e+01 1.515554999999999950e+02 1.450215000000000146e+03
1.350000000000000089e-01 4.899290000000000034e-01 1.500050500000000042e+01 1.506310000000000002e+02 1.449869999999999891e+03
1.360000000000000098e-01 4.897405000000000230e-01 1.425627000000000066e+01 1.497370000000000232e+02 1.449539999999999964e+03
1.370000000000000107e-01 4.895610000000000239e-01 1.354530499999999904e+01 1.488799999999999955e+02 1.449215000000000146e+03
1.380000000000000115e-01 4.893914999999999793e-01 1.287207000000000079e+01 1.480685000000000002e+02 1.448909999999999854e+03
1.390000000000000124e-01 4.892334999999999878e-01 1.224033999999999978e+01 1.473079999999999927e+02 1.448615000000000009e+03
1.400000000000000133e-01 4.890875000000000083e-01 1.165309500000000043e+01 1.466030000000000086e+02 1.448340000000000146e+03
1.410000000000000142e-01 4.889544999999999586e-01 1.111263500000000093e+01 1.459579999999999984e+02 1.448085000000000036e+03
1.420000000000000151e-01 4.888344999999999496e-01 1.062014500000000083e+01 1.453734999999999786e+02 1.447845000000000027e+03
1.430000000000000160e-01 4.887270000000000225e-01 1.017606499999999947e+01 1.448505000000000109e+02 1.447639999999999873e+03
1.440000000000000169e-01 4.886325000000000252e-01 9.780015000000000569e+00 1.443874999999999886e+02 1.447445000000000164e+03
1.450000000000000178e-01 4.885495000000000254e-01 9.430674999999999031e+00 1.439819999999999993e+02 1.447269999999999982e+03
1.459999999999999909e-01 4.884779999999999678e-01 9.126145000000001062e+00 1.436310000000000002e+02 1.447119999999999891e+03
1.469999999999999918e-01 4.884160000000000168e-01 8.863799999999999457e+00 1.433299999999999841e+02 1.446985000000000127e+03
1.479999999999999927e-01 4.883625000000000327e-01 8.640534999999999854e+00 1.430724999999999909e+02 1.446865000000000009e+03
1.489999999999999936e-01 4.883170000000000011e-01 8.452759999999999607e+00 1.428534999999999968e+02 1.446764999999999873e+03
1.499999999999999944e-01 4.882779999999999898e-01 8.296790000000001442e+00 1.426664999999999850e+02 1.446670000000000073e+03
1.509999999999999953e-01 4.882425000000000237e-01 8.168620000000000658e+00 1.425054999999999836e+02 1.446594999999999800e+03
1.519999999999999962e-01 4.882110000000000061e-01 8.064329999999999998e+00 1.423639999999999759e+02 1.446525000000000091e+03
1.529999999999999971e-01 4.881820000000000048e-01 7.980024999999999480e+00 1.422359999999999900e+02 1.446460000000000036e+03
1.539999999999999980e-01 4.881545000000000467e-01 7.911984999999999602e+00 1.421165000000000020e+02 1.446400000000000091e+03
1.549999999999999989e-01 4.881264999999999632e-01 7.856740000000000279e+00 1.420000000000000000e+02 1.446344999999999800e+03
1.559999999999999998e-01 4.880984999999999907e-01 7.811139999999999972e+00 1.418829999999999814e+02 1.446289999999999964e+03
1.570000000000000007e-01 4.880689999999999751e-01 7.772375000000000256e+00 1.417620000000000005e+02 1.446240000000000009e+03
1.580000000000000016e-01 4.880385000000000417e-01 7.737994999999999735e+00 1.416345000000000027e+02 1.446184999999999945e+03
1.590000000000000024e-01 4.880055000000000365e-01 7.705994999999999706e+00 1.414975000000000023e+02 1.446130000000000109e+03
