# t [s], A [cm^2], U [cm/s], P [cPa], c [cm/s]
1.000000000000000021e-03 7.340465000000000462e-01 4.785399999999995213e-03 9.013684999999999548e+01 1.704194999999999936e+03
2.000000000000000042e-03 7.340364999999999807e-01 7.010200000000001153e-04 9.010814999999999486e+01 1.704184999999999945e+03
3.000000000000000062e-03 7.341055000000000774e-01 1.160152999999999879e-01 9.023740000000000805e+01 1.704215000000000146e+03
4.000000000000000083e-03 7.341509999999999980e-01 2.067914999999999892e-01 9.035150000000000148e+01 1.704240000000000009e+03
5.000000000000000104e-03 7.341039999999999788e-01 1.558009999999999950e-01 9.024254999999999427e+01 1.704220000000000027e+03
6.000000000000000125e-03 7.340275000000000549e-01 4.985699999999998466e-02 8.997755000000000791e+01 1.704164999999999964e+03
7.000000000000000146e-03 7.339544999999999542e-01 -6.015449999999999964e-02 8.964000000000000057e+01 1.704085000000000036e+03
8.000000000000000167e-03 7.338270000000000071e-01 -2.746600000000000152e-01 8.911154999999999404e+01 1.703970000000000027e+03
9.000000000000001055e-03 7.336225000000000662e-01 -6.327500000000000346e-01 8.830535000000000423e+01 1.703789999999999964e+03
1.000000000000000194e-02 7.333320000000000949e-01 -1.144200000000000106e+00 8.716474999999999795e+01 1.703534999999999854e+03
1.099999999999999936e-02 7.329300000000000814e-01 -1.836685000000000123e+00 8.560659999999998604e+01 1.703180000000000064e+03
1.200000000000000025e-02 7.324269999999999392e-01 -2.676194999999999879e+00 8.362340000000000373e+01 1.702724999999999909e+03
1.300000000000000114e-02 7.318899999999999295e-01 -3.521129999999999871e+00 8.137385000000000446e+01 1.702195000000000164e+03
1.400000000000000203e-02 7.314095000000000457e-01 -4.186880999999999631e+00 7.912739999999999441e+01 1.701644999999999982e+03
1.499999999999999944e-02 7.310419999999999696e-01 -4.543414000000000286e+00 7.712669999999999959e+01 1.701125000000000000e+03
1.600000000000000033e-02 7.307889999999999109e-01 -4.563324999999999854e+00 7.548839999999999861e+01 1.700670000000000073e+03
1.700000000000000122e-02 7.306070000000000064e-01 -4.309980000000000366e+00 7.418314999999999770e+01 1.700279999999999973e+03
1.800000000000000211e-02 7.304374999999999618e-01 -3.893309999999999604e+00 7.307874999999999943e+01 1.699924999999999955e+03
1.900000000000000300e-02 7.302299999999999347e-01 -3.420230000000000103e+00 7.200945000000000107e+01 1.699590000000000146e+03
2.000000000000000042e-02 7.299590000000000245e-01 -2.957183999999999813e+00 7.084425000000000239e+01 1.699235000000000127e+03
2.100000000000000130e-02 7.296294999999999309e-01 -2.515746500000000108e+00 6.952879999999998972e+01 1.698855000000000018e+03
2.200000000000000219e-02 7.292689999999999451e-01 -2.064329999999999998e+00 6.808844999999999459e+01 1.698444999999999936e+03
2.299999999999999961e-02 7.289090000000000291e-01 -1.557849999999999957e+00 6.659565000000000623e+01 1.698025000000000091e+03
2.400000000000000050e-02 7.285675000000000345e-01 -9.696299999999997699e-01 6.512224999999999397e+01 1.697599999999999909e+03
2.500000000000000139e-02 7.282465000000000188e-01 -3.118950000000000333e-01 6.369825000000000159e+01 1.697184999999999945e+03
2.600000000000000228e-02 7.279230000000000977e-01 3.606200000000001626e-01 6.229134999999999422e+01 1.696769999999999982e+03
2.700000000000000316e-02 7.275614999999999721e-01 9.620550000000001045e-01 6.081114999999999782e+01 1.696345000000000027e+03
2.800000000000000058e-02 7.271239999999999926e-01 1.396625000000000005e+00 5.913254999999999484e+01 1.695880000000000109e+03
2.900000000000000147e-02 7.265794999999999337e-01 1.583345000000000002e+00 5.713210000000000122e+01 1.695340000000000146e+03
3.000000000000000236e-02 7.259169999999999234e-01 1.477484999999999715e+00 5.472619999999999862e+01 1.694715000000000146e+03
3.099999999999999978e-02 7.251460000000000683e-01 1.082635000000000236e+00 5.190019999999999811e+01 1.694000000000000000e+03
3.200000000000000067e-02 7.242990000000000261e-01 4.494449999999998724e-01 4.871894999999999953e+01 1.693195000000000164e+03
3.300000000000000155e-02 7.234225000000000794e-01 -3.375950000000003115e-01 4.531660000000000110e+01 1.692340000000000146e+03
3.400000000000000244e-02 7.225660000000000416e-01 -1.179819999999999425e+00 4.187044999999999817e+01 1.691460000000000036e+03
3.500000000000000333e-02 7.217770000000000019e-01 -1.983285000000000409e+00 3.856974999999999909e+01 1.690599999999999909e+03
3.600000000000000422e-02 7.210900000000000087e-01 -2.672380000000000422e+00 3.558664999999999878e+01 1.689804999999999836e+03
3.700000000000000511e-02 7.205285000000000162e-01 -3.195864999999999956e+00 3.305680000000000263e+01 1.689105000000000018e+03
3.799999999999999906e-02 7.201035000000000075e-01 -3.526430000000000398e+00 3.107029999999999959e+01 1.688530000000000200e+03
3.899999999999999994e-02 7.198165000000000813e-01 -3.655602000000000018e+00 2.967225000000000179e+01 1.688090000000000146e+03
4.000000000000000083e-02 7.196635000000000115e-01 -3.586495000000000211e+00 2.887064999999999770e+01 1.687804999999999836e+03
4.100000000000000172e-02 7.196365000000000123e-01 -3.326609999999999623e+00 2.864780000000000015e+01 1.687659999999999854e+03
4.200000000000000261e-02 7.197289999999999521e-01 -2.882640000000000313e+00 2.897245000000000203e+01 1.687664999999999964e+03
4.300000000000000350e-02 7.199339999999999629e-01 -2.258190499999999989e+00 2.980874999999999631e+01 1.687795000000000073e+03
4.400000000000000439e-02 7.202465000000000117e-01 -1.454604999999999926e+00 3.112099999999999866e+01 1.688059999999999945e+03
4.499999999999999833e-02 7.206595000000000084e-01 -4.739100000000000534e-01 3.287395000000000067e+01 1.688450000000000045e+03
4.599999999999999922e-02 7.211665000000000436e-01 6.775299999999999656e-01 3.503005000000000280e+01 1.688940000000000055e+03
4.700000000000000011e-02 7.217569999999999819e-01 1.985990000000000144e+00 3.754574999999999818e+01 1.689534999999999854e+03
4.800000000000000100e-02 7.224165000000000170e-01 3.429024999999999324e+00 4.036885000000000190e+01 1.690219999999999800e+03
4.900000000000000189e-02 7.231290000000000218e-01 4.976060000000000372e+00 4.343724999999999881e+01 1.690974999999999909e+03
5.000000000000000278e-02 7.238769999999999927e-01 6.590505000000000280e+00 4.668110000000000070e+01 1.691785000000000082e+03
5.100000000000000366e-02 7.246414999999999385e-01 8.232854500000000186e+00 5.002630000000000621e+01 1.692634999999999991e+03
5.200000000000000455e-02 7.254055000000000364e-01 9.864415000000001044e+00 5.339959999999999951e+01 1.693500000000000000e+03
5.300000000000000544e-02 7.261539999999999662e-01 1.145050999999999952e+01 5.673390000000000555e+01 1.694369999999999891e+03
5.399999999999999939e-02 7.268750000000000488e-01 1.296273500000000034e+01 5.997289999999999566e+01 1.695224999999999909e+03
5.500000000000000028e-02 7.275614999999999721e-01 1.438035500000000155e+01 6.307450000000000045e+01 1.696065000000000055e+03
5.600000000000000117e-02 7.282100000000000239e-01 1.569085000000000107e+01 6.601255000000000450e+01 1.696865000000000009e+03
5.700000000000000205e-02 7.288215000000000110e-01 1.688915000000000077e+01 6.877639999999999532e+01 1.697630000000000109e+03
5.800000000000000294e-02 7.293965000000000032e-01 1.797659999999999769e+01 7.137004999999999200e+01 1.698355000000000018e+03
5.900000000000000383e-02 7.299424999999999386e-01 1.895969999999999800e+01 7.380915000000000248e+01 1.699045000000000073e+03
6.000000000000000472e-02 7.304644999999999611e-01 1.984839999999999804e+01 7.611820000000000164e+01 1.699700000000000045e+03
6.099999999999999867e-02 7.309704999999999675e-01 2.065500000000000114e+01 7.832720000000000482e+01 1.700335000000000036e+03
6.199999999999999956e-02 7.314665000000000195e-01 2.139254999999999995e+01 8.046815000000000850e+01 1.700940000000000055e+03
6.300000000000000044e-02 7.319605000000000139e-01 2.207375000000000043e+01 8.257204999999999018e+01 1.701534999999999854e+03
6.400000000000000133e-02 7.324565000000000659e-01 2.270974999999999966e+01 8.466614999999998759e+01 1.702130000000000109e+03
6.500000000000000222e-02 7.329594999999999860e-01 2.330959999999999965e+01 8.677125000000000909e+01 1.702724999999999909e+03
6.600000000000000311e-02 7.334699999999999553e-01 2.387915000000000276e+01 8.890049999999999386e+01 1.703320000000000164e+03
6.700000000000000400e-02 7.339890000000000025e-01 2.442095000000000127e+01 9.105769999999999698e+01 1.703924999999999955e+03
6.800000000000000488e-02 7.345125000000000126e-01 2.493410000000000082e+01 9.323740000000000805e+01 1.704525000000000091e+03
6.900000000000000577e-02 7.350379999999999692e-01 2.541449999999999676e+01 9.542560000000000286e+01 1.705134999999999991e+03
7.000000000000000666e-02 7.355574999999999752e-01 2.585549999999999926e+01 9.760095000000001164e+01 1.705740000000000009e+03
7.100000000000000755e-02 7.360655000000000392e-01 2.624864999999999782e+01 9.973629999999999995e+01 1.706340000000000146e+03
7.200000000000000844e-02 7.365545000000000009e-01 2.658455000000000013e+01 1.018014000000000010e+02 1.706914999999999964e+03
7.300000000000000933e-02 7.370179999999999509e-01 2.685369999999999990e+01 1.037659999999999911e+02 1.707474999999999909e+03
7.399999999999999634e-02 7.374479999999999924e-01 2.704729999999999990e+01 1.055979999999999990e+02 1.708000000000000000e+03
7.499999999999999722e-02 7.378394999999999815e-01 2.715780000000000172e+01 1.072729999999999961e+02 1.708480000000000018e+03
7.599999999999999811e-02 7.381874999999999964e-01 2.717944999999999922e+01 1.087659999999999911e+02 1.708924999999999955e+03
7.699999999999999900e-02 7.384889999999999510e-01 2.710849999999999937e+01 1.100600000000000023e+02 1.709309999999999945e+03
7.799999999999999989e-02 7.387414999999999399e-01 2.694359999999999999e+01 1.111444999999999936e+02 1.709650000000000091e+03
7.900000000000000078e-02 7.389449999999999630e-01 2.668569999999999709e+01 1.120139999999999958e+02 1.709924999999999955e+03
8.000000000000000167e-02 7.390995000000000203e-01 2.633809999999999718e+01 1.126694999999999993e+02 1.710150000000000091e+03
8.100000000000000255e-02 7.392075000000000173e-01 2.590655000000000285e+01 1.131185000000000116e+02 1.710319999999999936e+03
8.200000000000000344e-02 7.392714999999999703e-01 2.539880000000000138e+01 1.133735000000000070e+02 1.710434999999999945e+03
8.300000000000000433e-02 7.392969999999999819e-01 2.482460000000000022e+01 1.134519999999999982e+02 1.710494999999999891e+03
8.400000000000000522e-02 7.392885000000000151e-01 2.419530000000000314e+01 1.133750000000000000e+02 1.710514999999999873e+03
8.500000000000000611e-02 7.392509999999999915e-01 2.352335000000000065e+01 1.131674999999999898e+02 1.710494999999999891e+03
8.600000000000000699e-02 7.391920000000000712e-01 2.282195000000000107e+01 1.128559999999999945e+02 1.710445000000000164e+03
8.700000000000000788e-02 7.391164999999999541e-01 2.210459999999999781e+01 1.124664999999999964e+02 1.710369999999999891e+03
8.800000000000000877e-02 7.390304999999999236e-01 2.138405000000000200e+01 1.120264999999999986e+02 1.710275000000000091e+03
8.899999999999999578e-02 7.389405000000000001e-01 2.067229999999999990e+01 1.115610000000000070e+02 1.710164999999999964e+03
8.999999999999999667e-02 7.388494999999999369e-01 1.997974999999999923e+01 1.110914999999999964e+02 1.710049999999999955e+03
9.099999999999999756e-02 7.387624999999999886e-01 1.931494999999999962e+01 1.106380000000000052e+02 1.709930000000000064e+03
9.199999999999999845e-02 7.386825000000000196e-01 1.868384999999999962e+01 1.102135000000000105e+02 1.709820000000000164e+03
9.299999999999999933e-02 7.386105000000000587e-01 1.809019999999999939e+01 1.098290000000000077e+02 1.709715000000000146e+03
9.400000000000000022e-02 7.385470000000000645e-01 1.753515000000000157e+01 1.094874999999999972e+02 1.709625000000000000e+03
9.500000000000000111e-02 7.384919999999999263e-01 1.701740000000000208e+01 1.091895000000000095e+02 1.709534999999999854e+03
9.600000000000000200e-02 7.384429999999999605e-01 1.653355000000000175e+01 1.089295000000000044e+02 1.709460000000000036e+03
9.700000000000000289e-02 7.383990000000000276e-01 1.607840000000000202e+01 1.086995000000000005e+02 1.709384999999999991e+03
9.800000000000000377e-02 7.383560000000000123e-01 1.564519999999999911e+01 1.084879999999999995e+02 1.709320000000000164e+03
9.900000000000000466e-02 7.383110000000000506e-01 1.522649999999999970e+01 1.082804999999999893e+02 1.709255000000000109e+03
1.000000000000000056e-01 7.382615000000000149e-01 1.481424999999999947e+01 1.080630000000000024e+02 1.709190000000000055e+03
1.010000000000000064e-01 7.382029999999999426e-01 1.440034999999999954e+01 1.078199999999999932e+02 1.709119999999999891e+03
1.020000000000000073e-01 7.381330000000000391e-01 1.397729999999999961e+01 1.075380000000000109e+02 1.709039999999999964e+03
1.030000000000000082e-01 7.380495000000000250e-01 1.353849999999999909e+01 1.072055000000000007e+02 1.708949999999999818e+03
1.040000000000000091e-01 7.379504999999999537e-01 1.307849500000000020e+01 1.068114999999999952e+02 1.708845000000000027e+03
1.050000000000000100e-01 7.378350000000000186e-01 1.259349500000000077e+01 1.063509999999999991e+02 1.708730000000000018e+03
1.059999999999999970e-01 7.377024999999999277e-01 1.208156999999999925e+01 1.058199999999999932e+02 1.708590000000000146e+03
1.069999999999999979e-01 7.375540000000000429e-01 1.154269000000000034e+01 1.052204999999999870e+02 1.708440000000000055e+03
1.079999999999999988e-01 7.373910000000000187e-01 1.097884499999999974e+01 1.045570000000000022e+02 1.708264999999999873e+03
1.089999999999999997e-01 7.372164999999999413e-01 1.039390500000000017e+01 1.038379500000000064e+02 1.708079999999999927e+03
1.100000000000000006e-01 7.370335000000000081e-01 9.793599999999999639e+00 1.030768000000000058e+02 1.707880000000000109e+03
1.110000000000000014e-01 7.368455000000000421e-01 9.184979999999999478e+00 1.022876500000000135e+02 1.707674999999999955e+03
1.120000000000000023e-01 7.366574999999999651e-01 8.576295000000000002e+00 1.014886999999999944e+02 1.707464999999999918e+03
1.130000000000000032e-01 7.364729999999999333e-01 7.976570000000000604e+00 1.006981999999999999e+02 1.707255000000000109e+03
1.140000000000000041e-01 7.362969999999999793e-01 7.394985000000000142e+00 9.993549999999999045e+01 1.707050000000000182e+03
1.150000000000000050e-01 7.361344999999999139e-01 6.840595000000000425e+00 9.921914999999999907e+01 1.706849999999999909e+03
1.160000000000000059e-01 7.359880000000000866e-01 6.321835000000000093e+00 9.856664999999999566e+01 1.706670000000000073e+03
1.170000000000000068e-01 7.358610000000000984e-01 5.846054999999999779e+00 9.799309999999999832e+01 1.706509999999999991e+03
1.180000000000000077e-01 7.357569999999999943e-01 5.419234999999999580e+00 9.751005000000000678e+01 1.706365000000000009e+03
1.190000000000000085e-01 7.356759999999999966e-01 5.045720000000000205e+00 9.712619999999999720e+01 1.706250000000000000e+03
1.200000000000000094e-01 7.356199999999999406e-01 4.728040000000000020e+00 9.684665000000001100e+01 1.706155000000000200e+03
1.209999999999999964e-01 7.355880000000000196e-01 4.466874999999999929e+00 9.667199999999999704e+01 1.706090000000000146e+03
1.219999999999999973e-01 7.355789999999999829e-01 4.261074999999999946e+00 9.659925000000001205e+01 1.706054999999999836e+03
1.229999999999999982e-01 7.355910000000001059e-01 4.107834999999999681e+00 9.662170000000000414e+01 1.706039999999999964e+03
1.239999999999999991e-01 7.356219999999999981e-01 4.002885000000000026e+00 9.672999999999998977e+01 1.706049999999999955e+03
1.250000000000000000e-01 7.356685000000000585e-01 3.940784999999999982e+00 9.691204999999999359e+01 1.706079999999999927e+03
1.260000000000000009e-01 7.357270000000000199e-01 3.915219999999999700e+00 9.715420000000000300e+01 1.706130000000000109e+03
1.270000000000000018e-01 7.357955000000000467e-01 3.919344999999999857e+00 9.744185000000000230e+01 1.706190000000000055e+03
1.280000000000000027e-01 7.358694999999999542e-01 3.946074999999999999e+00 9.776019999999999754e+01 1.706264999999999873e+03
1.290000000000000036e-01 7.359455000000000302e-01 3.988385000000000069e+00 9.809469999999998890e+01 1.706345000000000027e+03
1.300000000000000044e-01 7.360210000000000363e-01 4.039579999999999949e+00 9.843195000000000050e+01 1.706425000000000182e+03
1.310000000000000053e-01 7.360934999999999562e-01 4.093469999999999942e+00 9.875974999999999682e+01 1.706505000000000109e+03
1.320000000000000062e-01 7.361604999999999954e-01 4.144574999999999676e+00 9.906800000000001205e+01 1.706585000000000036e+03
1.330000000000000071e-01 7.362214999999999732e-01 4.188219999999999388e+00 9.934815000000000396e+01 1.706659999999999854e+03
1.340000000000000080e-01 7.362735000000000252e-01 4.220620000000000260e+00 9.959385000000000332e+01 1.706730000000000018e+03
1.350000000000000089e-01 7.363165000000000404e-01 4.238915000000000433e+00 9.980160000000000764e+01 1.706785000000000082e+03
1.360000000000000098e-01 7.363509999999999778e-01 4.241179999999999950e+00 9.996770000000000778e+01 1.706835000000000036e+03
1.370000000000000107e-01 7.363760000000000305e-01 4.226409999999999556e+00 1.000935000000000059e+02 1.706875000000000000e+03
1.380000000000000115e-01 7.363925000000000054e-01 4.194435000000000358e+00 1.001790000000000020e+02 1.706900000000000091e+03
1.390000000000000124e-01 7.364005000000000134e-01 4.145880000000000010e+00 1.002272499999999980e+02 1.706920000000000073e+03
1.400000000000000133e-01 7.364020000000000010e-01 4.082040000000000113e+00 1.002424499999999910e+02 1.706929999999999836e+03
1.410000000000000142e-01 7.363975000000000382e-01 4.004775000000000418e+00 1.002287499999999909e+02 1.706930000000000064e+03
1.420000000000000151e-01 7.363885000000000014e-01 3.916375000000000384e+00 1.001914500000000032e+02 1.706934999999999945e+03
1.430000000000000160e-01 7.363759999999999195e-01 3.819399999999999906e+00 1.001366999999999905e+02 1.706925000000000182e+03
1.440000000000000169e-01 7.363615000000000022e-01 3.716560000000000308e+00 1.000694499999999891e+02 1.706910000000000082e+03
1.450000000000000178e-01 7.363454999999999862e-01 3.610545000000000115e+00 9.999475000000001046e+01 1.706894999999999982e+03
1.459999999999999909e-01 7.363304999999999989e-01 3.503884999999999916e+00 9.991755000000000564e+01 1.706880000000000109e+03
1.469999999999999918e-01 7.363155000000000117e-01 3.398849999999999927e+00 9.984194999999999709e+01 1.706860000000000127e+03
1.479999999999999927e-01 7.363025000000000819e-01 3.297320000000000029e+00 9.977089999999999748e+01 1.706840000000000146e+03
1.489999999999999936e-01 7.362904999999999589e-01 3.200744999999999951e+00 9.970589999999999975e+01 1.706824999999999818e+03
1.499999999999999944e-01 7.362805000000000044e-01 3.110095000000000276e+00 9.964820000000000277e+01 1.706815000000000055e+03
1.509999999999999953e-01 7.362724999999999964e-01 3.025830000000000020e+00 9.959749999999999659e+01 1.706799999999999955e+03
1.519999999999999962e-01 7.362649999999999473e-01 2.947975000000000012e+00 9.955250000000000909e+01 1.706784999999999854e+03
1.529999999999999971e-01 7.362584999999999269e-01 2.876149999999999984e+00 9.951125000000000398e+01 1.706775000000000091e+03
1.539999999999999980e-01 7.362520000000000175e-01 2.809664999999999857e+00 9.947114999999999441e+01 1.706764999999999873e+03
1.549999999999999989e-01 7.362444999999999684e-01 2.747589999999999755e+00 9.942950000000000443e+01 1.706750000000000000e+03
1.559999999999999998e-01 7.362355000000000427e-01 2.688905000000000101e+00 9.938300000000000978e+01 1.706740000000000009e+03
1.570000000000000007e-01 7.362239999999999895e-01 2.632539999999999658e+00 9.932864999999999611e+01 1.706719999999999800e+03
1.580000000000000016e-01 7.362100000000000311e-01 2.577535000000000132e+00 9.926390000000000668e+01 1.706704999999999927e+03
1.590000000000000024e-01 7.361919999999999575e-01 2.523055000000000270e+00 9.918659999999999854e+01 1.706684999999999945e+03
