# t [s], A [cm^2], U [cm/s], P [cPa], c [cm/s]
1.000000000000000021e-03 1.949730000000000074e-01 2.850352500000000178e-01 8.607330000000000325e+01 2.145425000000000182e+03
2.000000000000000042e-03 1.949269999999999892e-01 1.615718500000000057e+00 8.303600000000000136e+01 2.145034999999999854e+03
3.000000000000000062e-03 1.948034999999999906e-01 3.257784499999999639e+00 7.883680000000001087e+01 2.144030000000000200e+03
4.000000000000000083e-03 1.946364999999999901e-01 5.112740500000000132e+00 7.433464999999999634e+01 2.142694999999999709e+03
5.000000000000000104e-03 1.944600000000000217e-01 7.114824999999999733e+00 7.038854999999999507e+01 2.141289999999999964e+03
6.000000000000000125e-03 1.942920000000000202e-01 9.081644999999999968e+00 6.721460000000000434e+01 2.139970000000000255e+03
7.000000000000000146e-03 1.941344999999999876e-01 1.080379999999999896e+01 6.449389999999999645e+01 2.138765000000000327e+03
8.000000000000000167e-03 1.939910000000000245e-01 1.222724499999999992e+01 6.202519999999999811e+01 2.137675000000000182e+03
9.000000000000001055e-03 1.938659999999999828e-01 1.340162500000000101e+01 5.990715000000000146e+01 2.136744999999999891e+03
1.000000000000000194e-02 1.937615000000000032e-01 1.435660000000000025e+01 5.820824999999999250e+01 2.135969999999999800e+03
1.099999999999999936e-02 1.936775000000000024e-01 1.510340000000000060e+01 5.688880000000000337e+01 2.135359999999999673e+03
1.200000000000000025e-02 1.936104999999999909e-01 1.564855000000000018e+01 5.586655000000000371e+01 2.134880000000000109e+03
1.300000000000000114e-02 1.935564999999999924e-01 1.598874999999999957e+01 5.501154999999999973e+01 2.134505000000000109e+03
1.400000000000000203e-02 1.935109999999999886e-01 1.614655000000000129e+01 5.422029999999999461e+01 2.134190000000000055e+03
1.499999999999999944e-02 1.934740000000000071e-01 1.622074999999999889e+01 5.358894999999999698e+01 2.133940000000000055e+03
1.600000000000000033e-02 1.934540000000000148e-01 1.637454999999999927e+01 5.346455000000000268e+01 2.133809999999999945e+03
1.700000000000000122e-02 1.934625000000000095e-01 1.675394999999999968e+01 5.425804999999999723e+01 2.133880000000000109e+03
1.800000000000000211e-02 1.935060000000000113e-01 1.740180000000000149e+01 5.615599999999999881e+01 2.134204999999999927e+03
1.900000000000000300e-02 1.935835000000000194e-01 1.822820000000000107e+01 5.894859999999999900e+01 2.134774999999999636e+03
2.000000000000000042e-02 1.936820000000000208e-01 1.905020000000000024e+01 6.207470000000000709e+01 2.135510000000000218e+03
2.100000000000000130e-02 1.937820000000000098e-01 1.966895000000000238e+01 6.483820000000000050e+01 2.136264999999999873e+03
2.200000000000000219e-02 1.938644999999999952e-01 1.994505000000000194e+01 6.666755000000000564e+01 2.136900000000000091e+03
2.299999999999999961e-02 1.939164999999999917e-01 1.984035000000000082e+01 6.730230000000000246e+01 2.137314999999999600e+03
2.400000000000000050e-02 1.939350000000000240e-01 1.941535000000000011e+01 6.684049999999999159e+01 2.137484999999999673e+03
2.500000000000000139e-02 1.939244999999999997e-01 1.879115000000000180e+01 6.564705000000000723e+01 2.137430000000000291e+03
2.600000000000000228e-02 1.938960000000000128e-01 1.809505000000000052e+01 6.417990000000000350e+01 2.137229999999999563e+03
2.700000000000000316e-02 1.938600000000000045e-01 1.741519999999999868e+01 6.281360000000000099e+01 2.136970000000000255e+03
2.800000000000000058e-02 1.938254999999999839e-01 1.677890000000000015e+01 6.172729999999999961e+01 2.136704999999999927e+03
2.900000000000000147e-02 1.937939999999999940e-01 1.615800000000000125e+01 6.088680000000000092e+01 2.136470000000000255e+03
3.000000000000000236e-02 1.937645000000000062e-01 1.549510000000000076e+01 6.010954999999999870e+01 2.136244999999999891e+03
3.099999999999999978e-02 1.937309999999999865e-01 1.473714999999999975e+01 5.917459999999999809e+01 2.136005000000000109e+03
3.200000000000000067e-02 1.936895000000000144e-01 1.386485000000000056e+01 5.793484999999999729e+01 2.135699999999999818e+03
3.300000000000000155e-02 1.936384999999999912e-01 1.290934999999999988e+01 5.639370000000000260e+01 2.135319999999999709e+03
3.400000000000000244e-02 1.935810000000000031e-01 1.194905499999999954e+01 5.472225000000000250e+01 2.134900000000000091e+03
3.500000000000000333e-02 1.935240000000000016e-01 1.109059999999999846e+01 5.321529999999999916e+01 2.134475000000000364e+03
3.600000000000000422e-02 1.934774999999999967e-01 1.043922500000000042e+01 5.220185000000000031e+01 2.134119999999999891e+03
3.700000000000000511e-02 1.934509999999999841e-01 1.006892999999999994e+01 5.194360000000000355e+01 2.133904999999999745e+03
3.799999999999999906e-02 1.934494999999999965e-01 1.000230999999999959e+01 5.255460000000000065e+01 2.133880000000000109e+03
3.899999999999999994e-02 1.934760000000000091e-01 1.020474499999999907e+01 5.396540000000000248e+01 2.134055000000000291e+03
4.000000000000000083e-02 1.935255000000000170e-01 1.059278499999999923e+01 5.593795000000000073e+01 2.134404999999999745e+03
4.100000000000000172e-02 1.935899999999999843e-01 1.105304999999999893e+01 5.812049999999999983e+01 2.134875000000000000e+03
4.200000000000000261e-02 1.936579999999999968e-01 1.146460000000000079e+01 6.012340000000000373e+01 2.135375000000000000e+03
4.300000000000000350e-02 1.937180000000000013e-01 1.171969999999999956e+01 6.159345000000000425e+01 2.135829999999999927e+03
4.400000000000000439e-02 1.937595000000000012e-01 1.173874999999999957e+01 6.227094999999999914e+01 2.136144999999999982e+03
4.499999999999999833e-02 1.937750000000000028e-01 1.147710000000000008e+01 6.201935000000000286e+01 2.136269999999999982e+03
4.599999999999999922e-02 1.937599999999999878e-01 1.092460499999999968e+01 6.082639999999999958e+01 2.136175000000000182e+03
4.700000000000000011e-02 1.937145000000000117e-01 1.009938000000000002e+01 5.878255000000000052e+01 2.135845000000000255e+03
4.800000000000000100e-02 1.936404999999999932e-01 9.038990000000000080e+00 5.604609999999999559e+01 2.135305000000000291e+03
4.900000000000000189e-02 1.935434999999999794e-01 7.791190000000000282e+00 5.280580000000000496e+01 2.134590000000000146e+03
5.000000000000000278e-02 1.934285000000000032e-01 6.406850000000000378e+00 4.924989999999999668e+01 2.133739999999999782e+03
5.100000000000000366e-02 1.933015000000000150e-01 4.935685000000000322e+00 4.554675000000000296e+01 2.132800000000000182e+03
5.200000000000000455e-02 1.931674999999999920e-01 3.424847500000000267e+00 4.183795000000000641e+01 2.131800000000000182e+03
5.300000000000000544e-02 1.930324999999999958e-01 1.919450000000000101e+00 3.824049999999999727e+01 2.130784999999999854e+03
5.399999999999999939e-02 1.928995000000000015e-01 4.639849999999998698e-01 3.485504999999999853e+01 2.129795000000000073e+03
5.500000000000000028e-02 1.927729999999999999e-01 -8.964449999999999363e-01 3.177499999999999858e+01 2.128845000000000255e+03
5.600000000000000117e-02 1.926570000000000227e-01 -2.115881999999999596e+00 2.909250000000000114e+01 2.127969999999999800e+03
5.700000000000000205e-02 1.925554999999999906e-01 -3.148451500000000181e+00 2.690104999999999791e+01 2.127204999999999927e+03
5.800000000000000294e-02 1.924720000000000042e-01 -3.950509999999999966e+00 2.529204999999999970e+01 2.126565000000000055e+03
5.900000000000000383e-02 1.924095000000000111e-01 -4.483589999999999520e+00 2.434844999999999970e+01 2.126085000000000036e+03
6.000000000000000472e-02 1.923719999999999875e-01 -4.717435000000000045e+00 2.413604999999999734e+01 2.125784999999999854e+03
6.099999999999999867e-02 1.923615000000000186e-01 -4.632775000000000531e+00 2.469550000000000267e+01 2.125684999999999945e+03
6.199999999999999956e-02 1.923790000000000222e-01 -4.223105000000000331e+00 2.603580000000000183e+01 2.125795000000000073e+03
6.300000000000000044e-02 1.924250000000000127e-01 -3.495449999999999946e+00 2.813169999999999860e+01 2.126114999999999782e+03
6.400000000000000133e-02 1.924990000000000034e-01 -2.469878000000000018e+00 3.092419999999999902e+01 2.126639999999999873e+03
6.500000000000000222e-02 1.925979999999999914e-01 -1.178050000000000264e+00 3.432489999999999952e+01 2.127359999999999673e+03
6.600000000000000311e-02 1.927194999999999880e-01 3.390499999999998515e-01 3.822254999999999825e+01 2.128244999999999891e+03
6.700000000000000400e-02 1.928595000000000170e-01 2.033834999999999837e+00 4.249115000000000464e+01 2.129279999999999745e+03
6.800000000000000488e-02 1.930144999999999778e-01 3.855147999999999797e+00 4.699909999999999854e+01 2.130425000000000182e+03
6.900000000000000577e-02 1.931785000000000030e-01 5.751260000000000261e+00 5.161750000000000682e+01 2.131649999999999636e+03
7.000000000000000666e-02 1.933485000000000065e-01 7.672754999999999548e+00 5.622834999999999894e+01 2.132914999999999964e+03
7.100000000000000755e-02 1.935195000000000110e-01 9.575084999999999624e+00 6.073090000000000543e+01 2.134194999999999709e+03
7.200000000000000844e-02 1.936875000000000124e-01 1.142069000000000045e+01 6.504710000000000036e+01 2.135460000000000036e+03
7.300000000000000933e-02 1.938515000000000099e-01 1.318046000000000006e+01 6.912434999999999263e+01 2.136699999999999818e+03
7.399999999999999634e-02 1.940069999999999850e-01 1.483470000000000155e+01 7.293665000000000020e+01 2.137885000000000218e+03
7.499999999999999722e-02 1.941549999999999943e-01 1.637274999999999991e+01 7.648345000000000482e+01 2.139010000000000218e+03
7.599999999999999811e-02 1.942944999999999811e-01 1.779279999999999973e+01 7.978604999999998881e+01 2.140070000000000164e+03
7.699999999999999900e-02 1.944265000000000021e-01 1.910020000000000095e+01 8.288275000000000148e+01 2.141079999999999927e+03
7.799999999999999989e-02 1.945520000000000027e-01 2.030574999999999974e+01 8.582280000000000086e+01 2.142045000000000073e+03
7.900000000000000078e-02 1.946720000000000117e-01 2.142379999999999995e+01 8.866009999999999991e+01 2.142965000000000146e+03
8.000000000000000167e-02 1.947889999999999899e-01 2.247030000000000172e+01 9.144700000000000273e+01 2.143864999999999782e+03
8.100000000000000255e-02 1.949035000000000073e-01 2.346054999999999779e+01 9.422889999999999588e+01 2.144744999999999891e+03
8.200000000000000344e-02 1.950185000000000113e-01 2.440830000000000055e+01 9.704089999999999350e+01 2.145619999999999891e+03
8.300000000000000433e-02 1.951340000000000019e-01 2.532404999999999973e+01 9.990504999999998859e+01 2.146510000000000218e+03
8.400000000000000522e-02 1.952504999999999935e-01 2.621460000000000079e+01 1.028288000000000011e+02 2.147400000000000091e+03
8.500000000000000611e-02 1.953690000000000149e-01 2.708245000000000147e+01 1.058064999999999998e+02 2.148310000000000400e+03
8.600000000000000699e-02 1.954885000000000095e-01 2.792640000000000100e+01 1.088199999999999932e+02 2.149229999999999563e+03
8.700000000000000788e-02 1.956089999999999773e-01 2.874105000000000132e+01 1.118400000000000034e+02 2.150154999999999745e+03
8.800000000000000877e-02 1.957295000000000007e-01 2.951800000000000068e+01 1.148305000000000007e+02 2.151079999999999927e+03
8.899999999999999578e-02 1.958485000000000087e-01 3.024629999999999797e+01 1.177489999999999952e+02 2.151989999999999782e+03
8.999999999999999667e-02 1.959639999999999993e-01 3.091315000000000168e+01 1.205515000000000043e+02 2.152880000000000109e+03
9.099999999999999756e-02 1.960749999999999993e-01 3.150489999999999924e+01 1.231930000000000121e+02 2.153734999999999673e+03
9.199999999999999845e-02 1.961800000000000210e-01 3.200789999999999935e+01 1.256299999999999955e+02 2.154545000000000073e+03
9.299999999999999933e-02 1.962769999999999793e-01 3.240914999999999679e+01 1.278255000000000052e+02 2.155300000000000182e+03
9.400000000000000022e-02 1.963655000000000261e-01 3.269729999999999848e+01 1.297459999999999809e+02 2.155980000000000018e+03
9.500000000000000111e-02 1.964429999999999787e-01 3.286315000000000452e+01 1.313670000000000186e+02 2.156585000000000036e+03
9.600000000000000200e-02 1.965100000000000180e-01 3.290044999999999931e+01 1.326714999999999804e+02 2.157110000000000127e+03
9.700000000000000289e-02 1.965649999999999897e-01 3.280620000000000402e+01 1.336530000000000200e+02 2.157539999999999964e+03
9.800000000000000377e-02 1.966080000000000050e-01 3.258109999999999928e+01 1.343129999999999882e+02 2.157880000000000109e+03
9.900000000000000466e-02 1.966390000000000082e-01 3.222944999999999993e+01 1.346650000000000205e+02 2.158130000000000109e+03
1.000000000000000056e-01 1.966579999999999995e-01 3.175925000000000153e+01 1.347289999999999850e+02 2.158289999999999964e+03
1.010000000000000064e-01 1.966664999999999941e-01 3.118175000000000097e+01 1.345344999999999800e+02 2.158364999999999782e+03
1.020000000000000073e-01 1.966650000000000065e-01 3.051069999999999993e+01 1.341175000000000068e+02 2.158364999999999782e+03
1.030000000000000082e-01 1.966549999999999965e-01 2.976229999999999976e+01 1.335169999999999959e+02 2.158295000000000073e+03
1.040000000000000091e-01 1.966379999999999795e-01 2.895394999999999897e+01 1.327754999999999939e+02 2.158175000000000182e+03
1.050000000000000100e-01 1.966149999999999842e-01 2.810360000000000014e+01 1.319350000000000023e+02 2.158005000000000109e+03
1.059999999999999970e-01 1.965879999999999850e-01 2.722899999999999920e+01 1.310375000000000227e+02 2.157805000000000291e+03
1.069999999999999979e-01 1.965580000000000105e-01 2.634724999999999895e+01 1.301195000000000164e+02 2.157579999999999927e+03
1.079999999999999988e-01 1.965270000000000072e-01 2.547354999999999947e+01 1.292150000000000034e+02 2.157340000000000146e+03
1.089999999999999997e-01 1.964960000000000040e-01 2.462109999999999843e+01 1.283500000000000227e+02 2.157105000000000018e+03
1.100000000000000006e-01 1.964650000000000007e-01 2.380064999999999742e+01 1.275455000000000041e+02 2.156869999999999891e+03
1.110000000000000014e-01 1.964359999999999995e-01 2.301995000000000147e+01 1.268139999999999930e+02 2.156645000000000437e+03
1.120000000000000023e-01 1.964090000000000003e-01 2.228385000000000105e+01 1.261610000000000014e+02 2.156434999999999945e+03
1.130000000000000032e-01 1.963850000000000040e-01 2.159394999999999953e+01 1.255840000000000032e+02 2.156244999999999891e+03
1.140000000000000041e-01 1.963624999999999954e-01 2.094910000000000139e+01 1.250749999999999886e+02 2.156070000000000164e+03
1.150000000000000050e-01 1.963425000000000031e-01 2.034525000000000006e+01 1.246189999999999998e+02 2.155909999999999854e+03
1.160000000000000059e-01 1.963234999999999841e-01 1.977620000000000289e+01 1.241970000000000027e+02 2.155764999999999873e+03
1.170000000000000068e-01 1.963055000000000216e-01 1.923380000000000223e+01 1.237854999999999990e+02 2.155625000000000000e+03
1.180000000000000077e-01 1.962879999999999903e-01 1.870860000000000056e+01 1.233589999999999947e+02 2.155484999999999673e+03
1.190000000000000085e-01 1.962700000000000000e-01 1.819044999999999845e+01 1.228915000000000077e+02 2.155345000000000255e+03
1.200000000000000094e-01 1.962499999999999800e-01 1.766935000000000144e+01 1.223594999999999970e+02 2.155184999999999945e+03
1.209999999999999964e-01 1.962280000000000135e-01 1.713579999999999970e+01 1.217390000000000043e+02 2.155015000000000327e+03
1.219999999999999973e-01 1.962019999999999875e-01 1.658145000000000024e+01 1.210130000000000052e+02 2.154815000000000055e+03
1.229999999999999982e-01 1.961729999999999863e-01 1.599974999999999881e+01 1.201680000000000064e+02 2.154595000000000255e+03
1.239999999999999991e-01 1.961390000000000078e-01 1.538635000000000019e+01 1.191970000000000027e+02 2.154335000000000036e+03
1.250000000000000000e-01 1.961009999999999975e-01 1.473935000000000173e+01 1.180999999999999943e+02 2.154045000000000073e+03
1.260000000000000009e-01 1.960580000000000100e-01 1.405949999999999989e+01 1.168834999999999980e+02 2.153719999999999800e+03
1.270000000000000018e-01 1.960109999999999908e-01 1.335009999999999941e+01 1.155610000000000070e+02 2.153360000000000127e+03
1.280000000000000027e-01 1.959604999999999819e-01 1.261705000000000076e+01 1.141514999999999986e+02 2.152974999999999909e+03
1.290000000000000036e-01 1.959064999999999834e-01 1.186842499999999845e+01 1.126795000000000044e+02 2.152565000000000055e+03
1.300000000000000044e-01 1.958504999999999829e-01 1.111396500000000032e+01 1.111740000000000066e+02 2.152135000000000218e+03
1.310000000000000053e-01 1.957929999999999948e-01 1.036470500000000072e+01 1.096645000000000039e+02 2.151699999999999818e+03
1.320000000000000062e-01 1.957355000000000067e-01 9.632295000000000940e+00 1.081839999999999975e+02 2.151260000000000218e+03
1.330000000000000071e-01 1.956785000000000052e-01 8.928544999999999732e+00 1.067609999999999957e+02 2.150819999999999709e+03
1.340000000000000080e-01 1.956239999999999923e-01 8.264495000000000147e+00 1.054260000000000019e+02 2.150404999999999745e+03
1.350000000000000089e-01 1.955724999999999825e-01 7.650209999999999511e+00 1.042015000000000100e+02 2.150005000000000109e+03
1.360000000000000098e-01 1.955244999999999900e-01 7.094249999999999723e+00 1.031080000000000041e+02 2.149639999999999873e+03
1.370000000000000107e-01 1.954819999999999891e-01 6.603210000000000690e+00 1.021602000000000032e+02 2.149310000000000400e+03
1.380000000000000115e-01 1.954444999999999932e-01 6.181589999999999918e+00 1.013666000000000054e+02 2.149019999999999982e+03
1.390000000000000124e-01 1.954120000000000024e-01 5.831669999999999909e+00 1.007301999999999964e+02 2.148764999999999873e+03
1.400000000000000133e-01 1.953850000000000031e-01 5.553535000000000110e+00 1.002477999999999980e+02 2.148555000000000291e+03
1.410000000000000142e-01 1.953644999999999965e-01 5.345169999999999533e+00 9.991235000000000355e+01 2.148390000000000327e+03
1.420000000000000151e-01 1.953489999999999949e-01 5.202679999999999971e+00 9.971240000000000236e+01 2.148265000000000327e+03
1.430000000000000160e-01 1.953384999999999982e-01 5.120554999999999524e+00 9.963210000000000832e+01 2.148179999999999836e+03
1.440000000000000169e-01 1.953324999999999922e-01 5.091994999999999827e+00 9.965405000000001223e+01 2.148130000000000109e+03
1.450000000000000178e-01 1.953305000000000180e-01 5.109214999999999840e+00 9.975874999999999204e+01 2.148105000000000018e+03
1.459999999999999909e-01 1.953310000000000046e-01 5.163829999999999920e+00 9.992685000000000173e+01 2.148110000000000127e+03
1.469999999999999918e-01 1.953349999999999809e-01 5.247159999999999158e+00 1.001383500000000026e+02 2.148135000000000218e+03
1.479999999999999927e-01 1.953405000000000002e-01 5.350540000000000518e+00 1.003739999999999952e+02 2.148175000000000182e+03
1.489999999999999936e-01 1.953475000000000072e-01 5.465654999999999930e+00 1.006159999999999997e+02 2.148220000000000255e+03
1.499999999999999944e-01 1.953544999999999865e-01 5.584744999999999848e+00 1.008490000000000038e+02 2.148274999999999636e+03
1.509999999999999953e-01 1.953615000000000212e-01 5.700855000000000672e+00 1.010594999999999999e+02 2.148324999999999818e+03
1.519999999999999962e-01 1.953679999999999861e-01 5.807995000000000019e+00 1.012365000000000066e+02 2.148375000000000000e+03
1.529999999999999971e-01 1.953739999999999921e-01 5.901295000000000179e+00 1.013714999999999975e+02 2.148414999999999964e+03
1.539999999999999980e-01 1.953779999999999961e-01 5.977055000000000007e+00 1.014594999999999914e+02 2.148449999999999818e+03
1.549999999999999989e-01 1.953809999999999991e-01 6.032830000000000581e+00 1.014975000000000023e+02 2.148475000000000364e+03
1.559999999999999998e-01 1.953820000000000001e-01 6.067379999999999995e+00 1.014859999999999900e+02 2.148480000000000018e+03
1.570000000000000007e-01 1.953814999999999857e-01 6.080600000000000449e+00 1.014269999999999925e+02 2.148480000000000018e+03
1.580000000000000016e-01 1.953794999999999837e-01 6.073459999999999859e+00 1.013259999999999934e+02 2.148465000000000146e+03
1.590000000000000024e-01 1.953755000000000075e-01 6.047805000000000319e+00 1.011885000000000048e+02 2.148440000000000055e+03
