# t [s], A [cm^2], U [cm/s], P [cPa], c [cm/s]
1.000000000000000021e-03 5.727229999999999821e-01 4.025449999999999862e-03 1.071715000000000089e+02 1.495344999999999800e+03
2.000000000000000042e-03 5.727145000000000152e-01 2.014549999999999067e-04 1.071510000000000105e+02 1.495339999999999918e+03
3.000000000000000062e-03 5.727615000000000345e-01 8.207015000000000837e-02 1.072314999999999969e+02 1.495360000000000127e+03
4.000000000000000083e-03 5.728100000000000414e-01 1.724376999999999993e-01 1.073410000000000082e+02 1.495389999999999873e+03
5.000000000000000104e-03 5.727995000000000170e-01 1.630759999999999987e-01 1.073204999999999956e+02 1.495389999999999873e+03
6.000000000000000125e-03 5.727470000000000061e-01 7.794650000000000190e-02 1.071554999999999893e+02 1.495355000000000018e+03
7.000000000000000146e-03 5.726949999999999541e-01 -1.144150000000004885e-02 1.069205000000000041e+02 1.495304999999999836e+03
8.000000000000000167e-03 5.726249999999999396e-01 -1.418075000000000307e-01 1.065875000000000057e+02 1.495235000000000127e+03
9.000000000000001055e-03 5.725040000000000129e-01 -3.746300000000000185e-01 1.060750000000000028e+02 1.495119999999999891e+03
1.000000000000000194e-02 5.723260000000000014e-01 -7.183700000000000641e-01 1.053385000000000105e+02 1.494954999999999927e+03
1.099999999999999936e-02 5.720830000000000082e-01 -1.177140000000000075e+00 1.043384999999999962e+02 1.494730000000000018e+03
1.200000000000000025e-02 5.717600000000000460e-01 -1.761775000000000091e+00 1.030282499999999999e+02 1.494424999999999955e+03
1.300000000000000114e-02 5.713620000000000365e-01 -2.445059999999999789e+00 1.014002499999999998e+02 1.494039999999999964e+03
1.400000000000000203e-02 5.709239999999999871e-01 -3.136875000000000302e+00 9.953504999999999825e+01 1.493585000000000036e+03
1.499999999999999944e-02 5.704979999999999496e-01 -3.712105000000000210e+00 9.758474999999999966e+01 1.493094999999999800e+03
1.600000000000000033e-02 5.701264999999999805e-01 -4.062919499999999573e+00 9.571135000000001014e+01 1.492599999999999909e+03
1.700000000000000122e-02 5.698274999999999313e-01 -4.135870500000000227e+00 9.403180000000000405e+01 1.492134999999999991e+03
1.800000000000000211e-02 5.695909999999999584e-01 -3.939588099999999926e+00 9.258589999999999520e+01 1.491704999999999927e+03
1.900000000000000300e-02 5.693894999999999929e-01 -3.530041499999999832e+00 9.134085000000000321e+01 1.491315000000000055e+03
2.000000000000000042e-02 5.691895000000000149e-01 -2.985246500000000136e+00 9.021475000000000932e+01 1.490945000000000164e+03
2.100000000000000130e-02 5.689619999999999678e-01 -2.379129499999999897e+00 8.910990000000001032e+01 1.490585000000000036e+03
2.200000000000000219e-02 5.686919999999999753e-01 -1.761565000000000047e+00 8.794595000000001050e+01 1.490210000000000036e+03
2.299999999999999961e-02 5.683799999999999963e-01 -1.149814999999999809e+00 8.668179999999999552e+01 1.489809999999999945e+03
2.400000000000000050e-02 5.680389999999999606e-01 -5.334550000000002346e-01 8.531974999999999909e+01 1.489400000000000091e+03
2.500000000000000139e-02 5.676854999999999540e-01 1.106500000000001371e-01 8.389369999999999550e+01 1.488970000000000027e+03
2.600000000000000228e-02 5.673344999999999638e-01 8.004350000000002296e-01 8.244684999999999775e+01 1.488530000000000200e+03
2.700000000000000316e-02 5.669914999999999816e-01 1.534735000000000182e+00 8.100950000000000273e+01 1.488094999999999800e+03
2.800000000000000058e-02 5.666504999999999459e-01 2.287409999999999499e+00 7.958404999999999063e+01 1.487654999999999973e+03
2.900000000000000147e-02 5.662954999999999517e-01 3.009744999999999671e+00 7.814005000000000223e+01 1.487215000000000146e+03
3.000000000000000236e-02 5.659084999999999255e-01 3.639269999999999783e+00 7.662019999999999698e+01 1.486755000000000109e+03
3.099999999999999978e-02 5.654660000000000242e-01 4.112305000000000099e+00 7.495345000000000368e+01 1.486265000000000100e+03
3.200000000000000067e-02 5.649554999999999438e-01 4.377105000000000246e+00 7.307265000000001010e+01 1.485735000000000127e+03
3.300000000000000155e-02 5.643685000000000507e-01 4.404910000000000991e+00 7.093274999999999864e+01 1.485134999999999991e+03
3.400000000000000244e-02 5.637119999999999909e-01 4.196200000000000152e+00 6.852500000000000568e+01 1.484490000000000009e+03
3.500000000000000333e-02 5.630034999999999901e-01 3.781160000000000299e+00 6.588325000000000387e+01 1.483775000000000091e+03
3.600000000000000422e-02 5.622684999999999489e-01 3.213464999999999794e+00 6.308180000000000121e+01 1.483030000000000200e+03
3.700000000000000511e-02 5.615384999999999405e-01 2.561330000000000329e+00 6.022560000000000002e+01 1.482260000000000218e+03
3.799999999999999906e-02 5.608444999999999681e-01 1.896199999999999886e+00 5.743594999999999828e+01 1.481500000000000000e+03
3.899999999999999994e-02 5.602154999999999774e-01 1.284030000000000005e+00 5.483525000000000205e+01 1.480779999999999973e+03
4.000000000000000083e-02 5.596730000000000871e-01 7.788750000000002061e-01 5.253399999999999892e+01 1.480119999999999891e+03
4.100000000000000172e-02 5.592340000000000089e-01 4.198549999999996452e-01 5.062145000000000294e+01 1.479549999999999955e+03
4.200000000000000261e-02 5.589079999999999604e-01 2.315550000000001774e-01 4.916120000000000090e+01 1.479090000000000146e+03
4.300000000000000350e-02 5.586980000000000279e-01 2.262500000000000622e-01 4.819060000000000343e+01 1.478755000000000109e+03
4.400000000000000439e-02 5.586039999999999894e-01 4.074249999999999261e-01 4.772355000000000302e+01 1.478545000000000073e+03
4.499999999999999833e-02 5.586229999999999807e-01 7.733594999999999775e-01 4.775574999999999903e+01 1.478465000000000146e+03
4.599999999999999922e-02 5.587500000000000799e-01 1.320066500000000032e+00 4.826999999999999602e+01 1.478519999999999982e+03
4.700000000000000011e-02 5.589800000000000324e-01 2.042993000000000059e+00 4.924130000000000251e+01 1.478694999999999936e+03
4.800000000000000100e-02 5.593069999999999986e-01 2.937329999999999774e+00 5.064020000000000010e+01 1.478990000000000009e+03
4.900000000000000189e-02 5.597250000000000281e-01 3.997234999999999872e+00 5.243479999999999563e+01 1.479410000000000082e+03
5.000000000000000278e-02 5.602264999999999606e-01 5.214364999999999917e+00 5.459059999999999491e+01 1.479920000000000073e+03
5.100000000000000366e-02 5.608024999999999816e-01 6.576452999999999882e+00 5.706989999999999696e+01 1.480529999999999973e+03
5.200000000000000455e-02 5.614440000000000541e-01 8.066238750000000124e+00 5.983089999999999975e+01 1.481224999999999909e+03
5.300000000000000544e-02 5.621389999999999443e-01 9.661215000000000330e+00 6.282704999999999984e+01 1.481994999999999891e+03
5.399999999999999939e-02 5.628754999999999731e-01 1.133438500000000104e+01 6.600735000000000241e+01 1.482820000000000164e+03
5.500000000000000028e-02 5.636390000000000011e-01 1.305549500000000052e+01 6.931745000000000800e+01 1.483695000000000164e+03
5.600000000000000117e-02 5.644160000000000288e-01 1.479283999999999999e+01 7.270194999999999652e+01 1.484595000000000027e+03
5.700000000000000205e-02 5.651939999999999742e-01 1.651516999999999769e+01 7.610625000000000284e+01 1.485525000000000091e+03
5.800000000000000294e-02 5.659620000000000761e-01 1.819378999999999991e+01 7.948005000000000564e+01 1.486450000000000045e+03
5.900000000000000383e-02 5.667100000000000470e-01 1.980375000000000085e+01 8.277915000000000134e+01 1.487369999999999891e+03
6.000000000000000472e-02 5.674310000000000187e-01 2.132509999999999906e+01 8.596769999999999357e+01 1.488269999999999982e+03
6.099999999999999867e-02 5.681205000000000283e-01 2.274320000000000164e+01 8.901949999999999363e+01 1.489144999999999982e+03
6.199999999999999956e-02 5.687759999999999483e-01 2.404905000000000115e+01 9.191749999999998977e+01 1.489985000000000127e+03
6.300000000000000044e-02 5.693964999999999721e-01 2.523845000000000027e+01 9.465505000000000280e+01 1.490789999999999964e+03
6.400000000000000133e-02 5.699845000000000050e-01 2.631190000000000140e+01 9.723454999999999870e+01 1.491559999999999945e+03
6.500000000000000222e-02 5.705419999999999936e-01 2.727355000000000018e+01 9.966490000000000293e+01 1.492289999999999964e+03
6.600000000000000311e-02 5.710725000000000939e-01 2.813020000000000209e+01 1.019609999999999985e+02 1.492985000000000127e+03
6.700000000000000400e-02 5.715820000000000345e-01 2.889099999999999824e+01 1.041425500000000000e+02 1.493644999999999982e+03
6.800000000000000488e-02 5.720745000000000413e-01 2.956615000000000038e+01 1.062309999999999945e+02 1.494284999999999854e+03
6.900000000000000577e-02 5.725550000000000361e-01 3.016635000000000133e+01 1.082475000000000023e+02 1.494900000000000091e+03
7.000000000000000666e-02 5.730275000000000230e-01 3.070235000000000269e+01 1.102134999999999962e+02 1.495500000000000000e+03
7.100000000000000755e-02 5.734960000000000058e-01 3.118394999999999939e+01 1.121479999999999961e+02 1.496090000000000146e+03
7.200000000000000844e-02 5.739630000000000010e-01 3.161959999999999837e+01 1.140660000000000025e+02 1.496670000000000073e+03
7.300000000000000933e-02 5.744309999999999139e-01 3.201590000000000202e+01 1.159764999999999873e+02 1.497250000000000000e+03
7.399999999999999634e-02 5.748995000000000077e-01 3.237725000000000364e+01 1.178855000000000075e+02 1.497820000000000164e+03
7.499999999999999722e-02 5.753679999999999906e-01 3.270550000000000068e+01 1.197914999999999992e+02 1.498389999999999873e+03
7.599999999999999811e-02 5.758345000000000269e-01 3.300019999999999953e+01 1.216889999999999930e+02 1.498960000000000036e+03
7.699999999999999900e-02 5.762950000000000017e-01 3.325869999999999749e+01 1.235660000000000025e+02 1.499519999999999982e+03
7.799999999999999989e-02 5.767459999999999809e-01 3.347610000000000241e+01 1.254064999999999941e+02 1.500070000000000164e+03
7.900000000000000078e-02 5.771819999999999729e-01 3.364645000000000152e+01 1.271905000000000143e+02 1.500605000000000018e+03
8.000000000000000167e-02 5.775985000000000147e-01 3.376274999999999693e+01 1.288975000000000080e+02 1.501125000000000000e+03
8.100000000000000255e-02 5.779894999999999339e-01 3.381770000000000209e+01 1.305049999999999955e+02 1.501615000000000009e+03
8.200000000000000344e-02 5.783504999999999896e-01 3.380420000000000158e+01 1.319900000000000091e+02 1.502075000000000045e+03
8.300000000000000433e-02 5.786769999999999969e-01 3.371609999999999729e+01 1.333329999999999984e+02 1.502494999999999891e+03
8.400000000000000522e-02 5.789644999999999930e-01 3.354824999999999591e+01 1.345175000000000125e+02 1.502875000000000000e+03
8.500000000000000611e-02 5.792110000000000314e-01 3.329720000000000368e+01 1.355275000000000034e+02 1.503210000000000036e+03
8.600000000000000699e-02 5.794139999999999846e-01 3.296110000000000184e+01 1.363545000000000016e+02 1.503490000000000009e+03
8.700000000000000788e-02 5.795725000000000460e-01 3.254009999999999536e+01 1.369929999999999950e+02 1.503720000000000027e+03
8.800000000000000877e-02 5.796869999999999523e-01 3.203634999999999877e+01 1.374420000000000073e+02 1.503900000000000091e+03
8.899999999999999578e-02 5.797585000000000655e-01 3.145374999999999943e+01 1.377049999999999841e+02 1.504025000000000091e+03
8.999999999999999667e-02 5.797889999999999988e-01 3.079814999999999969e+01 1.377905000000000086e+02 1.504099999999999909e+03
9.099999999999999756e-02 5.797815000000000607e-01 3.007694999999999652e+01 1.377105000000000246e+02 1.504125000000000000e+03
9.199999999999999845e-02 5.797395000000000742e-01 2.929899999999999949e+01 1.374805000000000064e+02 1.504105000000000018e+03
9.299999999999999933e-02 5.796675000000000022e-01 2.847424999999999784e+01 1.371175000000000068e+02 1.504045000000000073e+03
9.400000000000000022e-02 5.795704999999999885e-01 2.761354999999999649e+01 1.366419999999999959e+02 1.503950000000000045e+03
9.500000000000000111e-02 5.794525000000000370e-01 2.672810000000000130e+01 1.360749999999999886e+02 1.503825000000000045e+03
9.600000000000000200e-02 5.793189999999999173e-01 2.582929999999999993e+01 1.354399999999999977e+02 1.503674999999999955e+03
9.700000000000000289e-02 5.791745000000000365e-01 2.492820000000000036e+01 1.347565000000000168e+02 1.503505000000000109e+03
9.800000000000000377e-02 5.790245000000000530e-01 2.403545000000000087e+01 1.340459999999999923e+02 1.503325000000000045e+03
9.900000000000000466e-02 5.788725000000000120e-01 2.316049999999999898e+01 1.333285000000000196e+02 1.503130000000000109e+03
1.000000000000000056e-01 5.787225000000000286e-01 2.231165000000000020e+01 1.326200000000000045e+02 1.502940000000000055e+03
1.010000000000000064e-01 5.785770000000000080e-01 2.149544999999999817e+01 1.319350000000000023e+02 1.502750000000000000e+03
1.020000000000000073e-01 5.784394999999999953e-01 2.071689999999999898e+01 1.312849999999999966e+02 1.502565000000000055e+03
1.030000000000000082e-01 5.783099999999999907e-01 1.997899999999999920e+01 1.306775000000000091e+02 1.502389999999999873e+03
1.040000000000000091e-01 5.781905000000000516e-01 1.928279999999999816e+01 1.301169999999999902e+02 1.502220000000000027e+03
1.050000000000000100e-01 5.780804999999999971e-01 1.862760000000000105e+01 1.296045000000000016e+02 1.502059999999999945e+03
1.059999999999999970e-01 5.779790000000000205e-01 1.801085000000000136e+01 1.291374999999999886e+02 1.501920000000000073e+03
1.069999999999999979e-01 5.778849999999999820e-01 1.742855000000000132e+01 1.287104999999999961e+02 1.501784999999999854e+03
1.079999999999999988e-01 5.777965000000000462e-01 1.687539999999999907e+01 1.283160000000000025e+02 1.501654999999999973e+03
1.089999999999999997e-01 5.777109999999999745e-01 1.634515000000000029e+01 1.279439999999999884e+02 1.501539999999999964e+03
1.100000000000000006e-01 5.776259999999999728e-01 1.583085000000000164e+01 1.275844999999999914e+02 1.501420000000000073e+03
1.110000000000000014e-01 5.775390000000000246e-01 1.532554999999999978e+01 1.272250000000000085e+02 1.501309999999999945e+03
1.120000000000000023e-01 5.774479999999999613e-01 1.482194999999999929e+01 1.268545000000000016e+02 1.501194999999999936e+03
1.130000000000000032e-01 5.773500000000000298e-01 1.431349999999999945e+01 1.264619999999999891e+02 1.501079999999999927e+03
1.140000000000000041e-01 5.772429999999999506e-01 1.379410000000000025e+01 1.260374999999999943e+02 1.500949999999999818e+03
1.150000000000000050e-01 5.771260000000000279e-01 1.325874499999999934e+01 1.255730000000000075e+02 1.500820000000000164e+03
1.160000000000000059e-01 5.769969999999999821e-01 1.270342999999999911e+01 1.250620000000000118e+02 1.500675000000000182e+03
1.170000000000000068e-01 5.768554999999999655e-01 1.212562499999999943e+01 1.245014999999999930e+02 1.500514999999999873e+03
1.180000000000000077e-01 5.767025000000000068e-01 1.152408999999999928e+01 1.238889999999999958e+02 1.500345000000000027e+03
1.190000000000000085e-01 5.765375000000000361e-01 1.089908000000000143e+01 1.232259999999999991e+02 1.500164999999999964e+03
1.200000000000000094e-01 5.763624999999999998e-01 1.025242500000000057e+01 1.225165000000000077e+02 1.499965000000000146e+03
1.209999999999999964e-01 5.761789999999999967e-01 9.587274999999999991e+00 1.217665000000000077e+02 1.499759999999999991e+03
1.219999999999999973e-01 5.759885000000000144e-01 8.908034999999999926e+00 1.209840000000000089e+02 1.499545000000000073e+03
1.229999999999999982e-01 5.757944999999999869e-01 8.220275000000000887e+00 1.201794999999999902e+02 1.499320000000000164e+03
1.239999999999999991e-01 5.755989999999999718e-01 7.530439999999999579e+00 1.193650000000000091e+02 1.499095000000000027e+03
1.250000000000000000e-01 5.754059999999999730e-01 6.845735000000000348e+00 1.185529999999999973e+02 1.498869999999999891e+03
1.260000000000000009e-01 5.752180000000000071e-01 6.173680000000000057e+00 1.177565000000000026e+02 1.498644999999999982e+03
1.270000000000000018e-01 5.750379999999999381e-01 5.521874999999999645e+00 1.169894999999999925e+02 1.498424999999999955e+03
1.280000000000000027e-01 5.748694999999999222e-01 4.897785000000000721e+00 1.162639999999999958e+02 1.498210000000000036e+03
1.290000000000000036e-01 5.747145000000000170e-01 4.308419999999999916e+00 1.155925000000000011e+02 1.498014999999999873e+03
1.300000000000000044e-01 5.745764999999999345e-01 3.760049999999999670e+00 1.149860000000000042e+02 1.497835000000000036e+03
1.310000000000000053e-01 5.744560000000000777e-01 3.257985000000000131e+00 1.144525000000000006e+02 1.497674999999999955e+03
1.320000000000000062e-01 5.743549999999999489e-01 2.806420000000000137e+00 1.139985000000000070e+02 1.497529999999999973e+03
1.330000000000000071e-01 5.742734999999999923e-01 2.408272499999999816e+00 1.136289999999999907e+02 1.497409999999999854e+03
1.340000000000000080e-01 5.742129999999999734e-01 2.065111499999999989e+00 1.133449999999999989e+02 1.497304999999999836e+03
1.350000000000000089e-01 5.741715000000000568e-01 1.777134000000000214e+00 1.131460000000000008e+02 1.497230000000000018e+03
1.360000000000000098e-01 5.741494999999999793e-01 1.543201999999999963e+00 1.130289999999999964e+02 1.497174999999999955e+03
1.370000000000000107e-01 5.741445000000000576e-01 1.360939999999999817e+00 1.129890000000000043e+02 1.497139999999999873e+03
1.380000000000000115e-01 5.741549999999999709e-01 1.226874999999999938e+00 1.130174999999999983e+02 1.497130000000000109e+03
1.390000000000000124e-01 5.741795000000000648e-01 1.136578499999999936e+00 1.131075000000000017e+02 1.497134999999999991e+03
1.400000000000000133e-01 5.742140000000000022e-01 1.084906999999999844e+00 1.132475000000000023e+02 1.497154999999999973e+03
1.410000000000000142e-01 5.742570000000000174e-01 1.066170999999999980e+00 1.134275000000000091e+02 1.497190000000000055e+03
1.420000000000000151e-01 5.743059999999999832e-01 1.074386999999999981e+00 1.136359999999999957e+02 1.497235000000000127e+03
1.430000000000000160e-01 5.743579999999999242e-01 1.103461500000000095e+00 1.138619999999999948e+02 1.497284999999999854e+03
1.440000000000000169e-01 5.744110000000000049e-01 1.147396500000000152e+00 1.140949999999999989e+02 1.497335000000000036e+03
1.450000000000000178e-01 5.744620000000000282e-01 1.200458999999999943e+00 1.143245000000000005e+02 1.497394999999999982e+03
1.459999999999999909e-01 5.745104999999999240e-01 1.257324000000000108e+00 1.145414999999999992e+02 1.497444999999999936e+03
1.469999999999999918e-01 5.745534999999999393e-01 1.313207000000000013e+00 1.147384999999999877e+02 1.497500000000000000e+03
1.479999999999999927e-01 5.745900000000000452e-01 1.363935000000000120e+00 1.149104999999999990e+02 1.497550000000000182e+03
1.489999999999999936e-01 5.746189999999999909e-01 1.406044999999999989e+00 1.150499999999999972e+02 1.497585000000000036e+03
1.499999999999999944e-01 5.746400000000000396e-01 1.436760000000000037e+00 1.151554999999999893e+02 1.497615000000000009e+03
1.509999999999999953e-01 5.746525000000000105e-01 1.454060000000000130e+00 1.152235000000000014e+02 1.497640000000000100e+03
1.519999999999999962e-01 5.746565000000000145e-01 1.456624999999999837e+00 1.152540000000000049e+02 1.497654999999999973e+03
1.529999999999999971e-01 5.746519999999999406e-01 1.443824999999999914e+00 1.152469999999999999e+02 1.497659999999999854e+03
1.539999999999999980e-01 5.746394999999999698e-01 1.415675000000000017e+00 1.152040000000000077e+02 1.497650000000000091e+03
1.549999999999999989e-01 5.746200000000000196e-01 1.372750499999999985e+00 1.151274999999999977e+02 1.497639999999999873e+03
1.559999999999999998e-01 5.745934999999999793e-01 1.316146000000000038e+00 1.150204999999999984e+02 1.497610000000000127e+03
1.570000000000000007e-01 5.745615000000000583e-01 1.247365000000000057e+00 1.148859999999999957e+02 1.497579999999999927e+03
1.580000000000000016e-01 5.745249999999999524e-01 1.168245500000000048e+00 1.147284999999999968e+02 1.497539999999999964e+03
1.590000000000000024e-01 5.744839999999999947e-01 1.080870500000000067e+00 1.145525000000000091e+02 1.497500000000000000e+03
