# t [s], A [cm^2], U [cm/s], P [cPa], c [cm/s]
1.000000000000000021e-03 1.203369999999999995e-01 2.941019999999999746e-01 9.591900000000001114e+01 2.031920000000000073e+03
2.000000000000000042e-03 1.203075000000000117e-01 1.788827500000000015e+00 9.274850000000000705e+01 2.031490000000000009e+03
3.000000000000000062e-03 1.202229999999999965e-01 3.641997499999999999e+00 8.838085000000000946e+01 2.030295000000000073e+03
4.000000000000000083e-03 1.201045000000000029e-01 5.725523500000000432e+00 8.357224999999999682e+01 2.028644999999999982e+03
5.000000000000000104e-03 1.199749999999999983e-01 7.973665000000000447e+00 7.918840000000000146e+01 2.026855000000000018e+03
6.000000000000000125e-03 1.198490000000000111e-01 1.022813999999999979e+01 7.556395000000000550e+01 2.025134999999999991e+03
7.000000000000000146e-03 1.197294999999999887e-01 1.227669500000000014e+01 7.249264999999999759e+01 2.023539999999999964e+03
8.000000000000000167e-03 1.196194999999999897e-01 1.401745000000000019e+01 6.971365000000000123e+01 2.022085000000000036e+03
9.000000000000001055e-03 1.195205000000000017e-01 1.548045000000000115e+01 6.724965000000000259e+01 2.020805000000000064e+03
1.000000000000000194e-02 1.194355000000000000e-01 1.670584999999999809e+01 6.519249999999999545e+01 2.019715000000000146e+03
1.099999999999999936e-02 1.193649999999999989e-01 1.771134999999999948e+01 6.353849999999999909e+01 2.018819999999999936e+03
1.200000000000000025e-02 1.193079999999999974e-01 1.851355000000000217e+01 6.224115000000000464e+01 2.018105000000000018e+03
1.300000000000000114e-02 1.192619999999999930e-01 1.911984999999999957e+01 6.122315000000000396e+01 2.017534999999999854e+03
1.400000000000000203e-02 1.192244999999999971e-01 1.953059999999999974e+01 6.036459999999999582e+01 2.017085000000000036e+03
1.499999999999999944e-02 1.191935000000000078e-01 1.978199999999999648e+01 5.960184999999999889e+01 2.016710000000000036e+03
1.600000000000000033e-02 1.191689999999999972e-01 1.997944999999999993e+01 5.906149999999999523e+01 2.016429999999999836e+03
1.700000000000000122e-02 1.191570000000000129e-01 2.027114999999999867e+01 5.905539999999999878e+01 2.016300000000000182e+03
1.800000000000000211e-02 1.191640000000000060e-01 2.077340000000000231e+01 5.990189999999999770e+01 2.016394999999999982e+03
1.900000000000000300e-02 1.191919999999999924e-01 2.150560000000000116e+01 6.170444999999999425e+01 2.016755000000000109e+03
2.000000000000000042e-02 1.192409999999999998e-01 2.237514999999999787e+01 6.424025000000000318e+01 2.017375000000000000e+03
2.100000000000000130e-02 1.193005000000000038e-01 2.321490000000000009e+01 6.701474999999999227e+01 2.018144999999999982e+03
2.200000000000000219e-02 1.193614999999999954e-01 2.384965000000000046e+01 6.943870000000001141e+01 2.018934999999999945e+03
2.299999999999999961e-02 1.194110000000000033e-01 2.415800000000000125e+01 7.103325000000000955e+01 2.019610000000000127e+03
2.400000000000000050e-02 1.194430000000000075e-01 2.410770000000000124e+01 7.157820000000000960e+01 2.020049999999999955e+03
2.500000000000000139e-02 1.194544999999999912e-01 2.375515000000000043e+01 7.115385000000000559e+01 2.020230000000000018e+03
2.600000000000000228e-02 1.194489999999999996e-01 2.321399999999999864e+01 7.007380000000000564e+01 2.020184999999999945e+03
2.700000000000000316e-02 1.194320000000000104e-01 2.260900000000000176e+01 6.874784999999999968e+01 2.019985000000000127e+03
2.800000000000000058e-02 1.194110000000000033e-01 2.203395000000000081e+01 6.753284999999999627e+01 2.019720000000000027e+03
2.900000000000000147e-02 1.193915000000000115e-01 2.152774999999999750e+01 6.662749999999999773e+01 2.019464999999999918e+03
3.000000000000000236e-02 1.193754999999999955e-01 2.107310000000000016e+01 6.603810000000000002e+01 2.019255000000000109e+03
3.099999999999999978e-02 1.193625000000000103e-01 2.061500000000000199e+01 6.561514999999999986e+01 2.019090000000000146e+03
3.200000000000000067e-02 1.193494999999999973e-01 2.008899999999999864e+01 6.513569999999999993e+01 2.018920000000000073e+03
3.300000000000000155e-02 1.193329999999999946e-01 1.945015000000000072e+01 6.440094999999999459e+01 2.018710000000000036e+03
3.400000000000000244e-02 1.193095000000000128e-01 1.869404999999999717e+01 6.331765000000000043e+01 2.018420000000000073e+03
3.500000000000000333e-02 1.192794999999999966e-01 1.786435000000000173e+01 6.194100000000000250e+01 2.018039999999999964e+03
3.600000000000000422e-02 1.192455000000000043e-01 1.704455000000000098e+01 6.046795000000000186e+01 2.017605000000000018e+03
3.700000000000000511e-02 1.192124999999999990e-01 1.633684999999999832e+01 5.918399999999999750e+01 2.017179999999999836e+03
3.799999999999999906e-02 1.191860000000000003e-01 1.583564999999999934e+01 5.838250000000000028e+01 2.016829999999999927e+03
3.899999999999999994e-02 1.191714999999999997e-01 1.560235000000000127e+01 5.828119999999999834e+01 2.016630000000000109e+03
4.000000000000000083e-02 1.191734999999999878e-01 1.565034999999999954e+01 5.896224999999999739e+01 2.016634999999999991e+03
4.100000000000000172e-02 1.191919999999999924e-01 1.594205000000000005e+01 6.035000000000000142e+01 2.016849999999999909e+03
4.200000000000000261e-02 1.192245000000000110e-01 1.639809999999999945e+01 6.222844999999999516e+01 2.017255000000000109e+03
4.300000000000000350e-02 1.192660000000000109e-01 1.691355000000000075e+01 6.428910000000000480e+01 2.017775000000000091e+03
4.400000000000000439e-02 1.193110000000000004e-01 1.737784999999999869e+01 6.619325000000000614e+01 2.018344999999999800e+03
4.499999999999999833e-02 1.193504999999999983e-01 1.769250000000000256e+01 6.763299999999999557e+01 2.018855000000000018e+03
4.599999999999999922e-02 1.193794999999999995e-01 1.778415000000000035e+01 6.837864999999999327e+01 2.019240000000000009e+03
4.700000000000000011e-02 1.193925000000000125e-01 1.761074999999999946e+01 6.830429999999999779e+01 2.019429999999999836e+03
4.800000000000000100e-02 1.193884999999999946e-01 1.716225000000000023e+01 6.739140000000000441e+01 2.019380000000000109e+03
4.900000000000000189e-02 1.193654999999999994e-01 1.645524999999999949e+01 6.571285000000000309e+01 2.019105000000000018e+03
5.000000000000000278e-02 1.193249999999999866e-01 1.552500000000000036e+01 6.340494999999999948e+01 2.018595000000000027e+03
5.100000000000000366e-02 1.192700000000000010e-01 1.441750000000000043e+01 6.063589999999999947e+01 2.017900000000000091e+03
5.200000000000000455e-02 1.192034999999999900e-01 1.318160999999999916e+01 5.757724999999999937e+01 2.017049999999999955e+03
5.300000000000000544e-02 1.191294999999999993e-01 1.186499500000000040e+01 5.438439999999999941e+01 2.016105000000000018e+03
5.399999999999999939e-02 1.190515000000000045e-01 1.051162000000000063e+01 5.118769999999999953e+01 2.015095000000000027e+03
5.500000000000000028e-02 1.189720000000000083e-01 9.161960000000000548e+00 4.809179999999999922e+01 2.014074999999999818e+03
5.600000000000000117e-02 1.188935000000000131e-01 7.854424999999999990e+00 4.518245000000000289e+01 2.013065000000000055e+03
5.700000000000000205e-02 1.188190000000000079e-01 6.626879999999999882e+00 4.253454999999999586e+01 2.012095000000000027e+03
5.800000000000000294e-02 1.187499999999999944e-01 5.517805000000000071e+00 4.022044999999999959e+01 2.011199999999999818e+03
5.900000000000000383e-02 1.186890000000000028e-01 4.566505000000000258e+00 3.831414999999999793e+01 2.010410000000000082e+03
6.000000000000000472e-02 1.186384999999999940e-01 3.811984999999999957e+00 3.689220000000000255e+01 2.009744999999999891e+03
6.099999999999999867e-02 1.185999999999999971e-01 3.290945000000000231e+00 3.603000000000000114e+01 2.009230000000000018e+03
6.199999999999999956e-02 1.185755000000000003e-01 3.035199999999999676e+00 3.579519999999999413e+01 2.008900000000000091e+03
6.300000000000000044e-02 1.185670000000000057e-01 3.068960000000000132e+00 3.624080000000000013e+01 2.008769999999999982e+03
6.400000000000000133e-02 1.185760000000000008e-01 3.406660000000000021e+00 3.739770000000000039e+01 2.008860000000000127e+03
6.500000000000000222e-02 1.186024999999999996e-01 4.051510000000000389e+00 3.926999999999999602e+01 2.009179999999999836e+03
6.600000000000000311e-02 1.186474999999999891e-01 4.995105000000000572e+00 4.183324999999999960e+01 2.009730000000000018e+03
6.700000000000000400e-02 1.187094999999999956e-01 6.218009999999999593e+00 4.503509999999999991e+01 2.010505000000000109e+03
6.800000000000000488e-02 1.187880000000000047e-01 7.691195000000000448e+00 4.879950000000000188e+01 2.011500000000000000e+03
6.900000000000000577e-02 1.188809999999999867e-01 9.377925000000001177e+00 5.303199999999999648e+01 2.012680000000000064e+03
7.000000000000000666e-02 1.189869999999999955e-01 1.123627499999999912e+01 5.762664999999999793e+01 2.014029999999999973e+03
7.100000000000000755e-02 1.191019999999999995e-01 1.322129999999999939e+01 6.247259999999999991e+01 2.015505000000000109e+03
7.200000000000000844e-02 1.192245000000000110e-01 1.528760000000000119e+01 6.746099999999999852e+01 2.017090000000000146e+03
7.300000000000000933e-02 1.193519999999999859e-01 1.739130000000000109e+01 7.249039999999999395e+01 2.018730000000000018e+03
7.399999999999999634e-02 1.194810000000000039e-01 1.949235000000000184e+01 7.747175000000000011e+01 2.020409999999999854e+03
7.499999999999999722e-02 1.196099999999999941e-01 2.155590000000000117e+01 8.233275000000000432e+01 2.022095000000000027e+03
7.599999999999999811e-02 1.197379999999999972e-01 2.355395000000000039e+01 8.701994999999999436e+01 2.023759999999999991e+03
7.699999999999999900e-02 1.198614999999999958e-01 2.546609999999999729e+01 9.150079999999999814e+01 2.025394999999999982e+03
7.799999999999999989e-02 1.199820000000000053e-01 2.727969999999999828e+01 9.576324999999999932e+01 2.026970000000000027e+03
7.900000000000000078e-02 1.200975000000000098e-01 2.898995000000000033e+01 9.981485000000000696e+01 2.028494999999999891e+03
8.000000000000000167e-02 1.202085000000000098e-01 3.059890000000000043e+01 1.036788999999999987e+02 2.029969999999999800e+03
8.100000000000000255e-02 1.203150000000000053e-01 3.211419999999999675e+01 1.073905000000000030e+02 2.031384999999999991e+03
8.200000000000000344e-02 1.204184999999999978e-01 3.354729999999999990e+01 1.109925000000000068e+02 2.032764999999999873e+03
8.300000000000000433e-02 1.205195000000000016e-01 3.491219999999999857e+01 1.145300000000000011e+02 2.034110000000000127e+03
8.400000000000000522e-02 1.206190000000000040e-01 3.622305000000000064e+01 1.180439999999999969e+02 2.035434999999999945e+03
8.500000000000000611e-02 1.207179999999999920e-01 3.749304999999999666e+01 1.215699999999999932e+02 2.036755000000000109e+03
8.600000000000000699e-02 1.208170000000000077e-01 3.873295000000000243e+01 1.251319999999999908e+02 2.038075000000000045e+03
8.700000000000000788e-02 1.209159999999999957e-01 3.995024999999999693e+01 1.287429999999999950e+02 2.039400000000000091e+03
8.800000000000000877e-02 1.210170000000000134e-01 4.114825000000000443e+01 1.324029999999999916e+02 2.040740000000000009e+03
8.899999999999999578e-02 1.211175000000000029e-01 4.232665000000000077e+01 1.361000000000000227e+02 2.042094999999999800e+03
8.999999999999999667e-02 1.212195000000000078e-01 4.348080000000000211e+01 1.398104999999999905e+02 2.043454999999999927e+03
9.099999999999999756e-02 1.213209999999999983e-01 4.460294999999999987e+01 1.435020000000000095e+02 2.044815000000000055e+03
9.199999999999999845e-02 1.214220000000000022e-01 4.568224999999999625e+01 1.471365000000000123e+02 2.046169999999999845e+03
9.299999999999999933e-02 1.215215000000000045e-01 4.670595000000000141e+01 1.506714999999999804e+02 2.047500000000000000e+03
9.400000000000000022e-02 1.216180000000000039e-01 4.765984999999999872e+01 1.540625000000000000e+02 2.048795000000000073e+03
9.500000000000000111e-02 1.217104999999999992e-01 4.852949999999999875e+01 1.572660000000000196e+02 2.050045000000000073e+03
9.600000000000000200e-02 1.217980000000000035e-01 4.930069999999999908e+01 1.602414999999999736e+02 2.051230000000000018e+03
9.700000000000000289e-02 1.218800000000000022e-01 4.996034999999999826e+01 1.629530000000000030e+02 2.052340000000000146e+03
9.800000000000000377e-02 1.219549999999999940e-01 5.049719999999999942e+01 1.653709999999999809e+02 2.053360000000000127e+03
9.900000000000000466e-02 1.220229999999999926e-01 5.090214999999999890e+01 1.674724999999999966e+02 2.054279999999999745e+03
1.000000000000000056e-01 1.220824999999999966e-01 5.116920000000000357e+01 1.692425000000000068e+02 2.055095000000000255e+03
1.010000000000000064e-01 1.221335000000000059e-01 5.129524999999999579e+01 1.706734999999999900e+02 2.055800000000000182e+03
1.020000000000000073e-01 1.221760000000000068e-01 5.128090000000000259e+01 1.717690000000000055e+02 2.056385000000000218e+03
1.030000000000000082e-01 1.222104999999999997e-01 5.112994999999999379e+01 1.725389999999999873e+02 2.056855000000000018e+03
1.040000000000000091e-01 1.222354999999999969e-01 5.084975000000000023e+01 1.730015000000000214e+02 2.057215000000000146e+03
1.050000000000000100e-01 1.222530000000000006e-01 5.045060000000000144e+01 1.731834999999999809e+02 2.057465000000000146e+03
1.059999999999999970e-01 1.222634999999999972e-01 4.994539999999999935e+01 1.731150000000000091e+02 2.057609999999999673e+03
1.069999999999999979e-01 1.222665000000000002e-01 4.934935000000000116e+01 1.728335000000000150e+02 2.057675000000000182e+03
1.079999999999999988e-01 1.222644999999999982e-01 4.867884999999999707e+01 1.723764999999999930e+02 2.057649999999999636e+03
1.089999999999999997e-01 1.222570000000000046e-01 4.795114999999999839e+01 1.717845000000000084e+02 2.057564999999999600e+03
1.100000000000000006e-01 1.222459999999999936e-01 4.718349999999999511e+01 1.710960000000000036e+02 2.057425000000000182e+03
1.110000000000000014e-01 1.222320000000000073e-01 4.639244999999999663e+01 1.703475000000000250e+02 2.057244999999999891e+03
1.120000000000000023e-01 1.222160000000000052e-01 4.559344999999999715e+01 1.695720000000000027e+02 2.057025000000000091e+03
1.130000000000000032e-01 1.221984999999999877e-01 4.479999999999999716e+01 1.687980000000000018e+02 2.056800000000000182e+03
1.140000000000000041e-01 1.221809999999999979e-01 4.402360000000000184e+01 1.680475000000000136e+02 2.056559999999999945e+03
1.150000000000000050e-01 1.221625000000000072e-01 4.327315000000000111e+01 1.673375000000000057e+02 2.056319999999999709e+03
1.160000000000000059e-01 1.221459999999999907e-01 4.255494999999999806e+01 1.666779999999999973e+02 2.056085000000000036e+03
1.170000000000000068e-01 1.221290000000000014e-01 4.187245000000000061e+01 1.660730000000000075e+02 2.055860000000000127e+03
1.180000000000000077e-01 1.221135000000000137e-01 4.122644999999999982e+01 1.655199999999999818e+02 2.055650000000000091e+03
1.190000000000000085e-01 1.220994999999999997e-01 4.061520000000000152e+01 1.650110000000000241e+02 2.055449999999999818e+03
1.200000000000000094e-01 1.220854999999999857e-01 4.003450000000000131e+01 1.645335000000000036e+02 2.055260000000000218e+03
1.209999999999999964e-01 1.220725000000000005e-01 3.947820000000000107e+01 1.640699999999999932e+02 2.055079999999999927e+03
1.219999999999999973e-01 1.220595000000000013e-01 3.893854999999999933e+01 1.636005000000000109e+02 2.054900000000000091e+03
1.229999999999999982e-01 1.220460000000000156e-01 3.840685000000000571e+01 1.631039999999999850e+02 2.054719999999999800e+03
1.239999999999999991e-01 1.220315000000000011e-01 3.787359999999999616e+01 1.625575000000000045e+02 2.054525000000000091e+03
1.250000000000000000e-01 1.220160000000000133e-01 3.732944999999999425e+01 1.619390000000000214e+02 2.054315000000000055e+03
1.260000000000000009e-01 1.219984999999999958e-01 3.676559999999999917e+01 1.612295000000000016e+02 2.054079999999999927e+03
1.270000000000000018e-01 1.219790000000000041e-01 3.617414999999999736e+01 1.604119999999999777e+02 2.053820000000000164e+03
1.280000000000000027e-01 1.219564999999999955e-01 3.554874999999999829e+01 1.594739999999999895e+02 2.053514999999999873e+03
1.290000000000000036e-01 1.219319999999999987e-01 3.488490000000000180e+01 1.584080000000000155e+02 2.053175000000000182e+03
1.300000000000000044e-01 1.219029999999999975e-01 3.418034999999999712e+01 1.572115000000000009e+02 2.052800000000000182e+03
1.310000000000000053e-01 1.218714999999999937e-01 3.343500000000000227e+01 1.558884999999999934e+02 2.052375000000000000e+03
1.320000000000000062e-01 1.218365000000000004e-01 3.265124999999999744e+01 1.544485000000000241e+02 2.051909999999999854e+03
1.330000000000000071e-01 1.217985000000000040e-01 3.183389999999999986e+01 1.529060000000000059e+02 2.051404999999999745e+03
1.340000000000000080e-01 1.217584999999999917e-01 3.098975000000000080e+01 1.512814999999999941e+02 2.050869999999999891e+03
1.350000000000000089e-01 1.217160000000000047e-01 3.012760000000000105e+01 1.495989999999999895e+02 2.050300000000000182e+03
1.360000000000000098e-01 1.216720000000000024e-01 2.925760000000000005e+01 1.478845000000000027e+02 2.049715000000000146e+03
1.370000000000000107e-01 1.216269999999999851e-01 2.839104999999999990e+01 1.461689999999999827e+02 2.049109999999999673e+03
1.380000000000000115e-01 1.215819999999999956e-01 2.753974999999999795e+01 1.444800000000000182e+02 2.048510000000000218e+03
1.390000000000000124e-01 1.215380000000000071e-01 2.671529999999999916e+01 1.428469999999999800e+02 2.047914999999999964e+03
1.400000000000000133e-01 1.214944999999999914e-01 2.592889999999999873e+01 1.412975000000000136e+02 2.047335000000000036e+03
1.410000000000000142e-01 1.214534999999999920e-01 2.519075000000000131e+01 1.398545000000000016e+02 2.046784999999999854e+03
1.420000000000000151e-01 1.214144999999999947e-01 2.450939999999999941e+01 1.385380000000000109e+02 2.046260000000000218e+03
1.430000000000000160e-01 1.213790000000000147e-01 2.389200000000000301e+01 1.373625000000000114e+02 2.045779999999999745e+03
1.440000000000000169e-01 1.213464999999999960e-01 2.334324999999999761e+01 1.363379999999999939e+02 2.045345000000000027e+03
1.450000000000000178e-01 1.213180000000000092e-01 2.286619999999999919e+01 1.354699999999999989e+02 2.044960000000000036e+03
1.459999999999999909e-01 1.212934999999999985e-01 2.246144999999999925e+01 1.347565000000000168e+02 2.044620000000000118e+03
1.469999999999999918e-01 1.212725000000000053e-01 2.212785000000000224e+01 1.341940000000000168e+02 2.044335000000000036e+03
1.479999999999999927e-01 1.212554999999999883e-01 2.186224999999999952e+01 1.337724999999999795e+02 2.044099999999999909e+03
1.489999999999999936e-01 1.212420000000000164e-01 2.166015000000000157e+01 1.334799999999999898e+02 2.043914999999999964e+03
1.499999999999999944e-01 1.212320000000000064e-01 2.151549999999999940e+01 1.333009999999999877e+02 2.043769999999999982e+03
1.509999999999999953e-01 1.212245000000000128e-01 2.142164999999999964e+01 1.332199999999999989e+02 2.043670000000000073e+03
1.519999999999999962e-01 1.212199999999999944e-01 2.137100000000000222e+01 1.332189999999999941e+02 2.043599999999999909e+03
1.529999999999999971e-01 1.212175000000000058e-01 2.135600000000000165e+01 1.332805000000000177e+02 2.043559999999999945e+03
1.539999999999999980e-01 1.212169999999999914e-01 2.136870000000000047e+01 1.333880000000000052e+02 2.043550000000000182e+03
1.549999999999999989e-01 1.212179999999999924e-01 2.140174999999999983e+01 1.335260000000000105e+02 2.043554999999999836e+03
1.559999999999999998e-01 1.212199999999999944e-01 2.144814999999999827e+01 1.336800000000000068e+02 2.043579999999999927e+03
1.570000000000000007e-01 1.212219999999999964e-01 2.150164999999999793e+01 1.338385000000000105e+02 2.043610000000000127e+03
1.580000000000000016e-01 1.212249999999999994e-01 2.155659999999999954e+01 1.339904999999999973e+02 2.043644999999999982e+03
1.590000000000000024e-01 1.212280000000000024e-01 2.160865000000000080e+01 1.341295000000000073e+02 2.043684999999999945e+03
