# t [s], A [cm^2], U [cm/s], P [cPa], c [cm/s]
1.000000000000000021e-03 4.530345000000000066e-01 5.452699999999997826e-03 1.004069999999999965e+02 1.613920000000000073e+03
2.000000000000000042e-03 4.530269999999999575e-01 -2.384555000000000008e-03 1.003789999999999907e+02 1.613909999999999854e+03
3.000000000000000062e-03 4.530644999999999811e-01 9.061885000000000079e-02 1.004775999999999954e+02 1.613940000000000055e+03
4.000000000000000083e-03 4.531005000000000171e-01 1.887234000000000134e-01 1.005989500000000021e+02 1.613970000000000027e+03
5.000000000000000104e-03 4.530824999999999991e-01 1.666129500000000097e-01 1.005469999999999970e+02 1.613960000000000036e+03
6.000000000000000125e-03 4.530340000000000478e-01 6.398850000000003146e-02 1.003249999999999886e+02 1.613910000000000082e+03
7.000000000000000146e-03 4.529914999999999914e-01 -3.127150000000000762e-02 1.000433500000000038e+02 1.613839999999999918e+03
8.000000000000000167e-03 4.529275000000000384e-01 -1.900100000000000122e-01 9.963595000000000823e+01 1.613739999999999782e+03
9.000000000000001055e-03 4.528210000000000290e-01 -4.705199999999999383e-01 9.901059999999999661e+01 1.613585000000000036e+03
1.000000000000000194e-02 4.526715000000000044e-01 -8.705549999999998567e-01 9.813089999999999691e+01 1.613360000000000127e+03
1.099999999999999936e-02 4.524655000000000205e-01 -1.408964999999999801e+00 9.693645000000000778e+01 1.613059999999999945e+03
1.200000000000000025e-02 4.521924999999999972e-01 -2.098389999999999755e+00 9.536625000000000796e+01 1.612654999999999973e+03
1.300000000000000114e-02 4.518699999999999939e-01 -2.870829999999999771e+00 9.346014999999999873e+01 1.612150000000000091e+03
1.400000000000000203e-02 4.515449999999999742e-01 -3.576845000000000496e+00 9.139254999999999995e+01 1.611585000000000036e+03
1.499999999999999944e-02 4.512665000000000148e-01 -4.059668000000000276e+00 8.939095000000000368e+01 1.611014999999999873e+03
1.600000000000000033e-02 4.510570000000000412e-01 -4.228168000000000148e+00 8.763185000000000002e+01 1.610485000000000127e+03
1.700000000000000122e-02 4.509100000000000330e-01 -4.081963500000000522e+00 8.617844999999999800e+01 1.610009999999999991e+03
1.800000000000000211e-02 4.507944999999999869e-01 -3.693125499999999839e+00 8.497870000000000346e+01 1.609590000000000146e+03
1.900000000000000300e-02 4.506755000000000067e-01 -3.166877500000000012e+00 8.390534999999999854e+01 1.609200000000000045e+03
2.000000000000000042e-02 4.505240000000000355e-01 -2.600245899999999999e+00 8.281284999999999741e+01 1.608809999999999945e+03
2.100000000000000130e-02 4.503265000000000184e-01 -2.051335499999999978e+00 8.159154999999999802e+01 1.608394999999999982e+03
2.200000000000000219e-02 4.500874999999999737e-01 -1.527835000000000276e+00 8.020060000000000855e+01 1.607940000000000055e+03
2.299999999999999961e-02 4.498240000000000016e-01 -9.973049999999998860e-01 7.867040000000000077e+01 1.607444999999999936e+03
2.400000000000000050e-02 4.495590000000000419e-01 -4.127900000000002123e-01 7.707574999999999932e+01 1.606930000000000064e+03
2.500000000000000139e-02 4.493070000000000119e-01 2.588999999999996859e-01 7.549599999999999511e+01 1.606414999999999964e+03
2.600000000000000228e-02 4.490720000000000267e-01 1.017474999999999907e+00 7.397905000000000086e+01 1.605909999999999854e+03
2.700000000000000316e-02 4.488449999999999940e-01 1.823180000000000023e+00 7.252039999999999509e+01 1.605420000000000073e+03
2.800000000000000058e-02 4.486075000000000479e-01 2.603600000000000136e+00 7.106100000000000705e+01 1.604925000000000182e+03
2.900000000000000147e-02 4.483369999999999855e-01 3.269644999999999690e+00 6.950169999999999959e+01 1.604420000000000073e+03
3.000000000000000236e-02 4.480110000000000481e-01 3.736220000000000319e+00 6.772974999999999568e+01 1.603855000000000018e+03
3.099999999999999978e-02 4.476175000000000015e-01 3.942770000000000330e+00 6.565049999999999386e+01 1.603219999999999800e+03
3.200000000000000067e-02 4.471540000000000514e-01 3.868104999999999905e+00 6.321665000000000134e+01 1.602505000000000109e+03
3.300000000000000155e-02 4.466350000000000042e-01 3.535975000000000090e+00 6.044530000000000314e+01 1.601695000000000164e+03
3.400000000000000244e-02 4.460834999999999662e-01 3.008520000000000305e+00 5.741995000000000005e+01 1.600825000000000045e+03
3.500000000000000333e-02 4.455280000000000351e-01 2.371865000000000112e+00 5.427524999999999977e+01 1.599909999999999854e+03
3.600000000000000422e-02 4.450005000000000210e-01 1.718250000000000277e+00 5.117289999999999850e+01 1.598994999999999891e+03
3.700000000000000511e-02 4.445260000000000322e-01 1.130804999999999616e+00 4.827620000000000289e+01 1.598125000000000000e+03
3.799999999999999906e-02 4.441244999999999776e-01 6.736550000000005589e-01 4.572809999999999775e+01 1.597335000000000036e+03
3.899999999999999994e-02 4.438075000000000214e-01 3.882799999999999585e-01 4.363734999999999786e+01 1.596655000000000200e+03
4.000000000000000083e-02 4.435800000000000298e-01 2.948200000000000820e-01 4.207325000000000159e+01 1.596119999999999891e+03
4.100000000000000172e-02 4.434425000000000172e-01 3.970650000000000013e-01 4.106680000000000064e+01 1.595735000000000127e+03
4.200000000000000261e-02 4.433894999999999920e-01 6.889619999999999633e-01 4.061814999999999998e+01 1.595509999999999991e+03
4.300000000000000350e-02 4.434180000000000343e-01 1.161004999999999843e+00 4.070620000000000260e+01 1.595440000000000055e+03
4.400000000000000439e-02 4.435215000000000130e-01 1.804983000000000004e+00 4.129925000000000068e+01 1.595525000000000091e+03
4.499999999999999833e-02 4.436959999999999793e-01 2.616311000000000053e+00 4.236260000000000048e+01 1.595755000000000109e+03
4.599999999999999922e-02 4.439389999999999725e-01 3.593560999999999783e+00 4.386345000000000027e+01 1.596115000000000009e+03
4.700000000000000011e-02 4.442455000000000154e-01 4.736024500000000081e+00 4.577110000000000412e+01 1.596610000000000127e+03
4.800000000000000100e-02 4.446130000000000360e-01 6.040320050000000052e+00 4.805539999999999878e+01 1.597219999999999800e+03
4.900000000000000189e-02 4.450359999999999872e-01 7.497402499999999748e+00 5.068255000000000621e+01 1.597934999999999945e+03
5.000000000000000278e-02 4.455064999999999720e-01 9.090505000000000280e+00 5.361260000000000048e+01 1.598750000000000000e+03
5.100000000000000366e-02 4.460169999999999968e-01 1.079534000000000127e+01 5.679755000000000109e+01 1.599650000000000091e+03
5.200000000000000455e-02 4.465565000000000229e-01 1.258110499999999909e+01 6.018175000000000097e+01 1.600619999999999891e+03
5.300000000000000544e-02 4.471140000000000114e-01 1.441315499999999972e+01 6.370434999999999803e+01 1.601644999999999982e+03
5.399999999999999939e-02 4.476799999999999669e-01 1.625597499999999940e+01 6.730264999999999986e+01 1.602699999999999818e+03
5.500000000000000028e-02 4.482444999999999902e-01 1.807610000000000028e+01 7.091684999999999661e+01 1.603780000000000200e+03
5.600000000000000117e-02 4.487995000000000179e-01 1.984479999999999933e+01 7.449389999999999645e+01 1.604860000000000127e+03
5.700000000000000205e-02 4.493390000000000439e-01 2.153940000000000055e+01 7.799115000000000464e+01 1.605930000000000064e+03
5.800000000000000294e-02 4.498600000000000376e-01 2.314430000000000121e+01 8.137794999999999845e+01 1.606974999999999909e+03
5.900000000000000383e-02 4.503614999999999702e-01 2.465064999999999884e+01 8.463685000000000969e+01 1.607994999999999891e+03
6.000000000000000472e-02 4.508434999999999526e-01 2.605564999999999998e+01 8.776265000000000782e+01 1.608985000000000127e+03
6.099999999999999867e-02 4.513080000000000425e-01 2.736144999999999783e+01 9.076104999999999734e+01 1.609945000000000164e+03
6.199999999999999956e-02 4.517579999999999929e-01 2.857399999999999807e+01 9.364560000000000173e+01 1.610865000000000009e+03
6.300000000000000044e-02 4.521975000000000300e-01 2.970154999999999745e+01 9.643755000000000166e+01 1.611764999999999873e+03
6.400000000000000133e-02 4.526300000000000323e-01 3.075410000000000110e+01 9.916004999999999825e+01 1.612644999999999982e+03
6.500000000000000222e-02 4.530584999999999751e-01 3.174195000000000277e+01 1.018379500000000064e+02 1.613509999999999991e+03
6.600000000000000311e-02 4.534875000000000433e-01 3.267524999999999835e+01 1.044950499999999920e+02 1.614365000000000009e+03
6.700000000000000400e-02 4.539195000000000313e-01 3.356280000000000285e+01 1.071514999999999986e+02 1.615220000000000027e+03
6.800000000000000488e-02 4.543559999999999821e-01 3.441165000000000163e+01 1.098245000000000005e+02 1.616079999999999927e+03
6.900000000000000577e-02 4.547984999999999944e-01 3.522650000000000148e+01 1.125225000000000080e+02 1.616940000000000055e+03
7.000000000000000666e-02 4.552454999999999696e-01 3.600905000000000200e+01 1.152479999999999905e+02 1.617805000000000064e+03
7.100000000000000755e-02 4.556965000000000598e-01 3.675804999999999723e+01 1.179950000000000045e+02 1.618679999999999836e+03
7.200000000000000844e-02 4.561485000000000123e-01 3.746920000000000073e+01 1.207514999999999930e+02 1.619559999999999945e+03
7.300000000000000933e-02 4.565974999999999895e-01 3.813555000000000206e+01 1.234984999999999928e+02 1.620434999999999945e+03
7.399999999999999634e-02 4.570400000000000018e-01 3.874840000000000373e+01 1.262100000000000080e+02 1.621304999999999836e+03
7.499999999999999722e-02 4.574705000000000021e-01 3.929775000000000063e+01 1.288584999999999923e+02 1.622154999999999973e+03
7.599999999999999811e-02 4.578840000000000132e-01 3.977325000000000443e+01 1.314139999999999873e+02 1.622985000000000127e+03
7.699999999999999900e-02 4.582764999999999755e-01 4.016495000000000459e+01 1.338460000000000036e+02 1.623775000000000091e+03
7.799999999999999989e-02 4.586434999999999818e-01 4.046405000000000030e+01 1.361285000000000025e+02 1.624529999999999973e+03
7.900000000000000078e-02 4.589820000000000011e-01 4.066344999999999743e+01 1.382355000000000018e+02 1.625230000000000018e+03
8.000000000000000167e-02 4.592884999999999884e-01 4.075795000000000101e+01 1.401490000000000009e+02 1.625875000000000000e+03
8.100000000000000255e-02 4.595619999999999705e-01 4.074479999999999791e+01 1.418545000000000016e+02 1.626460000000000036e+03
8.200000000000000344e-02 4.598005000000000009e-01 4.062369999999999948e+01 1.433439999999999941e+02 1.626980000000000018e+03
8.300000000000000433e-02 4.600055000000000116e-01 4.039650000000000318e+01 1.446150000000000091e+02 1.627434999999999945e+03
8.400000000000000522e-02 4.601764999999999883e-01 4.006759999999999877e+01 1.456700000000000159e+02 1.627824999999999818e+03
8.500000000000000611e-02 4.603160000000000029e-01 3.964365000000000094e+01 1.465185000000000173e+02 1.628150000000000091e+03
8.600000000000000699e-02 4.604255000000000431e-01 3.913304999999999723e+01 1.471725000000000136e+02 1.628414999999999964e+03
8.700000000000000788e-02 4.605084999999999873e-01 3.854605000000000103e+01 1.476499999999999773e+02 1.628619999999999891e+03
8.800000000000000877e-02 4.605669999999999487e-01 3.789435000000000286e+01 1.479705000000000155e+02 1.628775000000000091e+03
8.899999999999999578e-02 4.606065000000000298e-01 3.719044999999999845e+01 1.481574999999999989e+02 1.628880000000000109e+03
8.999999999999999667e-02 4.606289999999999552e-01 3.644749999999999801e+01 1.482334999999999923e+02 1.628945000000000164e+03
9.099999999999999756e-02 4.606394999999999795e-01 3.567884999999999707e+01 1.482239999999999895e+02 1.628984999999999900e+03
9.199999999999999845e-02 4.606405000000000083e-01 3.489724999999999966e+01 1.481514999999999986e+02 1.628994999999999891e+03
9.299999999999999933e-02 4.606365000000000043e-01 3.411475000000000080e+01 1.480384999999999991e+02 1.628990000000000009e+03
9.400000000000000022e-02 4.606290000000000107e-01 3.334185000000000088e+01 1.479054999999999893e+02 1.628969999999999800e+03
9.500000000000000111e-02 4.606215000000000170e-01 3.258740000000000236e+01 1.477680000000000007e+02 1.628940000000000055e+03
9.600000000000000200e-02 4.606149999999999967e-01 3.185824999999999818e+01 1.476394999999999982e+02 1.628914999999999964e+03
9.700000000000000289e-02 4.606114999999999515e-01 3.115884999999999749e+01 1.475285000000000082e+02 1.628884999999999991e+03
9.800000000000000377e-02 4.606100000000000194e-01 3.049139999999999873e+01 1.474389999999999930e+02 1.628860000000000127e+03
9.900000000000000466e-02 4.606120000000000214e-01 2.985589999999999833e+01 1.473714999999999975e+02 1.628840000000000146e+03
1.000000000000000056e-01 4.606145000000000378e-01 2.925014999999999787e+01 1.473224999999999909e+02 1.628819999999999936e+03
1.010000000000000064e-01 4.606175000000000130e-01 2.867025000000000290e+01 1.472839999999999918e+02 1.628804999999999836e+03
1.020000000000000073e-01 4.606190000000000007e-01 2.811080000000000112e+01 1.472459999999999809e+02 1.628795000000000073e+03
1.030000000000000082e-01 4.606164999999999843e-01 2.756544999999999845e+01 1.471965000000000146e+02 1.628775000000000091e+03
1.040000000000000091e-01 4.606090000000000462e-01 2.702705000000000268e+01 1.471225000000000023e+02 1.628744999999999891e+03
1.050000000000000100e-01 4.605924999999999603e-01 2.648839999999999861e+01 1.470105000000000075e+02 1.628710000000000036e+03
1.059999999999999970e-01 4.605675000000000185e-01 2.594239999999999924e+01 1.468464999999999918e+02 1.628659999999999854e+03
1.069999999999999979e-01 4.605304999999999538e-01 2.538260000000000005e+01 1.466189999999999998e+02 1.628599999999999909e+03
1.079999999999999988e-01 4.604810000000000292e-01 2.480344999999999800e+01 1.463179999999999836e+02 1.628509999999999991e+03
1.089999999999999997e-01 4.604169999999999652e-01 2.420060000000000144e+01 1.459354999999999905e+02 1.628400000000000091e+03
1.100000000000000006e-01 4.603389999999999982e-01 2.357119999999999749e+01 1.454674999999999727e+02 1.628264999999999873e+03
1.110000000000000014e-01 4.602470000000000172e-01 2.291414999999999935e+01 1.449125000000000227e+02 1.628105000000000018e+03
1.120000000000000023e-01 4.601410000000000222e-01 2.223010000000000019e+01 1.442725000000000080e+02 1.627920000000000073e+03
1.130000000000000032e-01 4.600230000000000152e-01 2.152145000000000152e+01 1.435529999999999973e+02 1.627710000000000036e+03
1.140000000000000041e-01 4.598940000000000250e-01 2.079240000000000066e+01 1.427624999999999886e+02 1.627474999999999909e+03
1.150000000000000050e-01 4.597565000000000124e-01 2.004879999999999995e+01 1.419139999999999873e+02 1.627224999999999909e+03
1.160000000000000059e-01 4.596129999999999938e-01 1.929775000000000063e+01 1.410210000000000150e+02 1.626960000000000036e+03
1.170000000000000068e-01 4.594660000000000410e-01 1.854745000000000132e+01 1.401014999999999873e+02 1.626684999999999945e+03
1.180000000000000077e-01 4.593189999999999773e-01 1.780689999999999884e+01 1.391719999999999970e+02 1.626400000000000091e+03
1.190000000000000085e-01 4.591749999999999998e-01 1.708539999999999992e+01 1.382520000000000095e+02 1.626115000000000009e+03
1.200000000000000094e-01 4.590359999999999996e-01 1.639209999999999923e+01 1.373589999999999804e+02 1.625840000000000146e+03
1.209999999999999964e-01 4.589050000000000074e-01 1.573574999999999946e+01 1.365115000000000123e+02 1.625569999999999936e+03
1.219999999999999973e-01 4.587849999999999984e-01 1.512440000000000140e+01 1.357239999999999895e+02 1.625320000000000164e+03
1.229999999999999982e-01 4.586775000000000158e-01 1.456465000000000032e+01 1.350109999999999957e+02 1.625085000000000036e+03
1.239999999999999991e-01 4.585839999999999916e-01 1.406200000000000117e+01 1.343829999999999814e+02 1.624875000000000000e+03
1.250000000000000000e-01 4.585055000000000103e-01 1.362008999999999936e+01 1.338470000000000084e+02 1.624684999999999945e+03
1.260000000000000009e-01 4.584420000000000162e-01 1.324089500000000008e+01 1.334075000000000273e+02 1.624534999999999854e+03
1.270000000000000018e-01 4.583935000000000093e-01 1.292474499999999971e+01 1.330649999999999977e+02 1.624400000000000091e+03
1.280000000000000027e-01 4.583599999999999897e-01 1.267012500000000053e+01 1.328164999999999907e+02 1.624300000000000182e+03
1.290000000000000036e-01 4.583395000000000108e-01 1.247405000000000008e+01 1.326569999999999823e+02 1.624230000000000018e+03
1.300000000000000044e-01 4.583309999999999884e-01 1.233230000000000004e+01 1.325784999999999911e+02 1.624175000000000182e+03
1.310000000000000053e-01 4.583329999999999904e-01 1.223945000000000149e+01 1.325705000000000098e+02 1.624154999999999973e+03
1.320000000000000062e-01 4.583430000000000004e-01 1.218935000000000102e+01 1.326210000000000093e+02 1.624144999999999982e+03
1.330000000000000071e-01 4.583595000000000308e-01 1.217539999999999978e+01 1.327185000000000059e+02 1.624154999999999973e+03
1.340000000000000080e-01 4.583810000000000384e-01 1.219074999999999953e+01 1.328505000000000109e+02 1.624180000000000064e+03
1.350000000000000089e-01 4.584044999999999925e-01 1.222869999999999990e+01 1.330049999999999955e+02 1.624204999999999927e+03
1.360000000000000098e-01 4.584285000000000165e-01 1.228284999999999982e+01 1.331700000000000159e+02 1.624244999999999891e+03
1.370000000000000107e-01 4.584529999999999994e-01 1.234724999999999895e+01 1.333369999999999891e+02 1.624289999999999964e+03
1.380000000000000115e-01 4.584755000000000358e-01 1.241675000000000040e+01 1.334964999999999975e+02 1.624329999999999927e+03
1.390000000000000124e-01 4.584955000000000558e-01 1.248690000000000033e+01 1.336430000000000007e+02 1.624365000000000009e+03
1.400000000000000133e-01 4.585124999999999895e-01 1.255405000000000015e+01 1.337715000000000032e+02 1.624404999999999973e+03
1.410000000000000142e-01 4.585255000000000303e-01 1.261534999999999940e+01 1.338790000000000191e+02 1.624434999999999945e+03
1.420000000000000151e-01 4.585359999999999436e-01 1.266884999999999906e+01 1.339644999999999868e+02 1.624460000000000036e+03
1.430000000000000160e-01 4.585424999999999640e-01 1.271335000000000015e+01 1.340279999999999916e+02 1.624480000000000018e+03
1.440000000000000169e-01 4.585469999999999824e-01 1.274830000000000041e+01 1.340704999999999814e+02 1.624494999999999891e+03
1.450000000000000178e-01 4.585484999999999700e-01 1.277384999999999948e+01 1.340955000000000155e+02 1.624505000000000109e+03
1.459999999999999909e-01 4.585474999999999968e-01 1.279074999999999918e+01 1.341059999999999945e+02 1.624509999999999991e+03
1.469999999999999918e-01 4.585460000000000091e-01 1.279990000000000094e+01 1.341055000000000064e+02 1.624519999999999982e+03
1.479999999999999927e-01 4.585434999999999928e-01 1.280290000000000106e+01 1.340985000000000014e+02 1.624515000000000100e+03
1.489999999999999936e-01 4.585409999999999764e-01 1.280130000000000123e+01 1.340894999999999868e+02 1.624519999999999982e+03
1.499999999999999944e-01 4.585394999999999888e-01 1.279684999999999917e+01 1.340819999999999936e+02 1.624514999999999873e+03
1.509999999999999953e-01 4.585390000000000299e-01 1.279135000000000133e+01 1.340805000000000007e+02 1.624519999999999982e+03
1.519999999999999962e-01 4.585405000000000175e-01 1.278635000000000055e+01 1.340875000000000057e+02 1.624525000000000091e+03
1.529999999999999971e-01 4.585439999999999516e-01 1.278340000000000032e+01 1.341059999999999945e+02 1.624525000000000091e+03
1.539999999999999980e-01 4.585500000000000131e-01 1.278354999999999997e+01 1.341374999999999886e+02 1.624534999999999854e+03
1.549999999999999989e-01 4.585580000000000211e-01 1.278780000000000072e+01 1.341829999999999927e+02 1.624550000000000182e+03
1.559999999999999998e-01 4.585690000000000044e-01 1.279649999999999999e+01 1.342439999999999998e+02 1.624570000000000164e+03
1.570000000000000007e-01 4.585814999999999753e-01 1.280985000000000085e+01 1.343185000000000002e+02 1.624590000000000146e+03
1.580000000000000016e-01 4.585965000000000180e-01 1.282760000000000034e+01 1.344050000000000011e+02 1.624615000000000009e+03
1.590000000000000024e-01 4.586129999999999929e-01 1.284914999999999985e+01 1.345024999999999977e+02 1.624644999999999982e+03
