# t [s], A [cm^2], U [cm/s], P [cPa], c [cm/s]
1.000000000000000021e-03 8.184274999999999745e-01 5.652500000000004743e-03 1.062599999999999909e+02 1.756945000000000164e+03
2.000000000000000042e-03 8.184219999999999828e-01 1.168970000000000078e-02 1.062355000000000018e+02 1.756934999999999945e+03
3.000000000000000062e-03 8.185204999999999842e-01 1.663730000000000209e-01 1.064194999999999993e+02 1.756970000000000027e+03
4.000000000000000083e-03 8.185454999999999259e-01 2.314755000000000007e-01 1.064900000000000091e+02 1.756989999999999782e+03
5.000000000000000104e-03 8.184485000000000232e-01 1.185174999999999979e-01 1.062390000000000043e+02 1.756944999999999936e+03
6.000000000000000125e-03 8.183475000000000055e-01 -1.456400000000002137e-02 1.058425000000000011e+02 1.756865000000000009e+03
7.000000000000000146e-03 8.182115000000000915e-01 -2.169200000000000017e-01 1.052745000000000033e+02 1.756755000000000109e+03
8.000000000000000167e-03 8.179669999999999996e-01 -6.074249999999999927e-01 1.043515000000000015e+02 1.756575000000000045e+03
9.000000000000001055e-03 8.176140000000000629e-01 -1.181685000000000096e+00 1.030106000000000108e+02 1.756309999999999945e+03
1.000000000000000194e-02 8.171235000000000026e-01 -1.963830000000000187e+00 1.011577499999999930e+02 1.755940000000000055e+03
1.099999999999999936e-02 8.164759999999999796e-01 -2.956790000000000251e+00 9.871635000000000559e+01 1.755444999999999936e+03
1.200000000000000025e-02 8.157459999999999711e-01 -4.009314999999999962e+00 9.583324999999999250e+01 1.754849999999999909e+03
1.300000000000000114e-02 8.150744999999999241e-01 -4.855566500000000119e+00 9.288960000000000150e+01 1.754214999999999918e+03
1.400000000000000203e-02 8.145694999999999464e-01 -5.276708000000000176e+00 9.028669999999999618e+01 1.753615000000000009e+03
1.499999999999999944e-02 8.142484999999999307e-01 -5.209470000000000489e+00 8.824000000000000909e+01 1.753109999999999900e+03
1.600000000000000033e-02 8.140450000000000186e-01 -4.745260000000000034e+00 8.671595000000000653e+01 1.752699999999999818e+03
1.700000000000000122e-02 8.138585000000000402e-01 -4.061774999999999913e+00 8.549164999999999281e+01 1.752335000000000036e+03
1.800000000000000211e-02 8.135995000000000310e-01 -3.335899999999999643e+00 8.427985000000001037e+01 1.751985000000000127e+03
1.900000000000000300e-02 8.132269999999999222e-01 -2.673124500000000126e+00 8.285999999999999943e+01 1.751610000000000127e+03
2.000000000000000042e-02 8.127575000000000216e-01 -2.080524999999999736e+00 8.115975000000000250e+01 1.751179999999999836e+03
2.100000000000000130e-02 8.122439999999999660e-01 -1.493614999999999915e+00 7.925169999999999959e+01 1.750715000000000146e+03
2.200000000000000219e-02 8.117419999999999636e-01 -8.367099999999998428e-01 7.727870000000000061e+01 1.750230000000000018e+03
2.299999999999999961e-02 8.112774999999999848e-01 -7.991999999999999105e-02 7.535724999999999341e+01 1.749744999999999891e+03
2.400000000000000050e-02 8.108364999999999601e-01 7.328999999999998849e-01 7.350790000000000646e+01 1.749275000000000091e+03
2.500000000000000139e-02 8.103700000000000347e-01 1.489849999999999897e+00 7.163470000000000937e+01 1.748800000000000182e+03
2.600000000000000228e-02 8.098104999999999887e-01 2.041844999999999910e+00 6.955105000000000359e+01 1.748284999999999854e+03
2.700000000000000316e-02 8.090964999999999963e-01 2.246404999999999763e+00 6.704019999999999868e+01 1.747690000000000055e+03
2.800000000000000058e-02 8.081944999999999268e-01 2.011399999999999633e+00 6.393000000000000682e+01 1.746990000000000009e+03
2.900000000000000147e-02 8.071105000000000640e-01 1.324929999999999275e+00 6.015864999999999441e+01 1.746150000000000091e+03
3.000000000000000236e-02 8.058939999999999992e-01 2.606000000000001648e-01 5.580814999999999770e+01 1.745200000000000045e+03
3.099999999999999978e-02 8.046234999999999360e-01 -1.043099999999999916e+00 5.109319999999999595e+01 1.744164999999999964e+03
3.200000000000000067e-02 8.033890000000000198e-01 -2.418144999999999989e+00 4.631525000000000603e+01 1.743099999999999909e+03
3.300000000000000155e-02 8.022734999999999728e-01 -3.703825000000000589e+00 4.180084999999999695e+01 1.742070000000000164e+03
3.400000000000000244e-02 8.013399999999999412e-01 -4.771990000000000620e+00 3.784519999999999840e+01 1.741134999999999991e+03
3.500000000000000333e-02 8.006269999999999776e-01 -5.539114999999999789e+00 3.467320000000000135e+01 1.740355000000000018e+03
3.600000000000000422e-02 8.001510000000000566e-01 -5.965049999999999741e+00 3.242244999999999777e+01 1.739759999999999991e+03
3.700000000000000511e-02 7.999095000000000510e-01 -6.043155000000000499e+00 3.114594999999999914e+01 1.739369999999999891e+03
3.799999999999999906e-02 7.998899999999999899e-01 -5.787015000000000242e+00 3.082890000000000086e+01 1.739184999999999945e+03
3.899999999999999994e-02 8.000734999999999930e-01 -5.217455000000000176e+00 3.141229999999999833e+01 1.739210000000000036e+03
4.000000000000000083e-02 8.004430000000000156e-01 -4.353959800000000158e+00 3.281685000000000230e+01 1.739429999999999836e+03
4.100000000000000172e-02 8.009809999999999430e-01 -3.212060000000000137e+00 3.495824999999999960e+01 1.739820000000000164e+03
4.200000000000000261e-02 8.016725000000000101e-01 -1.806145000000000334e+00 3.775414999999999566e+01 1.740369999999999891e+03
4.300000000000000350e-02 8.024999999999999911e-01 -1.552199999999999136e-01 4.112259999999999849e+01 1.741059999999999945e+03
4.400000000000000439e-02 8.034424999999999484e-01 1.711384999999999934e+00 4.497605000000000075e+01 1.741875000000000000e+03
4.499999999999999833e-02 8.044750000000000512e-01 3.751139999999999919e+00 4.921574999999999989e+01 1.742784999999999854e+03
4.599999999999999922e-02 8.055674999999999919e-01 5.908720000000000638e+00 5.372995000000000232e+01 1.743769999999999982e+03
4.700000000000000011e-02 8.066875000000000018e-01 8.120155000000000456e+00 5.839679999999999893e+01 1.744809999999999945e+03
4.800000000000000100e-02 8.078030000000000488e-01 1.031883899999999876e+01 6.309114999999999895e+01 1.745869999999999891e+03
4.900000000000000189e-02 8.088849999999999651e-01 1.244193500000000085e+01 6.769429999999999836e+01 1.746930000000000064e+03
5.000000000000000278e-02 8.099115000000000064e-01 1.443612999999999857e+01 7.210339999999999350e+01 1.747960000000000036e+03
5.100000000000000366e-02 8.108665000000000456e-01 1.626136500000000140e+01 7.623940000000000339e+01 1.748944999999999936e+03
5.200000000000000455e-02 8.117410000000000458e-01 1.789225000000000065e+01 8.005144999999998845e+01 1.749865000000000009e+03
5.300000000000000544e-02 8.125350000000000072e-01 1.931815000000000282e+01 8.351820000000000732e+01 1.750719999999999800e+03
5.399999999999999939e-02 8.132539999999999214e-01 2.054070000000000107e+01 8.664564999999998918e+01 1.751510000000000218e+03
5.500000000000000028e-02 8.139060000000000183e-01 2.157215000000000060e+01 8.946250000000000568e+01 1.752224999999999909e+03
5.600000000000000117e-02 8.145055000000001044e-01 2.243200000000000216e+01 9.201505000000000223e+01 1.752880000000000109e+03
5.700000000000000205e-02 8.150649999999999284e-01 2.314519999999999911e+01 9.436135000000000161e+01 1.753490000000000009e+03
5.800000000000000294e-02 8.156010000000000204e-01 2.373975000000000080e+01 9.656530000000000769e+01 1.754065000000000055e+03
5.900000000000000383e-02 8.161289999999999933e-01 2.424479999999999791e+01 9.869180000000000064e+01 1.754614999999999782e+03
6.000000000000000472e-02 8.166609999999999703e-01 2.468894999999999840e+01 1.008020999999999958e+02 1.755154999999999973e+03
6.099999999999999867e-02 8.172090000000000742e-01 2.509790000000000276e+01 1.029484999999999957e+02 1.755690000000000055e+03
6.199999999999999956e-02 8.177820000000000089e-01 2.549269999999999925e+01 1.051694999999999993e+02 1.756244999999999891e+03
6.300000000000000044e-02 8.183815000000000950e-01 2.588795000000000002e+01 1.074904999999999973e+02 1.756809999999999945e+03
6.400000000000000133e-02 8.190079999999999583e-01 2.629030000000000200e+01 1.099155000000000086e+02 1.757400000000000091e+03
6.500000000000000222e-02 8.196550000000000225e-01 2.669879999999999853e+01 1.124309999999999974e+02 1.758009999999999991e+03
6.600000000000000311e-02 8.203134999999999177e-01 2.710459999999999781e+01 1.150045000000000073e+02 1.758625000000000000e+03
6.700000000000000400e-02 8.209699999999999775e-01 2.749264999999999759e+01 1.175895000000000010e+02 1.759250000000000000e+03
6.800000000000000488e-02 8.216094999999999926e-01 2.784355000000000047e+01 1.201285000000000025e+02 1.759865000000000009e+03
6.900000000000000577e-02 8.222165000000000168e-01 2.813550000000000040e+01 1.225585000000000093e+02 1.760465000000000146e+03
7.000000000000000666e-02 8.227754999999999930e-01 2.834669999999999845e+01 1.248155000000000001e+02 1.761019999999999982e+03
7.100000000000000755e-02 8.232729999999999215e-01 2.845705000000000240e+01 1.268404999999999916e+02 1.761529999999999973e+03
7.200000000000000844e-02 8.236974999999999714e-01 2.844999999999999929e+01 1.285825000000000102e+02 1.761980000000000018e+03
7.300000000000000933e-02 8.240410000000000235e-01 2.831329999999999814e+01 1.300035000000000025e+02 1.762360000000000127e+03
7.399999999999999634e-02 8.242990000000000039e-01 2.804014999999999702e+01 1.310780000000000030e+02 1.762660000000000082e+03
7.499999999999999722e-02 8.244704999999999950e-01 2.762935000000000230e+01 1.317955000000000041e+02 1.762880000000000109e+03
7.599999999999999811e-02 8.245564999999999145e-01 2.708509999999999707e+01 1.321605000000000132e+02 1.763019999999999982e+03
7.699999999999999900e-02 8.245645000000000335e-01 2.641700000000000159e+01 1.321920000000000073e+02 1.763085000000000036e+03
7.799999999999999989e-02 8.245009999999999284e-01 2.563945000000000007e+01 1.319190000000000111e+02 1.763070000000000164e+03
7.900000000000000078e-02 8.243759999999999977e-01 2.477080000000000126e+01 1.313824999999999932e+02 1.762990000000000009e+03
8.000000000000000167e-02 8.242030000000000189e-01 2.383230000000000004e+01 1.306295000000000073e+02 1.762860000000000127e+03
8.100000000000000255e-02 8.239929999999999755e-01 2.284710000000000107e+01 1.297144999999999868e+02 1.762679999999999836e+03
8.200000000000000344e-02 8.237605000000000066e-01 2.183934999999999960e+01 1.286895000000000095e+02 1.762464999999999918e+03
8.300000000000000433e-02 8.235175000000000134e-01 2.083245000000000147e+01 1.276110000000000042e+02 1.762234999999999900e+03
8.400000000000000522e-02 8.232755000000000489e-01 1.984825000000000017e+01 1.265285000000000082e+02 1.761994999999999891e+03
8.500000000000000611e-02 8.230450000000000266e-01 1.890595000000000070e+01 1.254865000000000066e+02 1.761755000000000109e+03
8.600000000000000699e-02 8.228340000000000654e-01 1.802094999999999914e+01 1.245225000000000080e+02 1.761530000000000200e+03
8.700000000000000788e-02 8.226489999999999636e-01 1.720449999999999946e+01 1.236640000000000015e+02 1.761319999999999936e+03
8.800000000000000877e-02 8.224914999999999310e-01 1.646290000000000120e+01 1.229279999999999973e+02 1.761134999999999991e+03
8.899999999999999578e-02 8.223644999999999428e-01 1.579804999999999993e+01 1.223239999999999981e+02 1.760974999999999909e+03
8.999999999999999667e-02 8.222650000000000237e-01 1.520684999999999931e+01 1.218474999999999966e+02 1.760845000000000027e+03
9.099999999999999756e-02 8.221899999999999764e-01 1.468230000000000146e+01 1.214869999999999948e+02 1.760740000000000009e+03
9.199999999999999845e-02 8.221344999999999903e-01 1.421369999999999933e+01 1.212224999999999966e+02 1.760654999999999973e+03
9.299999999999999933e-02 8.220914999999999750e-01 1.378759999999999941e+01 1.210285000000000082e+02 1.760590000000000146e+03
9.400000000000000022e-02 8.220540000000000624e-01 1.338870000000000005e+01 1.208760000000000048e+02 1.760539999999999964e+03
9.500000000000000111e-02 8.220144999999999813e-01 1.300084999999999980e+01 1.207309999999999945e+02 1.760490000000000009e+03
9.600000000000000200e-02 8.219650000000000567e-01 1.260795000000000066e+01 1.205630000000000024e+02 1.760440000000000055e+03
9.700000000000000289e-02 8.218984999999999763e-01 1.219507000000000119e+01 1.203410000000000082e+02 1.760380000000000109e+03
9.800000000000000377e-02 8.218104999999999993e-01 1.174919999999999831e+01 1.200405000000000086e+02 1.760309999999999945e+03
9.900000000000000466e-02 8.216959999999999820e-01 1.126031000000000049e+01 1.196400000000000006e+02 1.760220000000000027e+03
1.000000000000000056e-01 8.215535000000000476e-01 1.072164499999999876e+01 1.191270000000000095e+02 1.760099999999999909e+03
1.010000000000000064e-01 8.213820000000000565e-01 1.013052500000000045e+01 1.184969999999999999e+02 1.759965000000000146e+03
1.020000000000000073e-01 8.211839999999999140e-01 9.488165000000000404e+00 1.177520000000000095e+02 1.759800000000000182e+03
1.030000000000000082e-01 8.209619999999999695e-01 8.800019999999999953e+00 1.169044999999999987e+02 1.759610000000000127e+03
1.040000000000000091e-01 8.207234999999999392e-01 8.075029999999999930e+00 1.159735000000000014e+02 1.759404999999999973e+03
1.050000000000000100e-01 8.204734999999999667e-01 7.325409999999999755e+00 1.149849999999999994e+02 1.759179999999999836e+03
1.059999999999999970e-01 8.202205000000000190e-01 6.565860000000000696e+00 1.139689999999999941e+02 1.758950000000000045e+03
1.069999999999999979e-01 8.199735000000000218e-01 5.812579999999999636e+00 1.129604999999999961e+02 1.758715000000000146e+03
1.079999999999999988e-01 8.197404999999999831e-01 5.082465000000000011e+00 1.119929999999999950e+02 1.758490000000000009e+03
1.089999999999999997e-01 8.195289999999999520e-01 4.391989999999999839e+00 1.111020000000000039e+02 1.758275000000000091e+03
1.100000000000000006e-01 8.193475000000000064e-01 3.756334999999999980e+00 1.103174999999999955e+02 1.758085000000000036e+03
1.110000000000000014e-01 8.192010000000000680e-01 3.188514999999999766e+00 1.096664999999999992e+02 1.757924999999999955e+03
1.120000000000000023e-01 8.190934999999999189e-01 2.698679999999999968e+00 1.091690000000000111e+02 1.757789999999999964e+03
1.130000000000000032e-01 8.190275000000000194e-01 2.293600000000000083e+00 1.088365000000000009e+02 1.757690000000000055e+03
1.140000000000000041e-01 8.190030000000000365e-01 1.976429999999999909e+00 1.086749999999999972e+02 1.757630000000000109e+03
1.150000000000000050e-01 8.190189999999999415e-01 1.746649999999999814e+00 1.086809999999999974e+02 1.757610000000000127e+03
1.160000000000000059e-01 8.190714999999999524e-01 1.600254999999999983e+00 1.088439999999999941e+02 1.757619999999999891e+03
1.170000000000000068e-01 8.191559999999999953e-01 1.530162000000000022e+00 1.091465000000000032e+02 1.757670000000000073e+03
1.180000000000000077e-01 8.192669999999999675e-01 1.526697999999999888e+00 1.095664999999999907e+02 1.757750000000000000e+03
1.190000000000000085e-01 8.193969999999999310e-01 1.578259999999999996e+00 1.100769999999999982e+02 1.757849999999999909e+03
1.200000000000000094e-01 8.195390000000000175e-01 1.671982999999999997e+00 1.106500000000000057e+02 1.757965000000000146e+03
1.209999999999999964e-01 8.196875000000000133e-01 1.794421000000000044e+00 1.112560000000000002e+02 1.758095000000000027e+03
1.219999999999999973e-01 8.198339999999999517e-01 1.932188999999999934e+00 1.118670000000000044e+02 1.758230000000000018e+03
1.229999999999999982e-01 8.199730000000000629e-01 2.072543000000000024e+00 1.124569999999999936e+02 1.758360000000000127e+03
1.239999999999999991e-01 8.201000000000000512e-01 2.203895000000000159e+00 1.130014999999999930e+02 1.758485000000000127e+03
1.250000000000000000e-01 8.202095000000000358e-01 2.316184999999999938e+00 1.134819999999999993e+02 1.758595000000000027e+03
1.260000000000000009e-01 8.202994999999999592e-01 2.401170000000000027e+00 1.138824999999999932e+02 1.758700000000000045e+03
1.270000000000000018e-01 8.203670000000000684e-01 2.452644999999999964e+00 1.141935000000000002e+02 1.758775000000000091e+03
1.280000000000000027e-01 8.204114999999999602e-01 2.466470000000000162e+00 1.144095000000000084e+02 1.758835000000000036e+03
1.290000000000000036e-01 8.204335000000000377e-01 2.440620000000000012e+00 1.145279999999999916e+02 1.758869999999999891e+03
1.300000000000000044e-01 8.204329999999999679e-01 2.375035000000000007e+00 1.145519999999999925e+02 1.758894999999999982e+03
1.310000000000000053e-01 8.204120000000000301e-01 2.271500000000000075e+00 1.144879999999999995e+02 1.758889999999999873e+03
1.320000000000000062e-01 8.203734999999999777e-01 2.133354999999999890e+00 1.143449999999999989e+02 1.758865000000000009e+03
1.330000000000000071e-01 8.203199999999999381e-01 1.965249999999999941e+00 1.141340000000000003e+02 1.758829999999999927e+03
1.340000000000000080e-01 8.202544999999999975e-01 1.772826499999999861e+00 1.138670000000000044e+02 1.758779999999999973e+03
1.350000000000000089e-01 8.201800000000000201e-01 1.562327999999999939e+00 1.135584999999999951e+02 1.758720000000000027e+03
1.360000000000000098e-01 8.201005000000000100e-01 1.340286499999999936e+00 1.132205000000000013e+02 1.758650000000000091e+03
1.370000000000000107e-01 8.200180000000000247e-01 1.113149050000000084e+00 1.128665000000000020e+02 1.758569999999999936e+03
1.380000000000000115e-01 8.199354999999999283e-01 8.869504999999999750e-01 1.125070000000000050e+02 1.758490000000000009e+03
1.390000000000000124e-01 8.198550000000000004e-01 6.670415000000000649e-01 1.121525000000000034e+02 1.758414999999999964e+03
1.400000000000000133e-01 8.197775000000000478e-01 4.578754999999999353e-01 1.118089999999999975e+02 1.758329999999999927e+03
1.410000000000000142e-01 8.197045000000000581e-01 2.628164999999999529e-01 1.114819999999999993e+02 1.758255000000000109e+03
1.420000000000000151e-01 8.196360000000000312e-01 8.410649999999997295e-02 1.111730000000000018e+02 1.758184999999999945e+03
1.430000000000000160e-01 8.195715000000000083e-01 -7.715349999999998598e-02 1.108824999999999932e+02 1.758110000000000127e+03
1.440000000000000169e-01 8.195105000000000306e-01 -2.209155000000000146e-01 1.106084999999999923e+02 1.758045000000000073e+03
1.450000000000000178e-01 8.194520000000000692e-01 -3.480429999999999913e-01 1.103465000000000060e+02 1.757980000000000018e+03
1.459999999999999909e-01 8.193939999999999557e-01 -4.601218000000000252e-01 1.100925000000000011e+02 1.757914999999999964e+03
1.469999999999999918e-01 8.193354999999999944e-01 -5.592451000000000505e-01 1.098384999999999962e+02 1.757855000000000018e+03
1.479999999999999927e-01 8.192749999999999755e-01 -6.477784999999999238e-01 1.095810000000000031e+02 1.757789999999999964e+03
1.489999999999999936e-01 8.192105000000000636e-01 -7.281634999999999636e-01 1.093125000000000000e+02 1.757724999999999909e+03
1.499999999999999944e-01 8.191420000000000368e-01 -8.027254999999999807e-01 1.090285000000000082e+02 1.757659999999999854e+03
1.509999999999999953e-01 8.190680000000000183e-01 -8.734994999999999843e-01 1.087255000000000109e+02 1.757579999999999927e+03
1.519999999999999962e-01 8.189874999999999794e-01 -9.421284999999999243e-01 1.084004999999999939e+02 1.757505000000000109e+03
1.529999999999999971e-01 8.189020000000000188e-01 -1.009789000000000048e+00 1.080529999999999973e+02 1.757424999999999955e+03
1.539999999999999980e-01 8.188100000000000378e-01 -1.077107999999999954e+00 1.076835000000000093e+02 1.757335000000000036e+03
1.549999999999999989e-01 8.187135000000000939e-01 -1.144185999999999925e+00 1.072934999999999945e+02 1.757244999999999891e+03
1.559999999999999998e-01 8.186124999999999652e-01 -1.210560499999999928e+00 1.068875000000000028e+02 1.757150000000000091e+03
1.570000000000000007e-01 8.185089999999999311e-01 -1.275250500000000065e+00 1.064689999999999941e+02 1.757050000000000182e+03
1.580000000000000016e-01 8.184035000000000615e-01 -1.336783499999999902e+00 1.060444999999999993e+02 1.756944999999999936e+03
1.590000000000000024e-01 8.182985000000000397e-01 -1.393275000000000041e+00 1.056204999999999927e+02 1.756849999999999909e+03
